542.7430628545155
542.7346775150254
542.7262918950541
542.7179059954567
542.7095198170882
542.7011333608041
542.6927466274601
542.6843596179126
542.6759723330179
542.6675847736319
542.6591969406104
542.6508088348087
542.6424204570822
542.6340318082862
542.6256428892766
542.617253700909
542.6088642440391
542.6004745195223
542.5920845282142
542.5836942709705
542.5753037486475
542.5669129621015
542.558521912189
542.550130599767
542.5417390256926
542.5333471908225
542.5249550960134
542.5165627421216
542.5081701300032
542.499777260515
542.491384134513
542.4829907528542
542.4745971163952
542.4662032259928
542.4578090825034
542.4494146867837
542.4410200396906
542.4326251420807
542.4242299948116
542.415834598741
542.4074389547266
542.3990430636261
542.3906469262974
542.3822505435987
542.3738539163878
542.3654570455228
542.3570599318616
542.3486625762621
542.3402649795819
542.3318671426787
542.3234690664099
542.3150707516327
542.3066721992045
542.2982734099833
542.2898743848268
542.281475124593
542.2730756301398
542.2646759023255
542.2562759420089
542.2478757500489
542.2394753273047
542.2310746746348
542.2226737928975
542.2142726829511
542.205871345654
542.197469781865
542.1890679924427
542.1806659782451
542.1722637401303
542.1638612789568
542.155458595583
542.1470556908675
542.1386525656685
542.1302492208442
542.1218456572528
542.1134418757529
542.1050378772029
542.0966336624615
542.0882292323877
542.0798245878404
542.0714197296788
542.0630146587616
542.0546093759476
542.0462038820956
542.0377981780643
542.0293922647124
542.0209861428991
542.0125798134841
542.0041732773273
541.995766535289
541.9873595882295
541.978952437009
541.9705450824877
541.9621375255258
541.953729766984
541.9453218077228
541.936913648603
541.9285052904847
541.9200967342281
541.9116879806932
541.9032790307406
541.8948698852312
541.8864605450258
541.878051010985
541.8696412839695
541.86123136484
541.8528212544575
541.8444109536827
541.836000463376
541.8275897843976
541.819178917608
541.8107678638685
541.8023566240406
541.7939451989857
541.7855335895656
541.7771217966422
541.7687098210777
541.760297663734
541.7518853254733
541.7434728071576
541.7350601096491
541.7266472338099
541.7182341805014
541.7098209505855
541.7014075449238
541.692993964378
541.6845802098101
541.6761662820813
541.6677521820534
541.6593379105875
541.650923468545
541.6425088567876
541.6340940761766
541.6256791275728
541.6172640118375
541.6088487298323
541.6004332824186
541.5920176704581
541.5836018948121
541.5751859563425
541.5667698559114
541.5583535943806
541.5499371726116
541.5415205914655
541.5331038518036
541.5246869544874
541.5162699003783
541.5078526903376
541.4994353252262
541.4910178059049
541.4826001332349
541.4741823080772
541.465764331293
541.457346203744
541.4489279262916
541.4405094997974
541.4320909251223
541.4236722031276
541.4152533346742
541.4068343206234
541.3984151618363
541.3899958591737
541.381576413497
541.3731568256671
541.3647370965455
541.3563172269928
541.34789721787
541.3394770700377
541.3310567843564
541.3226363616868
541.3142158028893
541.3057951088244
541.2973742803529
541.2889533183352
541.2805322236322
541.2721109971051
541.2636896396143
541.2552681520206
541.2468465351844
541.2384247899663
541.2300029172266
541.2215809178253
541.2131587926231
541.2047365424801
541.1963141682568
541.1878916708135
541.1794690510108
541.1710463097088
541.1626234477676
541.1542004660473
541.1457773654083
541.1373541467115
541.1289308108176
541.120507358587
541.1120837908802
541.103660108558
541.0952363124811
541.0868124035105
541.0783883825065
541.06996425033
541.0615400078416
541.0531156559018
541.0446911953711
541.0362666271099
541.0278419519786
541.0194171708386
541.0109922845509
541.0025672939764
540.9941421999761
540.9857170034106
540.9772917051409
540.9688663060278
540.9604408069322
540.9520152087152
540.9435895122381
540.9351637183615
540.9267378279465
540.9183118418537
540.9098857609438
540.9014595860772
540.8930333181142
540.8846069579156
540.8761805063418
540.8677539642536
540.8593273325114
540.8509006119762
540.8424738035087
540.8340469079699
540.8256199262205
540.8171928591216
540.8087657075339
540.8003384723177
540.7919111543333
540.783483754441
540.7750562735007
540.7666287123725
540.7582010719166
540.7497733529929
540.741345556461
540.7329176831809
540.7244897340117
540.7160617098132
540.7076336114446
540.699205439766
540.6907771956376
540.6823488799193
540.6739204934718
540.6654920371548
540.657063511828
540.6486349183515
540.6402062575846
540.6317775303869
540.6233487376176
540.6149198801359
540.6064909588008
540.5980619744716
540.5896329280074
540.5812038202671
540.5727746521093
540.5643454243925
540.5559161379751
540.5474867937155
540.5390573924715
540.5306279351007
540.5221984224613
540.5137688554114
540.5053392348088
540.4969095615113
540.4884798363764
540.4800500602614
540.4716202340237
540.4631903585205
540.4547604346089
540.4463304631458
540.4379004449879
540.4294703809919
540.4210402720153
540.4126101189154
540.4041799225495
540.3957496837747
540.3873194034486
540.3788890824283
540.3704587215709
540.3620283217342
540.3535978837754
540.3451674085518
540.3367368969207
540.3283063497393
540.3198757678647
540.3114451521546
540.3030145034663
540.2945838226569
540.2861531105837
540.2777223681037
540.2692915960743
540.2608607953525
540.2524299667953
540.2439991112587
540.2355682295993
540.2271373226731
540.2187063913366
540.2102754364462
540.201844458858
540.193413459428
540.1849824390122
540.1765513984662
540.1681203386461
540.1596892604073
540.1512581646055
540.142827052096
540.1343959237345
540.1259647803765
540.117533622878
540.1091024520947
540.1006712688827
540.0922400740978
540.083808868596
540.0753776532329
540.0669464288644
540.058515196346
540.050083956533
540.0416527102809
540.0332214584453
540.0247902018809
540.0163589414426
540.0079276779852
539.9994964123641
539.9910651454343
539.9826338780508
539.9742026110689
539.9657713453435
539.9573400817294
539.9489088210814
539.9404775642543
539.9320463121028
539.9236150654824
539.9151838252487
539.9067525922571
539.8983213673632
539.8898901514224
539.88145894529
539.8730277498214
539.8645965658716
539.8561653942952
539.8477342359472
539.8393030916827
539.8308719623569
539.822440848825
539.814009751942
539.8055786725629
539.7971476115429
539.7887165697371
539.7802855480008
539.7718545471898
539.7634235681599
539.7549926117667
539.7465616788663
539.738130770314
539.7296998869651
539.7212690296753
539.7128381992998
539.7044073966936
539.6959766227119
539.6875458782099
539.6791151640423
539.6706844810637
539.6622538301294
539.6538232120947
539.6453926278155
539.6369620781475
539.6285315639466
539.6201010860686
539.6116706453695
539.6032402427052
539.594809878932
539.5863795549062
539.5779492714844
539.569519029523
539.5610888298784
539.5526586734068
539.5442285609645
539.5357984934078
539.5273684715935
539.5189384963783
539.5105085686191
539.5020786891728
539.4936488588962
539.4852190786467
539.4767893492813
539.4683596716573
539.4599300466318
539.451500475062
539.4430709578046
539.4346414957165
539.4262120896542
539.4177827404742
539.4093534490326
539.4009242161851
539.3924950427872
539.3840659296945
539.3756368777624
539.3672078878465
539.3587789608018
539.3503500974837
539.3419212987474
539.3334925654485
539.325063898443
539.3166352985863
539.3082067667337
539.2997783037397
539.2913499104584
539.2829215877439
539.2744933364497
539.2660651574292
539.2576370515358
539.2492090196224
539.2407810625423
539.2323531811483
539.2239253762932
539.21549764883
539.2070699996116
539.1986424294905
539.1902149393195
539.181787529951
539.1733602022373
539.1649329570309
539.1565057951839
539.1480787175483
539.1396517249759
539.1312248183185
539.122797998428
539.1143712661565
539.1059446223553
539.0975180678761
539.0890916035705
539.0806652302904
539.0722389488876
539.0638127602138
539.0553866651201
539.0469606644574
539.0385347590764
539.0301089498275
539.0216832375613
539.0132576231283
539.0048321073791
538.9964066911646
538.9879813753355
538.9795561607427
538.9711310482364
538.962706038667
538.9542811328852
538.9458563317421
538.9374316360886
538.929007046775
538.9205825646516
538.9121581905683
538.9037339253757
538.8953097699243
538.8868857250648
538.8784617916479
538.8700379705247
538.8616142625465
538.8531906685644
538.8447671894294
538.8363438259921
538.8279205791027
538.8194974496114
538.8110744383682
538.8026515462238
538.7942287740284
538.785806122632
538.7773835928851
538.7689611856381
538.760538901741
538.7521167420441
538.7436947073973
538.7352727986499
538.7268510166518
538.7184293622527
538.7100078363019
538.7015864396494
538.6931651731452
538.6847440376391
538.6763230339809
538.6679021630202
538.6594814256068
538.6510608225904
538.6426403548203
538.6342200231459
538.6257998284163
538.617379771481
538.6089598531887
538.6005400743888
538.5921204359306
538.5837009386632
538.5752815834358
538.5668623710974
538.5584433024978
538.5500243784868
538.5416055999137
538.5331869676279
538.5247684824785
538.5163501453148
538.5079319569863
538.4995139183425
538.4910960302323
538.4826782935043
538.474260709007
538.4658432775886
538.457426000097
538.44900887738
538.4405919102855
538.4321750996614
538.4237584463558
538.415341951217
538.4069256150929
538.3985094388315
538.3900934232806
538.3816775692876
538.3732618776999
538.3648463493646
538.356430985129
538.3480157858405
538.3396007523461
538.3311858854927
538.3227711861277
538.3143566550982
538.3059422932513
538.2975281014337
538.2891140804923
538.2807002312734
538.2722865546236
538.2638730513895
538.2554597224175
538.2470465685542
538.2386335906463
538.23022078954
538.2218081660817
538.2133957211176
538.2049834554937
538.1965713700556
538.1881594656493
538.1797477431205
538.1713362033149
538.1629248470781
538.1545136752557
538.1461026886932
538.1376918882361
538.1292812747297
538.120870849019
538.1124606119483
538.1040505643623
538.0956407071055
538.0872310410227
538.0788215669586
538.0704122857576
538.0620031982644
538.0535943053237
538.0451856077805
538.0367771064793
538.0283688022655
538.0199606959843
538.0115527884809
538.0031450806
537.9947375731858
537.9863302670824
537.9779231631333
537.9695162621815
537.9611095650698
537.9527030726404
537.9442967857351
537.9358907051956
537.9274848318632
537.9190791665796
537.9106737101861
537.9022684635236
537.8938634274332
537.885458602756
537.8770539903328
537.8686495910047
537.8602454056124
537.8518414349969
537.8434376799987
537.8350341414584
537.826630820216
537.8182277171113
537.8098248329838
537.8014221686726
537.7930197250162
537.7846175028526
537.7762155030196
537.7678137263542
537.7594121736938
537.751010845876
537.7426097437383
537.7342088681185
537.7258082198537
537.7174077997806
537.7090076087361
537.7006076475568
537.692207917079
537.683808418139
537.6754091515731
537.6670101182174
537.6586113189082
537.6502127544823
537.6418144257759
537.633416333626
537.6250184788687
537.6166208623404
537.6082234848768
537.5998263473139
537.5914294504873
537.5830327952331
537.5746363823869
537.5662402127841
537.55784428726
537.5494486066493
537.5410531717871
537.5326579835078
537.5242630426455
537.5158683500342
537.5074739065076
537.499079712899
537.4906857700414
537.4822920787678
537.4738986399113
537.465505454305
537.4571125227819
537.4487198461745
537.440327425315
537.431935261035
537.4235433541662
537.4151517055398
537.4067603159865
537.3983691863373
537.3899783174229
537.381587710074
537.3731973651213
537.364807283396
537.3564174657292
537.3480279129524
537.3396386258964
537.3312496053923
537.3228608522704
537.3144723673618
537.3060841514971
537.297696205507
537.2893085302221
537.2809211264723
537.2725339950875
537.2641471368975
537.2557605527318
537.2473742434206
537.2389882097941
537.2306024526824
537.2222169729155
537.2138317713225
537.2054468487327
537.1970622059753
537.1886778438788
537.1802937632717
537.1719099649822
537.1635264498386
537.1551432186691
537.1467602723019
537.1383776115656
537.1299952372888
537.1216131502997
537.1132313514272
537.1048498415003
537.0964686213476
537.0880876917979
537.0797070536792
537.0713267078195
537.0629466550472
537.0545668961904
537.0461874320767
537.0378082635334
537.0294293913876
537.021050816466
537.0126725395953
537.0042945616026
536.9959168833147
536.9875395055587
536.9791624291618
536.9707856549508
536.9624091837522
536.9540330163929
536.9456571536998
536.9372815964998
536.9289063456195
536.9205314018848
536.9121567661218
536.9037824391569
536.895408421816
536.8870347149245
536.8786613193079
536.8702882357911
536.8619154651992
536.8535430083571
536.8451708660891
536.8367990392198
536.8284275285737
536.8200563349749
536.8116854592477
536.8033149022162
536.7949446647049
536.7865747475378
536.7782051515387
536.7698358775315
536.7614669263398
536.7530982987878
536.7447299956993
536.7363620178985
536.727994366209
536.7196270414547
536.7112600444589
536.7028933760448
536.6945270370359
536.6861610282554
536.6777953505264
536.669430004672
536.6610649915151
536.6527003118786
536.644335966585
536.6359719564571
536.6276082823176
536.6192449449895
536.6108819452959
536.6025192840598
536.5941569621039
536.5857949802507
536.5774333393229
536.5690720401426
536.5607110835324
536.5523504703142
536.54399020131
536.5356302773416
536.5272706992312
536.5189114678005
536.5105525838712
536.5021940482643
536.4938358618006
536.4854780253006
536.477120539585
536.4687634054742
536.4604066237885
536.4520501953484
536.4436941209749
536.4353384014885
536.4269830377098
536.4186280304593
536.4102733805578
536.4019190888253
536.3935651560819
536.385211583148
536.3768583708443
536.3685055199912
536.3601530314097
536.3518009059203
536.3434491443434
536.3350977474986
536.3267467162054
536.3183960512833
536.3100457535513
536.3016958238286
536.2933462629337
536.2849970716852
536.2766482509016
536.2682998014011
536.2599517240019
536.2516040195223
536.2432566887805
536.2349097325941
536.2265631517807
536.2182169471578
536.2098711195422
536.2015256697507
536.1931805985996
536.1848359069049
536.1764915954823
536.1681476651468
536.1598041167135
536.1514609509973
536.1431181688122
536.1347757709723
536.1264337582918
536.1180921315845
536.1097508916641
536.101410039344
536.0930695754371
536.0847295007557
536.0763898161122
536.0680505223188
536.0597116201875
536.0513731105298
536.0430349941571
536.0346972718808
536.0263599445116
536.0180230128603
536.0096864777383
536.0013503399568
535.9930146003269
535.9846792596595
535.9763443187658
535.9680097784567
535.9596756395433
535.9513419028367
535.9430085691474
535.9346756392856
535.9263431140614
535.9180109942849
535.9096792807663
535.9013479743153
535.8930170757412
535.8846865858536
535.8763565054614
535.8680268353737
535.859697576399
535.8513687293457
535.8430402950221
535.8347122742364
535.8263846677971
535.8180574765129
535.8097307011919
535.8014043426426
535.7930784016735
535.784752879093
535.7764277757094
535.7681030923304
535.759778829764
535.7514549888178
535.7431315702997
535.7348085750173
535.7264860037781
535.7181638573895
535.7098421366591
535.7015208423943
535.6931999754024
535.6848795364908
535.6765595264669
535.6682399461379
535.6599207963109
535.6516020777931
535.6432837913915
535.6349659379127
535.6266485181636
535.6183315329506
535.61001498308
535.6016988693582
535.5933831925918
535.5850679535872
535.576753153151
535.5684387920896
535.5601248712096
535.5518113913176
535.54349835322
535.5351857577227
535.5268736056314
535.5185618977512
535.5102506348867
535.5019398178422
535.4936294474221
535.4853195244309
535.477010049673
535.4687010239527
535.4603924480739
535.4520843228406
535.4437766490573
535.4354694275282
535.4271626590576
535.4188563444491
535.4105504845065
535.4022450800335
535.393940131833
535.3856356407082
535.3773316074621
535.3690280328976
535.3607249178172
535.3524222630231
535.3441200693178
535.3358183375037
535.3275170683828
535.3192162627568
535.3109159214273
535.3026160451957
535.2943166348632
535.2860176912309
535.2777192150998
535.2694212072704
535.2611236685434
535.2528265997194
535.2445300015984
535.2362338749804
535.2279382206648
535.2196430394513
535.2113483321396
535.2030540995297
535.1947603424217
535.1864670616151
535.1781742579092
535.1698819321027
535.161590084994
535.1532987173816
535.1450078300641
535.1367174238399
535.1284274995073
535.1201380578643
535.1118490997089
535.1035606258388
535.0952726370515
535.0869851341445
535.0786981179147
535.070411589159
535.0621255486744
535.0538399972579
535.0455549357061
535.0372703648159
535.0289862853836
535.0207026982057
535.0124196040783
535.004137003797
534.9958548981572
534.9875732879541
534.9792921739827
534.9710115570381
534.9627314379154
534.9544518174098
534.9461726963166
534.9378940754309
534.9296159555477
534.9213383374613
534.913061221966
534.904784609856
534.8965085019254
534.888232898968
534.8799578017781
534.8716832111497
534.8634091278764
534.8551355527509
534.8468624865659
534.8385899301138
534.830317884187
534.8220463495779
534.8137753270789
534.8055048174824
534.7972348215803
534.7889653401644
534.7806963740259
534.7724279239555
534.7641599907436
534.75589257518
534.7476256780549
534.739359300158
534.7310934422787
534.7228281052066
534.7145632897309
534.7062989966403
534.6980352267233
534.6897719807682
534.681509259563
534.6732470638954
534.6649853945532
534.6567242523247
534.6484636379978
534.6402035523606
534.631943996201
534.6236849703068
534.6154264754655
534.6071685124643
534.5989110820906
534.5906541851314
534.5823978223739
534.574141994605
534.5658867026114
534.5576319471793
534.5493777290958
534.5411240491476
534.5328709081218
534.5246183068057
534.5163662459861
534.5081147264498
534.4998637489839
534.4916133143752
534.4833634234101
534.4751140768749
534.4668652755561
534.4586170202401
534.4503693117138
534.4421221507637
534.4338755381764
534.4256294747383
534.4173839612358
534.4091389984549
534.400894587181
534.3926507281999
534.3844074222968
534.3761646702569
534.3679224728648
534.3596808309053
534.3514397451629
534.3431992164224
534.3349592454683
534.3267198330855
534.3184809800582
534.3102426871706
534.302004955206
534.2937677849477
534.2855311771782
534.2772951326801
534.2690596522357
534.260824736627
534.2525903866358
534.2443566030438
534.2361233866327
534.2278907381842
534.2196586584796
534.2114271482997
534.203196208425
534.1949658396359
534.1867360427127
534.1785068184354
534.1702781675835
534.1620500909366
534.1538225892737
534.1455956633736
534.1373693140151
534.1291435419766
534.1209183480364
534.1126937329727
534.1044696975639
534.0962462425882
534.0880233688245
534.0798010770509
534.0715793680461
534.0633582425885
534.0551377014565
534.0469177454283
534.0386983752821
534.0304795917957
534.0222613957469
534.0140437879136
534.0058267690731
533.9976103400024
533.9893945014783
533.9811792542769
533.9729645991742
533.9647505369462
533.9565370683686
533.9483241942171
533.9401119152676
533.9319002322957
533.9236891460769
533.9154786573868
533.9072687670009
533.8990594756945
533.8908507842423
533.882642693419
533.8744352039992
533.8662283167573
533.8580220324679
533.8498163519052
533.841611275843
533.8334068050549
533.8252029403147
533.8169996823963
533.8087970320726
533.8005949901162
533.7923935572999
533.7841927343961
533.7759925221776
533.7677929214165
533.7595939328849
533.751395557355
533.7431977955985
533.7350006483864
533.7268041164893
533.7186082006774
533.7104129017202
533.7022182203875
533.6940241574487
533.6858307136731
533.6776378898298
533.6694456866876
533.6612541050151
533.6530631455807
533.6448728091523
533.6366830964971
533.6284940083824
533.6203055455755
533.6121177088439
533.6039304989549
533.5957439166755
533.5875579627723
533.579372638012
533.5711879431612
533.5630038789864
533.5548204462539
533.5466376457298
533.5384554781797
533.5302739443691
533.5220930450637
533.5139127810285
533.5057331530284
533.4975541618282
533.4893758081932
533.4811980928882
533.4730210166783
533.4648445803286
533.4566687846038
533.4484936302679
533.4403191180845
533.4321452488175
533.4239720232306
533.4157994420875
533.4076275061516
533.3994562161859
533.3912855729534
533.3831155772173
533.3749462297405
533.3667775312861
533.358609482616
533.3504420844924
533.3422753376772
533.3341092429309
533.3259438010145
533.3177790126888
533.3096148787142
533.3014513998514
533.2932885768607
533.2851264105022
533.2769649015358
533.2688040507212
533.260643858818
533.2524843265858
533.2443254547838
533.2361672441714
533.2280096955074
533.2198528095507
533.21169658706
533.2035410287936
533.1953861355096
533.187231907966
533.1790783469205
533.1709254531306
533.1627732273532
533.154621670345
533.1464707828627
533.138320565663
533.1301710195021
533.1220221451363
533.1138739433209
533.1057264148112
533.0975795603631
533.0894333807319
533.0812878766724
533.0731430489395
533.0649988982877
533.0568554254714
533.0487126312446
533.0405705163612
533.032429081575
533.0242883276392
533.0161482553071
533.0080088653319
532.9998701584664
532.9917321354628
532.9835947970732
532.9754581440493
532.9673221771425
532.9591868971042
532.9510523046856
532.9429184006372
532.9347851857092
532.9266526606511
532.9185208262122
532.9103896831414
532.9022592321871
532.8941294740976
532.8860004096205
532.8778720395035
532.8697443644937
532.8616173853384
532.8534911027846
532.845365517579
532.8372406304684
532.8291164421994
532.8209929535183
532.8128701651715
532.8047480779055
532.7966266924664
532.7885060096
532.7803860300519
532.7722667545672
532.7641481838914
532.7560303187695
532.7479131599462
532.7397967081661
532.7316809641736
532.7235659287135
532.7154516025303
532.7073379863682
532.6992250809708
532.6911128870811
532.6830014054422
532.674890636797
532.666780581889
532.6586712414614
532.650562616257
532.642454707018
532.6343475144863
532.6262410394033
532.6181352825106
532.6100302445493
532.6019259262607
532.5938223283856
532.5857194516648
532.5776172968388
532.5695158646481
532.5614151558334
532.5533151711347
532.545215911292
532.537117377045
532.5290195691332
532.520922488296
532.5128261352725
532.504730510801
532.4966356156194
532.4885414504656
532.4804480160769
532.4723553131907
532.4642633425444
532.4561721048751
532.4480816009195
532.4399918314143
532.431902797096
532.4238144987007
532.4157269369646
532.4076401126233
532.3995540264123
532.3914686790663
532.38338407132
532.375300203908
532.367217077564
532.3591346930218
532.3510530510152
532.3429721522775
532.3348919975415
532.3268125875397
532.3187339230049
532.3106560046695
532.3025788332657
532.2945024095252
532.2864267341793
532.2783518079586
532.2702776315937
532.2622042058147
532.254131531352
532.2460596089354
532.2379884392944
532.2299180231587
532.2218483612578
532.2137794543214
532.2057113030792
532.19764390826
532.1895772705927
532.1815113908056
532.1734462696268
532.1653819077842
532.157318306005
532.149255465016
532.1411933855443
532.1331320683166
532.12507151406
532.117011723501
532.1089526973656
532.1008944363789
532.0928369412661
532.0847802127519
532.0767242515608
532.0686690584173
532.0606146340456
532.0525609791698
532.044508094514
532.036455980802
532.028404638758
532.0203540691059
532.012304272569
532.0042552498708
531.9962070017341
531.9881595288816
531.980112832036
531.9720669119197
531.9640217692554
531.9559774047652
531.9479338191711
531.9398910131949
531.9318489875582
531.923807742982
531.9157672801875
531.907727599895
531.8996887028247
531.8916505896968
531.883613261231
531.8755767181462
531.8675409611615
531.8595059909953
531.8514718083661
531.8434384139916
531.8354058085893
531.8273739928761
531.8193429675689
531.8113127333843
531.8032832910385
531.7952546412478
531.7872267847279
531.7791997221948
531.7711734543645
531.7631479819524
531.7551233056738
531.747099426244
531.7390763443782
531.7310540607918
531.7230325761993
531.715011891315
531.7069920068529
531.698972923527
531.6909546420509
531.6829371631381
531.6749204875018
531.6669046158545
531.6588895489085
531.650875287376
531.6428618319687
531.6348491833983
531.6268373423759
531.6188263096128
531.6108160858198
531.6028066717072
531.5947980679853
531.5867902753644
531.5787832945548
531.5707771262671
531.5627717712114
531.5547672300972
531.5467635036341
531.5387605925309
531.5307584974967
531.52275721924
531.5147567584695
531.5067571158934
531.4987582922199
531.4907602881567
531.4827631044109
531.4747667416891
531.4667712006978
531.4587764821431
531.4507825867308
531.4427895151669
531.4347972681562
531.4268058464036
531.4188152506133
531.4108254814892
531.4028365397342
531.3948484260509
531.3868611411417
531.3788746857085
531.3708890604526
531.3629042660746
531.3549203032749
531.3469371727533
531.3389548752093
531.3309734113413
531.3229927818479
531.315012987427
531.3070340287763
531.2990559065929
531.2910786215734
531.2831021744144
531.2751265658119
531.2671517964618
531.2591778670592
531.2512047782986
531.2432325308746
531.2352611254814
531.2272905628129
531.2193208435624
531.2113519684233
531.2033839380886
531.1954167532506
531.1874504146012
531.1794849228324
531.1715202786359
531.1635564827029
531.1555935357251
531.1476314383938
531.1396701914005
531.1317097954366
531.1237502511933
531.1157915593617
531.1078337206327
531.0998767356975
531.0919206052474
531.0839653299736
531.0760109105665
531.0680573477161
531.0601046421118
531.0521527944429
531.0442018053982
531.0362516756659
531.0283024059336
531.0203539968884
531.012406449217
531.0044597636056
530.9965139407404
530.9885689813073
530.9806248859916
530.9726816554789
530.9647392904549
530.9567977916042
530.9488571596114
530.9409173951608
530.9329784989363
530.9250404716217
530.9171033139005
530.9091670264556
530.9012316099697
530.8932970651254
530.8853633926051
530.877430593091
530.8694986672654
530.8615676158101
530.8536374394071
530.8457081387373
530.8377797144819
530.8298521673216
530.8219254979372
530.8139997070089
530.806074795217
530.7981507632417
530.7902276117629
530.7823053414606
530.7743839530144
530.7664634471037
530.7585438244078
530.7506250856054
530.7427072313756
530.7347902623969
530.726874179348
530.7189589829068
530.7110446737508
530.7031312525578
530.695218720005
530.6873070767695
530.6793963235282
530.6714864609576
530.663577489734
530.6556694105334
530.6477622240309
530.6398559309018
530.6319505318211
530.624046027463
530.616142418502
530.6082397056125
530.6003378894688
530.592436970745
530.5845369501144
530.5766378282506
530.5687396058267
530.5608422835157
530.5529458619903
530.5450503419231
530.537155723986
530.5292620088503
530.5213691971871
530.5134772896672
530.5055862869613
530.49769618974
530.4898069986739
530.4819187144328
530.474031337686
530.4661448691024
530.4582593093505
530.4503746590985
530.4424909190143
530.4346080897649
530.4267261720174
530.4188451664386
530.4109650736946
530.4030858944514
530.3952076293747
530.3873302791303
530.379453844384
530.3715783258012
530.3637037240474
530.3558300397872
530.3479572736851
530.340085426405
530.3322144986105
530.3243444909649
530.3164754041313
530.3086072387725
530.3007399955509
530.2928736751282
530.2850082781667
530.2771438053278
530.2692802572724
530.2614176346615
530.2535559381558
530.2456951684162
530.2378353261029
530.2299764118759
530.2221184263954
530.2142613703209
530.206405244312
530.1985500490282
530.1906957851288
530.1828424532728
530.1749900541186
530.1671385883246
530.1592880565495
530.1514384594509
530.1435897976867
530.1357420719146
530.1278952827925
530.1200494309776
530.1122045171269
530.104360541897
530.0965175059446
530.088675409926
530.080834254497
530.0729940403126
530.0651547680275
530.0573164382963
530.0494790517732
530.0416426091119
530.0338071109654
530.0259725579863
530.018138950827
530.0103062901399
530.002474576577
529.9946438107909
529.9868139934331
529.9789851251551
529.971157206608
529.9633302384432
529.9555042213115
529.9476791558634
529.9398550427493
529.9320318826194
529.9242096761236
529.9163884239115
529.9085681266329
529.9007487849374
529.8929303994742
529.8851129708924
529.8772964998407
529.8694809869671
529.861666432919
529.8538528383433
529.8460402038863
529.8382285301941
529.8304178179123
529.8226080676868
529.8147992801632
529.8069914559869
529.7991845958027
529.7913787002549
529.7835737699879
529.775769805646
529.7679668078727
529.7601647773115
529.7523637146057
529.7445636203981
529.736764495331
529.7289663400466
529.7211691551863
529.7133729413918
529.7055776993038
529.6977834295631
529.6899901328097
529.6821978096839
529.6744064608251
529.6666160868731
529.6588266884673
529.6510382662473
529.6432508208518
529.6354643529194
529.6276788630882
529.6198943519962
529.6121108202806
529.6043282685782
529.5965466975263
529.5887661077613
529.5809864999196
529.5732078746373
529.5654302325506
529.557653574296
529.5498779005093
529.5421032118261
529.5343295088819
529.5265567923116
529.5187850627494
529.5110143208296
529.5032445671864
529.4954758024533
529.4877080272636
529.4799412422499
529.4721754480443
529.4644106452783
529.4566468345836
529.4488840165909
529.4411221919308
529.4333613612339
529.4256015251308
529.4178426842523
529.4100848392288
529.4023279906908
529.3945721392683
529.3868172855916
529.3790634302904
529.3713105739948
529.3635587173344
529.3558078609385
529.3480580054361
529.3403091514556
529.3325612996252
529.3248144505728
529.3170686049252
529.3093237633093
529.3015799263515
529.2938370946777
529.2860952689134
529.278354449684
529.2706146376145
529.2628758333294
529.2551380374534
529.2474012506109
529.2396654734259
529.2319307065222
529.224196950523
529.2164642060511
529.2087324737288
529.2010017541784
529.1932720480218
529.1855433558806
529.1778156783762
529.1700890161296
529.1623633697614
529.1546387398919
529.1469151271413
529.1391925321295
529.1314709554767
529.1237503978023
529.116030859725
529.1083123418639
529.1005948448374
529.0928783692636
529.085162915761
529.0774484849476
529.0697350774417
529.0620226938611
529.0543113348231
529.0466010009447
529.0388916928432
529.0311834111353
529.0234761564375
529.0157699293659
529.0080647305367
529.0003605605657
528.9926574200681
528.9849553096587
528.977254229952
528.9695541815618
528.9618551651015
528.9541571811842
528.9464602304229
528.93876431343
528.9310694308178
528.9233755831979
528.9156827711818
528.9079909953807
528.9003002564054
528.8926105548662
528.8849218913729
528.8772342665347
528.8695476809612
528.8618621352616
528.8541776300449
528.8464941659197
528.8388117434945
528.8311303633777
528.8234500261779
528.8157707325026
528.8080924829592
528.8004152781541
528.7927391186936
528.7850640051834
528.7773899382287
528.7697169184344
528.7620449464052
528.7543740227457
528.74670414806
528.7390353229521
528.7313675480259
528.7237008238853
528.7160351511338
528.7083705303744
528.70070696221
528.6930444472437
528.6853829860784
528.6777225793167
528.6700632275606
528.6624049314116
528.6547476914709
528.6470915083398
528.6394363826198
528.6317823149118
528.6241293058163
528.6164773559335
528.6088264658638
528.6011766362067
528.5935278675615
528.5858801605273
528.5782335157023
528.5705879336847
528.5629434150719
528.5552999604611
528.5476575704486
528.5400162456306
528.532375986603
528.5247367939614
528.5170986683011
528.5094616102169
528.5018256203039
528.4941906991562
528.4865568473679
528.4789240655318
528.4712923542411
528.4636617140882
528.4560321456652
528.4484036495635
528.440776226374
528.4331498766874
528.4255246010935
528.4179004001821
528.410277274543
528.4026552247647
528.3950342514349
528.3874143551411
528.3797955364698
528.3721777960072
528.3645611343395
528.3569455520524
528.3493310497315
528.3417176279622
528.3341052873293
528.3264940284168
528.3188838518092
528.3112747580903
528.3036667478439
528.2960598216532
528.2884539801016
528.2808492237718
528.2732455532466
528.2656429691085
528.25804147194
528.250441062323
528.2428417408389
528.2352435080686
528.227646364593
528.2200503109925
528.212455347847
528.2048614757364
528.1972686952402
528.1896770069372
528.1820864114063
528.174496909226
528.1669085009748
528.159321187231
528.1517349685719
528.1441498455747
528.136565818816
528.1289828888721
528.121401056319
528.1138203217329
528.1062406856897
528.0986621487655
528.091084711536
528.0835083745774
528.075933138465
528.0683590037743
528.0607859710808
528.0532140409598
528.0456432139861
528.038073490734
528.0305048717778
528.0229373576917
528.0153709490496
528.0078056464249
528.0002414503911
527.992678361521
527.9851163803871
527.9775555075614
527.9699957436155
527.9624370891206
527.9548795446472
527.9473231107656
527.9397677880461
527.9322135770581
527.9246604783707
527.9171084925522
527.9095576201707
527.9020078617941
527.8944592179896
527.8869116893238
527.8793652763632
527.8718199796733
527.86427579982
527.8567327373685
527.8491907928837
527.8416499669306
527.8341102600734
527.8265716728765
527.8190342059038
527.8114978597187
527.8039626348843
527.796428531964
527.7888955515207
527.7813636941169
527.7738329603144
527.7663033506751
527.7587748657606
527.7512475061326
527.7437212723521
527.7361961649799
527.7286721845762
527.7211493317013
527.7136276069155
527.7061070107784
527.6985875438495
527.6910692066879
527.6835519998526
527.6760359239026
527.6685209793964
527.6610071668915
527.6534944869459
527.6459829401165
527.63847252696
527.6309632480325
527.6234551038897
527.6159480950873
527.6084422221811
527.6009374857263
527.5934338862776
527.5859314243894
527.5784301006158
527.5709299155108
527.5634308696276
527.5559329635198
527.5484361977406
527.5409405728433
527.533446089381
527.5259527479066
527.5184605489726
527.5109694931314
527.5034795809347
527.4959908129345
527.488503189682
527.4810167117284
527.473531379625
527.4660471939223
527.4585641551707
527.4510822639202
527.44360152072
527.4361219261191
527.4286434806663
527.4211661849104
527.4136900393994
527.4062150446812
527.398741201303
527.3912685098119
527.3837969707545
527.3763265846769
527.3688573521249
527.3613892736439
527.3539223497787
527.3464565810737
527.3389919680726
527.3315285113188
527.3240662113553
527.316605068725
527.3091450839702
527.3016862576328
527.294228590255
527.2867720823788
527.2793167345462
527.2718625472994
527.2644095211799
527.2569576567294
527.2495069544891
527.2420574150001
527.2346090388028
527.2271618264372
527.2197157784431
527.2122708953598
527.2048271777264
527.1973846260817
527.1899432409641
527.182503022912
527.1750639724628
527.1676260901536
527.160189376521
527.1527538321016
527.1453194574315
527.1378862530469
527.1304542194839
527.1230233572783
527.1155936669654
527.1081651490806
527.100737804159
527.0933116327355
527.0858866353447
527.0784628125202
527.0710401647962
527.0636186927059
527.0561983967827
527.0487792775602
527.0413613355713
527.0339445713485
527.026528985424
527.0191145783299
527.0117013505978
527.0042893027589
526.9968784353441
526.9894687488841
526.9820602439095
526.9746529209508
526.9672467805385
526.9598418232031
526.9524380494745
526.9450354598825
526.937634054957
526.9302338352268
526.9228348012207
526.9154369534676
526.908040292496
526.9006448188336
526.8932505330076
526.8858574355452
526.8784655269728
526.871074807817
526.863685278604
526.8562969398599
526.8489097921106
526.8415238358816
526.8341390716982
526.8267555000855
526.8193731215683
526.8119919366713
526.8046119459189
526.7972331498349
526.7898555489433
526.7824791437665
526.7751039348273
526.7677299226477
526.7603571077498
526.7529854906552
526.7456150718854
526.738245851961
526.7308778314025
526.7235110107301
526.7161453904639
526.7087809711234
526.7014177532278
526.6940557372964
526.6866949238474
526.679335313399
526.6719769064687
526.6646197035739
526.6572637052318
526.6499089119593
526.642555324273
526.6352029426889
526.6278517677229
526.62050179989
526.6131530397051
526.605805487683
526.5984591443384
526.5911140101857
526.5837700857387
526.576427371511
526.5690858680157
526.5617455757651
526.5544064952717
526.5470686270473
526.5397319716037
526.5323965294524
526.5250623011043
526.5177292870703
526.5103974878607
526.5030669039852
526.4957375359534
526.4884093842747
526.4810824494587
526.4737567320137
526.4664322324484
526.4591089512701
526.4517868889857
526.4444660461018
526.4371464231249
526.4298280205612
526.4225108389164
526.4151948786955
526.4078801404034
526.4005666245446
526.3932543316228
526.3859432621418
526.3786334166052
526.3713247955156
526.3640173993756
526.3567112286873
526.3494062839525
526.3421025656723
526.3348000743481
526.3274988104804
526.3201987745697
526.312899967116
526.3056023886193
526.2983060395798
526.2910109204975
526.2837170318721
526.2764243742035
526.2691329479908
526.2618427537327
526.2545537919282
526.2472660630756
526.2399795676729
526.2326943062178
526.2254102792076
526.2181274871393
526.2108459305095
526.2035656098142
526.1962865255493
526.1890086782107
526.1817320682933
526.1744566962916
526.1671825627
526.1599096680122
526.1526380127223
526.1453675973239
526.1380984223101
526.1308304881732
526.1235637954048
526.1162983444967
526.10903413594
526.1017711702252
526.0945094478429
526.0872489692838
526.079989735038
526.0727317455953
526.0654750014453
526.0582195030772
526.05096525098
526.0437122456424
526.0364604875531
526.0292099772003
526.0219607150716
526.0147127016539
526.0074659374341
526.0002204228986
525.9929761585336
525.9857331448245
525.9784913822564
525.9712508713139
525.9640116124817
525.9567736062445
525.949536853087
525.9423013534938
525.9350671079492
525.9278341169374
525.9206023809429
525.9133719004494
525.9061426759404
525.8989147078987
525.8916879968074
525.8844625431493
525.8772383474075
525.8700154100648
525.8627937316039
525.8555733125072
525.8483541532564
525.8411362543329
525.8339196162176
525.8267042393909
525.8194901243328
525.8122772715228
525.8050656814403
525.7978553545647
525.7906462913752
525.7834384923503
525.7762319579683
525.7690266887073
525.7618226850454
525.7546199474607
525.7474184764308
525.7402182724331
525.7330193359453
525.7258216674445
525.7186252674082
525.7114301363131
525.7042362746352
525.6970436828499
525.6898523614323
525.6826623108568
525.6754735315974
525.6682860241274
525.6610997889193
525.6539148264453
525.6467311371771
525.6395487215857
525.6323675801418
525.6251877133163
525.6180091215799
525.610831805403
525.603655765256
525.5964810016092
525.5893075149324
525.5821353056954
525.5749643743668
525.5677947214153
525.5606263473092
525.5534592525166
525.5462934375059
525.539128902745
525.5319656487018
525.5248036758439
525.5176429846388
525.510483575553
525.5033254490531
525.4961686056049
525.4890130456743
525.4818587697266
525.4747057782274
525.4675540716421
525.4604036504356
525.4532545150728
525.4461066660183
525.4389601037374
525.4318148286948
525.4246708413548
525.4175281421817
525.4103867316398
525.4032466101935
525.3961077783065
525.3889702364424
525.381833985065
525.3746990246373
525.367565355622
525.3604329784816
525.3533018936778
525.346172101672
525.3390436029256
525.3319163978995
525.3247904870541
525.3176658708494
525.3105425497454
525.303420524202
525.2962997946788
525.2891803616349
525.282062225529
525.27494538682
525.2678298459666
525.2607156034269
525.2536026596586
525.2464910151191
525.239380670266
525.2322716255562
525.2251638814469
525.2180574383949
525.2109522968572
525.20384845729
525.1967459201494
525.1896446858914
525.1825447549718
525.175446127846
525.1683488049694
525.1612527867969
525.154158073784
525.1470646663856
525.139972565057
525.1328817702529
525.1257922824284
525.1187041020385
525.1116172295378
525.1045316653813
525.0974474100235
525.0903644639193
525.0832828275231
525.0762025012891
525.0691234856711
525.0620457811222
525.0549693880953
525.047894307043
525.0408205384178
525.033748082672
525.0266769402572
525.0196071116252
525.0125385972274
525.0054713975153
524.99840551294
524.9913409439523
524.9842776910023
524.9772157545401
524.9701551350158
524.9630958328787
524.9560378485771
524.9489811825592
524.9419258352727
524.9348718071649
524.9278190986824
524.9207677102718
524.9137176423792
524.9066688954504
524.8996214699309
524.8925753662663
524.885530584902
524.8784871262828
524.8714449908539
524.8644041790599
524.8573646913451
524.8503265281533
524.8432896899285
524.8362541771135
524.8292199901505
524.8221871294818
524.8151555955499
524.808125388797
524.8010965096651
524.794068958596
524.7870427360313
524.7800178424127
524.7729942781816
524.7659720437791
524.7589511396459
524.7519315662221
524.7449133239475
524.7378964132613
524.7308808346027
524.7238665884101
524.7168536751219
524.7098420951759
524.7028318490097
524.6958229370607
524.6888153597656
524.681809117561
524.6748042108829
524.6678006401671
524.6607984058487
524.6537975083625
524.6467979481431
524.6397997256249
524.6328028412418
524.6258072954265
524.6188130886117
524.6118202212297
524.604828693713
524.5978385064936
524.5908496600034
524.5838621546741
524.5768759909372
524.5698911692239
524.562907689965
524.5559255535911
524.5489447605328
524.5419653112201
524.5349872060833
524.5280104455524
524.5210350300567
524.5140609600257
524.5070882358882
524.5001168580723
524.4931468270061
524.4861781431171
524.4792108068327
524.4722448185803
524.4652801787868
524.4583168878787
524.451354946282
524.4443943544225
524.4374351127262
524.4304772216192
524.423520681527
524.4165654928752
524.409611656089
524.4026591715933
524.3957080398127
524.3887582611719
524.3818098360957
524.3748627650084
524.3679170483338
524.3609726864956
524.3540296799176
524.3470880290231
524.3401477342354
524.3332087959777
524.3262712146729
524.3193349907438
524.3124001246129
524.3054666167027
524.2985344674353
524.2916036772324
524.2846742465154
524.277746175705
524.2708194652223
524.2638941154873
524.2569701269199
524.2500474999392
524.2431262349646
524.2362063324151
524.2292877927093
524.2223706162658
524.2154548035032
524.2085403548401
524.2016272706946
524.1947155514849
524.1878051976287
524.1808962095431
524.173988587645
524.1670823323507
524.1601774440767
524.1532739232393
524.1463717702545
524.1394709855381
524.1325715695057
524.1256735225725
524.1187768451532
524.1118815376626
524.1049876005152
524.098095034125
524.0912038389058
524.084314015271
524.0774255636338
524.0705384844073
524.0636527780043
524.0567684448376
524.0498854853197
524.0430038998625
524.0361236888778
524.0292448527769
524.0223673919706
524.0154913068695
524.0086165978835
524.0017432654217
523.9948713098934
523.9880007317072
523.9811315312716
523.9742637089948
523.967397265285
523.9605322005496
523.9536685151961
523.9468062096323
523.9399452842658
523.9330857395039
523.9262275757537
523.9193707934223
523.9125153929162
523.9056613746418
523.8988087390048
523.8919574864105
523.8851076172639
523.87825913197
523.8714120309342
523.8645663145612
523.8577219832559
523.850879037423
523.844037477467
523.8371973037922
523.8303585168028
523.8235211169028
523.8166851044962
523.8098504799868
523.8030172437786
523.7961853962756
523.7893549378814
523.7825258689991
523.7756981900316
523.7688719013818
523.7620470034522
523.7552234966447
523.7484013813612
523.7415806580034
523.7347613269731
523.727943388672
523.7211268435019
523.7143116918644
523.7074979341605
523.7006855707909
523.693874602156
523.6870650286555
523.6802568506887
523.6734500686548
523.6666446829531
523.6598406939829
523.653038102143
523.6462369078317
523.639437111447
523.6326387133863
523.625841714047
523.6190461138262
523.6122519131206
523.6054591123268
523.5986677118412
523.5918777120601
523.5850891133787
523.5783019161922
523.5715161208955
523.5647317278831
523.5579487375494
523.5511671502882
523.5443869664928
523.5376081865566
523.5308308108729
523.5240548398351
523.5172802738361
523.5105071132689
523.5037353585258
523.4969650099993
523.4901960680822
523.4834285331676
523.4766624056479
523.4698976859152
523.4631343743617
523.4563724713794
523.4496119773594
523.4428528926928
523.4360952177708
523.4293389529844
523.4225840987247
523.4158306553825
523.4090786233483
523.4023280030119
523.3955787947632
523.3888309989916
523.3820846160861
523.3753396464356
523.3685960904286
523.3618539484532
523.3551132208975
523.3483739081491
523.3416360105957
523.3348995286246
523.3281644626236
523.32143081298
523.3146985800813
523.3079677643145
523.3012383660666
523.2945103857244
523.2877838236743
523.281058680303
523.2743349559969
523.2676126511421
523.260891766125
523.2541723013314
523.2474542571472
523.2407376339581
523.2340224321497
523.2273086521068
523.2205962942141
523.2138853588563
523.2071758464174
523.2004677572818
523.1937610918335
523.1870558504561
523.1803520335329
523.1736496414469
523.1669486745809
523.1602491333174
523.1535510180383
523.1468543291253
523.1401590669593
523.1334652319215
523.1267728243924
523.1200818447528
523.1133922933832
523.106704170664
523.1000174769756
523.0933322126984
523.0866483782124
523.0799659738977
523.0732850001343
523.0666054573021
523.0599273457806
523.0532506659492
523.0465754181876
523.039901602875
523.0332292203911
523.0265582711149
523.019888755425
523.0132206736998
523.0065540263181
522.9998888136581
522.9932250360978
522.986562694015
522.9799017877872
522.9732423177916
522.9665842844056
522.9599276880065
522.9532725289714
522.9466188076772
522.9399665245005
522.9333156798175
522.9266662740042
522.9200183074367
522.9133717804912
522.9067266935435
522.9000830469695
522.8934408411442
522.8868000764428
522.8801607532405
522.8735228719122
522.8668864328322
522.8602514363745
522.8536178829131
522.8469857728214
522.8403551064723
522.8337258842382
522.8270981064913
522.8204717736035
522.8138468859461
522.8072234438903
522.8006014478069
522.7939808980664
522.7873617950386
522.7807441390933
522.7741279306001
522.7675131699284
522.7608998574469
522.754287993524
522.7476775785274
522.7410686128246
522.734461096783
522.7278550307692
522.7212504151498
522.7146472502914
522.7080455365601
522.7014452743217
522.6948464639413
522.6882491057836
522.6816532002131
522.6750587475935
522.6684657482883
522.6618742026603
522.6552841110722
522.6486954738862
522.6421082914642
522.6355225641678
522.6289382923583
522.6223554763965
522.615774116643
522.6091942134585
522.6026157672031
522.5960387782366
522.5894632469176
522.5828891736046
522.5763165586554
522.5697454024278
522.5631757052788
522.5566074675655
522.5500406896447
522.5434753718725
522.536911514605
522.5303491181976
522.5237881830053
522.5172287093828
522.5106706976849
522.5041141482657
522.497559061479
522.4910054376783
522.4844532772163
522.477902580446
522.47135334772
522.4648055793909
522.4582592758111
522.4517144373322
522.4451710643057
522.4386291570831
522.4320887160156
522.4255497414538
522.4190122337482
522.4124761932487
522.4059416203054
522.3994085152679
522.3928768784854
522.3863467103065
522.3798180110791
522.3732907811509
522.3667650208693
522.3602407305812
522.3537179106338
522.347196561374
522.3406766831479
522.3341582763014
522.3276413411802
522.3211258781291
522.3146118874927
522.3080993696149
522.3015883248395
522.2950787535096
522.2885706559678
522.2820640325563
522.2755588836171
522.2690552094919
522.2625530105213
522.2560522870458
522.249553039406
522.243055267942
522.2365589729939
522.2300641549009
522.223570814002
522.2170789506354
522.210588565139
522.2040996578507
522.1976122291085
522.19112627925
522.1846418086134
522.1781588175359
522.1716773063545
522.1651972754057
522.1587187250257
522.1522416555504
522.1457660673152
522.1392919606553
522.1328193359059
522.126348193402
522.1198785334784
522.1134103564696
522.1069436627097
522.100478452533
522.094014726274
522.0875524842668
522.0810917268448
522.0746324543409
522.0681746670875
522.0617183654163
522.0552635496579
522.048810220143
522.0423583772017
522.0359080211638
522.0294591523589
522.0230117711162
522.0165658777651
522.0101214726344
522.0036785560533
521.9972371283504
521.9907971898549
521.9843587408955
521.9779217818004
521.9714863128975
521.9650523345138
521.958619846976
521.9521888506106
521.9457593457432
521.9393313326996
521.9329048118043
521.9264797833823
521.9200562477586
521.9136342052575
521.9072136562033
521.9007946009203
521.894377039733
521.8879609729656
521.8815464009422
521.8751333239861
521.8687217424206
521.8623116565682
521.8559030667511
521.8494959732909
521.8430903765088
521.8366862767255
521.830283674261
521.823882569435
521.8174829625668
521.8110848539754
521.8046882439799
521.7982931328988
521.7918995210512
521.7855074087556
521.7791167963308
521.7727276840947
521.766340072365
521.7599539614589
521.7535693516929
521.7471862433836
521.7408046368469
521.7344245323986
521.7280459303547
521.7216688310307
521.7152932347417
521.7089191418027
521.7025465525282
521.6961754672327
521.6898058862298
521.6834378098329
521.677071238355
521.6707061721095
521.6643426114097
521.6579805565686
521.6516200078995
521.6452609657149
521.6389034303274
521.6325474020496
521.6261928811932
521.6198398680699
521.6134883629907
521.6071383662661
521.6007898782063
521.5944428991211
521.5880974293198
521.5817534691118
521.5754110188063
521.5690700787118
521.5627306491365
521.5563927303883
521.5500563227752
521.5437214266044
521.537388042183
521.5310561698179
521.5247258098157
521.5183969624823
521.5120696281233
521.5057438070442
521.4994194995502
521.4930967059465
521.4867754265383
521.4804556616305
521.4741374115276
521.4678206765343
521.4615054569549
521.4551917530939
521.4488795652555
521.4425688937436
521.4362597388613
521.4299521009118
521.4236459801978
521.4173413770213
521.4110382916842
521.4047367244875
521.3984366757322
521.3921381457196
521.3858411347505
521.3795456431258
521.3732516711457
521.36695921911
521.3606682873185
521.3543788760708
521.3480909856662
521.3418046164034
521.3355197685805
521.329236442496
521.3229546384484
521.3166743567363
521.3103955976576
521.3041183615105
521.2978426485927
521.2915684592017
521.285295793635
521.2790246521895
521.2727550351622
521.2664869428495
521.2602203755482
521.2539553335548
521.2476918171656
521.2414298266763
521.2351693623827
521.2289104245804
521.222653013564
521.2163971296284
521.2101427730677
521.2038899441759
521.1976386432466
521.1913888705728
521.1851406264477
521.1788939111643
521.1726487250153
521.1664050682928
521.160162941289
521.153922344296
521.1476832776059
521.1414457415106
521.1352097363012
521.1289752622693
521.1227423197056
521.1165109089009
521.110281030145
521.1040526837273
521.0978258699374
521.0916005890645
521.0853768413972
521.0791546272239
521.0729339468326
521.0667148005105
521.0604971885446
521.0542811112214
521.0480665688269
521.0418535616463
521.0356420899643
521.0294321540655
521.0232237542341
521.0170168907543
521.01081156391
521.0046077739842
520.9984055212597
520.9922048060191
520.9860056285447
520.9798079891186
520.9736118880228
520.9674173255389
520.9612243019478
520.9550328175299
520.9488428725649
520.9426544673327
520.9364676021123
520.9302822771829
520.9240984928226
520.9179162493092
520.9117355469202
520.9055563859331
520.8993787666252
520.8932026892737
520.8870281541556
520.8808551615475
520.874683711726
520.8685138049673
520.8623454415474
520.8561786217422
520.8500133458265
520.8438496140748
520.837687426761
520.831526784159
520.8253676865424
520.8192101341851
520.8130541273606
520.8068996663424
520.8007467514035
520.7945953828166
520.7884455608541
520.782297285788
520.7761505578897
520.7700053774302
520.7638617446801
520.75771965991
520.7515791233902
520.7454401353909
520.7393026961822
520.7331668060342
520.7270324652168
520.7208996739996
520.7147684326521
520.7086387414436
520.7025106006429
520.6963840105191
520.6902589713409
520.6841354833764
520.6780135468937
520.6718931621606
520.665774329445
520.6596570490142
520.6535413211354
520.6474271460756
520.6413145241017
520.6352034554807
520.6290939404789
520.6229859793627
520.6168795723979
520.6107747198503
520.6046714219856
520.5985696790694
520.592469491367
520.5863708591426
520.5802737826602
520.574178262184
520.5680842979777
520.5619918903049
520.5559010394281
520.5498117456102
520.543724009113
520.537637830198
520.5315532091263
520.5254701461586
520.519388641555
520.5133086955757
520.5072303084803
520.5011534805285
520.4950782119795
520.489004503092
520.4829323541248
520.4768617653365
520.470792736985
520.4647252693285
520.4586593626248
520.4525950171314
520.4465322331064
520.4404710108074
520.4344113504922
520.4283532524182
520.422296716843
520.4162417440236
520.4101883342169
520.4041364876789
520.3980862046656
520.3920374854329
520.3859903302368
520.3799447393333
520.3739007129777
520.3678582514249
520.3618173549294
520.3557780237452
520.3497402581263
520.3437040583267
520.3376694246003
520.3316363572012
520.325604856383
520.3195749223992
520.3135465555029
520.3075197559469
520.3014945239843
520.2954708598677
520.28944876385
520.2834282361837
520.2774092771208
520.2713918869135
520.265376065814
520.259361814074
520.2533491319452
520.2473380196789
520.2413284775262
520.235320505738
520.2293141045648
520.2233092742567
520.2173060150635
520.2113043272348
520.2053042110197
520.1993056666672
520.1933086944264
520.1873132945461
520.1813194672754
520.1753272128631
520.1693365315573
520.1633474236064
520.1573598892585
520.1513739287614
520.1453895423624
520.1394067303092
520.1334254928493
520.1274458302296
520.1214677426974
520.1154912304996
520.1095162938834
520.1035429330957
520.0975711483829
520.0916009399916
520.085632308168
520.0796652531576
520.0736997752056
520.067735874557
520.061773551457
520.0558128061507
520.0498536388827
520.0438960498973
520.0379400394386
520.0319856077508
520.0260327550782
520.0200814816644
520.0141317877528
520.0081836735862
520.002237139407
519.9962921854572
519.9903488119783
519.9844070192121
519.9784668074003
519.9725281767846
519.966591127607
519.9606556601093
519.954721774533
519.9487894711194
519.9428587501095
519.9369296117443
519.9310020562648
519.9250760839116
519.9191516949245
519.9132288895435
519.9073076680081
519.9013880305583
519.8954699774338
519.8895535088739
519.8836386251176
519.8777253264034
519.8718136129696
519.8659034850546
519.8599949428963
519.8540879867323
519.8481826168004
519.8422788333378
519.8363766365819
519.8304760267697
519.8245770041381
519.8186795689239
519.8127837213638
519.8068894616936
519.8009967901494
519.7951057069668
519.7892162123808
519.7833283066268
519.7774419899397
519.7715572625539
519.7656741247038
519.7597925766236
519.7539126185475
519.7480342507097
519.7421574733444
519.7362822866855
519.7304086909667
519.7245366864211
519.7186662732815
519.7127974517807
519.7069302221507
519.7010645846235
519.695200539431
519.6893380868044
519.6834772269747
519.6776179601727
519.6717602866288
519.665904206573
519.6600497202353
519.6541968278452
519.648345529632
519.6424958258242
519.63664771665
519.6308012023378
519.6249562831158
519.6191129592121
519.613271230854
519.607431098269
519.6015925616841
519.5957556213261
519.5899202774219
519.5840865301984
519.5782543798823
519.5724238267003
519.5665948708788
519.5607675126439
519.5549417522211
519.549117589836
519.5432950257139
519.5374740600798
519.5316546931585
519.5258369251744
519.5200207563514
519.5142061869135
519.5083932170849
519.5025818470895
519.496772077151
519.4909639074926
519.4851573383376
519.4793523699086
519.4735490024286
519.46774723612
519.4619470712046
519.4561485079043
519.4503515464412
519.4445561870373
519.4387624299143
519.4329702752934
519.4271797233957
519.421390774442
519.415603428653
519.409817686249
519.4040335474501
519.3982510124761
519.3924700815464
519.3866907548804
519.380913032697
519.3751369152146
519.3693624026514
519.3635894952254
519.3578181931548
519.3520484966575
519.3462804059509
519.3405139212521
519.3347490427782
519.3289857707464
519.323224105374
519.3174640468787
519.3117055954776
519.3059487513876
519.3001935148259
519.2944398860091
519.2886878651539
519.2829374524767
519.2771886481937
519.2714414525203
519.2656958656721
519.2599518878646
519.2542095193132
519.248468760233
519.2427296108385
519.2369920713445
519.2312561419651
519.2255218229143
519.219789114406
519.2140580166542
519.2083285298727
519.2026006542751
519.1968743900752
519.1911497374867
519.1854266967234
519.179705267999
519.1739854515272
519.1682672475217
519.1625506561961
519.1568356777641
519.1511223124394
519.145410560435
519.1397004219641
519.1339918972394
519.1282849864735
519.1225796898791
519.1168760076685
519.111173940054
519.1054734872478
519.0997746494618
519.0940774269079
519.0883818197981
519.0826878283438
519.0769954527561
519.071304693246
519.0656155500242
519.0599280233014
519.0542421132882
519.0485578201951
519.0428751442323
519.0371940856098
519.0315146445373
519.0258368212242
519.0201606158798
519.0144860287137
519.0088130599352
519.0031417097534
518.9974719783781
518.9918038660185
518.9861373728841
518.9804724991845
518.9748092451291
518.9691476109267
518.9634875967859
518.9578292029146
518.9521724295205
518.9465172768109
518.9408637449933
518.9352118342749
518.9295615448627
518.9239128769632
518.9182658307827
518.9126204065278
518.9069766044049
518.9013344246205
518.8956938673805
518.8900549328907
518.8844176213574
518.8787819329868
518.8731478679847
518.867515426557
518.8618846089093
518.8562554152475
518.8506278457771
518.8450019007041
518.8393775802342
518.833754884573
518.8281338139254
518.8225143684972
518.816896548494
518.8112803541217
518.8056657855859
518.8000528430925
518.7944415268471
518.7888318370551
518.7832237739221
518.7776173376537
518.772012528455
518.766409346531
518.7608077920863
518.7552078653252
518.7496095664521
518.744012895671
518.7384178531852
518.7328244391986
518.7272326539146
518.7216424975368
518.7160539702681
518.7104670723118
518.7048818038709
518.6992981651492
518.6937161563501
518.6881357776767
518.6825570293327
518.6769799115209
518.6714044244441
518.6658305683045
518.6602583433046
518.6546877496464
518.6491187875322
518.6435514571635
518.6379857587417
518.6324216924681
518.6268592585445
518.6212984571723
518.6157392885532
518.6101817528888
518.6046258503811
518.5990715812316
518.5935189456409
518.5879679438094
518.5824185759375
518.5768708422252
518.5713247428721
518.5657802780779
518.5602374480422
518.5546962529647
518.549156693045
518.5436187684829
518.5380824794788
518.5325478262325
518.5270148089435
518.5214834278113
518.5159536830356
518.5104255748158
518.5048991033511
518.4993742688407
518.4938510714835
518.4883295114782
518.4828095890234
518.477291304318
518.4717746575609
518.4662596489507
518.4607462786857
518.4552345469649
518.4497244539866
518.4442159999494
518.4387091850515
518.433204009491
518.4277004734654
518.4221985771724
518.4166983208092
518.4111997045732
518.4057027286613
518.4002073932706
518.394713698598
518.3892216448398
518.3837312321925
518.3782424608528
518.3727553310173
518.3672698428823
518.3617859966439
518.3563037924987
518.3508232306428
518.3453443112726
518.3398670345846
518.3343914007755
518.3289174100419
518.3234450625805
518.3179743585881
518.3125052982609
518.3070378817947
518.3015721093848
518.2961079812267
518.2906454975162
518.285184658449
518.279725464221
518.2742679150274
518.2688120110633
518.2633577525237
518.2579051396028
518.2524541724952
518.2470048513946
518.241557176495
518.23611114799
518.2306667660732
518.2252240309385
518.2197829427794
518.2143435017892
518.2089057081614
518.2034695620891
518.1980350637655
518.1926022133832
518.187171011135
518.1817414572133
518.1763135518108
518.1708872951199
518.165462687333
518.1600397286431
518.1546184192434
518.1491987593272
518.1437807490875
518.138364388717
518.132949678409
518.1275366183563
518.1221252087523
518.1167154497898
518.1113073416618
518.1059008845612
518.1004960786806
518.0950929242126
518.0896914213492
518.0842915702829
518.078893371206
518.0734968243112
518.0681019297908
518.0627086878371
518.0573170986418
518.0519271623964
518.0465388792927
518.0411522495224
518.0357672732771
518.0303839507483
518.0250022821274
518.0196222676061
518.0142439073759
518.0088672016284
518.0034921505553
517.9981187543483
517.9927470131988
517.9873769272983
517.9820084968378
517.976641722008
517.9712766029998
517.9659131400035
517.9605513332099
517.9551911828089
517.9498326889907
517.9444758519453
517.9391206718628
517.9337671489334
517.928415283347
517.9230650752943
517.9177165249657
517.9123696325519
517.9070243982433
517.9016808222304
517.8963389047035
517.8909986458525
517.8856600458673
517.8803231049376
517.8749878232529
517.869654201003
517.8643222383773
517.8589919355657
517.853663292758
517.8483363101448
517.8430109879164
517.8376873262637
517.8323653253769
517.8270449854467
517.8217263066633
517.8164092892171
517.8110939332983
517.8057802390967
517.8004682068022
517.7951578366044
517.7898491286933
517.7845420832591
517.7792367004922
517.7739329805831
517.7686309237224
517.763330530101
517.75803179991
517.7527347333398
517.7474393305811
517.7421455918238
517.7368535172582
517.7315631070746
517.7262743614638
517.7209872806156
517.7157018647201
517.7104181139669
517.7051360285452
517.6998556086442
517.6945768544524
517.6892997661589
517.6840243439528
517.6787505880231
517.6734784985586
517.6682080757482
517.6629393197809
517.657672230845
517.6524068091289
517.6471430548206
517.6418809681084
517.63662054918
517.6313617982232
517.6261047154258
517.6208493009754
517.6155955550598
517.610343477867
517.6050930695842
517.5998443303986
517.5945972604973
517.5893518600678
517.5841081292976
517.5788660683738
517.5736256774837
517.5683869568147
517.5631499065546
517.5579145268912
517.5526808180125
517.5474487801066
517.5422184133615
517.5369897179653
517.531762694106
517.526537341972
517.5213136617522
517.5160916536349
517.5108713178092
517.5056526544643
517.5004356637896
517.4952203459748
517.4900067012095
517.4847947296835
517.4795844315868
517.474375807109
517.4691688564399
517.4639635797689
517.458759977286
517.4535580491811
517.4483577956439
517.4431592168644
517.4379623130326
517.4327670843386
517.4275735309723
517.4223816531237
517.417191450983
517.4120029247399
517.4068160745846
517.4016309007075
517.3964474032989
517.3912655825497
517.3860854386509
517.3809069717933
517.3757301821676
517.3705550699643
517.3653816353736
517.3602098785849
517.355039799787
517.3498713991684
517.3447046769169
517.3395396332199
517.3343762682645
517.3292145822367
517.3240545753225
517.3188962477076
517.3137395995769
517.3085846311152
517.303431342507
517.2982797339365
517.2931298055875
517.2879815576431
517.2828349902862
517.277690103699
517.2725468980635
517.2674053735615
517.2622655303745
517.2571273686841
517.2519908886708
517.2468560905144
517.2417229743945
517.2365915404904
517.2314617889807
517.226333720044
517.2212073338584
517.216082630602
517.2109596104525
517.2058382735869
517.2007186201819
517.1956006504134
517.1904843644576
517.1853697624903
517.1802568446875
517.1751456112246
517.1700360622764
517.164928198018
517.1598220186241
517.1547175242691
517.1496147151266
517.1445135913697
517.1394141531711
517.1343164007029
517.1292203341369
517.1241259536438
517.1190332593939
517.113942251557
517.1088529303028
517.1037652958004
517.0986793482185
517.0935950877257
517.0885125144897
517.0834316286783
517.0783524304592
517.0732749199993
517.0681990974655
517.0631249630243
517.0580525168422
517.0529817590851
517.0479126899187
517.0428453095079
517.0377796180175
517.0327156156114
517.0276533024536
517.0225926787074
517.0175337445359
517.0124765001016
517.0074209455667
517.002367081093
516.997314906842
516.9922644229742
516.9872156296502
516.9821685270302
516.9771231152739
516.9720793945404
516.9670373649886
516.9619970267769
516.9569583800632
516.9519214250053
516.9468861617607
516.941852590487
516.9368207113408
516.9317905244785
516.9267620300558
516.9217352282282
516.9167101191507
516.911686702978
516.9066649798643
516.9016449499633
516.8966266134277
516.8916099704101
516.8865950210626
516.8815817655374
516.876570203986
516.8715603365596
516.866552163409
516.8615456846845
516.8565409005361
516.851537811113
516.8465364165646
516.8415367170397
516.8365387126865
516.8315424036529
516.8265477900862
516.8215548721338
516.8165636499424
516.8115741236589
516.8065862934301
516.8016001594023
516.7966157217217
516.791632980534
516.7866519359849
516.7816725882193
516.7766949373823
516.7717189836181
516.7667447270702
516.7617721678818
516.7568013061956
516.7518321421543
516.7468646759004
516.7418989075758
516.7369348373221
516.7319724652808
516.7270117915929
516.722052816399
516.71709553984
516.7121399620561
516.7071860831871
516.7022339033728
516.6972834227523
516.6923346414648
516.687387559649
516.6824421774437
516.6774984949876
516.672556512419
516.6676162298755
516.6626776474949
516.6577407654141
516.6528055837695
516.6478721026966
516.6429403223311
516.638010242808
516.633081864262
516.6281551868268
516.6232302106365
516.6183069358241
516.6133853625221
516.6084654908628
516.6035473209782
516.5986308530001
516.5937160870604
516.5888030232903
516.5838916618208
516.5789820027827
516.5740740463071
516.5691677925244
516.5642632415639
516.559360393555
516.5544592486268
516.549559806908
516.5446620685269
516.5397660336122
516.5348717022922
516.529979074695
516.5250881509484
516.5201989311796
516.5153114155152
516.510425604081
516.5055414970026
516.500659094405
516.4957783964129
516.4908994031506
516.4860221147422
516.4811465313118
516.4762726529831
516.4714004798799
516.4665300121261
516.461661249845
516.456794193159
516.4519288421903
516.4470651970611
516.4422032578929
516.4373430248071
516.432484497925
516.4276276773668
516.4227725632524
516.417919155701
516.413067454832
516.4082174607639
516.4033691736155
516.3985225935049
516.39367772055
516.3888345548681
516.3839930965763
516.3791533457917
516.3743153026309
516.3694789672101
516.3646443396448
516.3598114200505
516.3549802085423
516.3501507052346
516.3453229102414
516.3404968236765
516.3356724456531
516.330849776284
516.3260288156818
516.3212095639584
516.3163920212261
516.3115761875966
516.3067620631815
516.3019496480912
516.2971389424362
516.2923299463265
516.2875226598718
516.282717083181
516.2779132163629
516.2731110595265
516.2683106127803
516.2635118762324
516.2587148499907
516.2539195341625
516.2491259288546
516.2443340341734
516.2395438502252
516.2347553771157
516.22996861495
516.2251835638332
516.2204002238692
516.215618595162
516.2108386778151
516.2060604719314
516.2012839776138
516.1965091949647
516.1917361240863
516.1869647650805
516.1821951180483
516.1774271830908
516.1726609603085
516.1678964498013
516.1631336516695
516.1583725660126
516.15361319293
516.1488555325201
516.1440995848808
516.1393453501099
516.1345928283052
516.1298420195641
516.1250929239833
516.1203455416595
516.1155998726889
516.1108559171672
516.1061136751897
516.1013731468514
516.0966343322472
516.0918972314713
516.0871618446178
516.0824281717802
516.0776962130523
516.0729659685272
516.0682374382983
516.0635106224585
516.0587855211005
516.0540621343163
516.0493404621972
516.0446205048339
516.0399022623172
516.0351857347379
516.0304709221865
516.0257578247537
516.0210464425296
516.0163367756039
516.0116288240657
516.0069225880039
516.0022180675074
515.9975152626645
515.9928141735628
515.9881148002902
515.9834171429344
515.9787212015832
515.9740269763239
515.9693344672431
515.9646436744271
515.9599545979614
515.9552672379315
515.9505815944223
515.9458976675184
515.9412154573034
515.9365349638607
515.931856187273
515.9271791276225
515.9225037849916
515.9178301594621
515.913158251116
515.9084880600345
515.9038195862987
515.899152829989
515.894487791186
515.8898244699695
515.8851628664198
515.8805029806166
515.8758448126392
515.8711883625666
515.8665336304776
515.8618806164505
515.8572293205631
515.8525797428925
515.8479318835158
515.8432857425092
515.8386413199486
515.8339986159091
515.829357630466
515.8247183636939
515.8200808156672
515.8154449864602
515.8108108761468
515.8061784848011
515.8015478124963
515.7969188593053
515.7922916253007
515.7876661105548
515.7830423151396
515.7784202391264
515.7737998825859
515.7691812455888
515.7645643282054
515.7599491305056
515.7553356525588
515.7507238944339
515.7461138561995
515.7415055379234
515.7368989396733
515.732294061516
515.7276909035182
515.7230894657465
515.7184897482667
515.7138917511448
515.7092954744468
515.7047009182385
515.7001080825854
515.6955169675529
515.6909275732056
515.6863398996085
515.6817539468265
515.6771697149244
515.6725872039666
515.668006414017
515.6634273451392
515.6588499973963
515.6542743708507
515.6497004655652
515.6451282816021
515.6405578190239
515.6359890778928
515.6314220582705
515.6268567602182
515.6222931837966
515.6177313290663
515.6131711960876
515.6086127849209
515.6040560956259
515.5995011282622
515.5949478828894
515.5903963595666
515.5858465583525
515.5812984793052
515.5767521224828
515.5722074879428
515.5676645757422
515.5631233859382
515.5585839185873
515.5540461737456
515.549510151469
515.5449758518124
515.5404432748306
515.5359124205778
515.531383289108
515.5268558804747
515.5223301947304
515.5178062319275
515.5132839921176
515.5087634753523
515.5042446816825
515.4997276111586
515.4952122638311
515.4906986397499
515.4861867389642
515.4816765615234
515.4771681074764
515.4726613768718
515.4681563697583
515.4636530861843
515.4591515261983
515.4546516898482
515.450153577182
515.4456571882475
515.441162523092
515.4366695817627
515.4321783643064
515.4276888707697
515.4232011011983
515.4187150556373
515.4142307341314
515.4097481367249
515.4052672634622
515.4007881143867
515.3963106895418
515.3918349889701
515.387361012714
515.3828887608153
515.3784182333153
515.373949430255
515.3694823516754
515.3650169976169
515.3605533681199
515.3560914632245
515.3516312829703
515.3471728273963
515.3427160965417
515.3382610904456
515.3338078091471
515.3293562526848
515.3249064210967
515.3204583144203
515.3160119326925
515.3115672759499
515.3071243442283
515.3026831375638
515.2982436559918
515.2938058995479
515.2893698682675
515.2849355621858
515.2805029813375
515.276072125757
515.2716429954784
515.2672155905353
515.2627899109613
515.2583659567889
515.2539437280512
515.2495232247805
515.2451044470087
515.2406873947672
515.2362720680873
515.2318584669998
515.2274465915353
515.2230364417243
515.2186280175966
515.2142213191825
515.2098163465113
515.2054130996122
515.2010115785139
515.196611783245
515.1922137138339
515.1878173703088
515.1834227526975
515.1790298610271
515.1746386953238
515.1702492556138
515.1658615419232
515.1614755542772
515.1570912927015
515.1527087572214
515.1483279478622
515.1439488646485
515.1395715076043
515.1351958767538
515.130821972121
515.1264497937296
515.1220793416036
515.1177106157667
515.1133436162428
515.1089783430554
515.1046147962276
515.1002529757822
515.0958928817419
515.091534514129
515.0871778729653
515.0828229582725
515.0784697700718
515.0741183083843
515.0697685732301
515.0654205646293
515.0610742826015
515.056729727166
515.0523868983424
515.04804579615
515.0437064206079
515.0393687717352
515.03503284955
515.0306986540701
515.0263661853127
515.0220354432951
515.0177064280343
515.013379139547
515.0090535778496
515.0047297429579
515.000407634887
514.9960872536518
514.991768599267
514.987451671747
514.9831364711064
514.9788229973595
514.9745112505205
514.9702012306035
514.965892937622
514.96158637159
514.9572815325213
514.9529784204295
514.9486770353284
514.944377377231
514.9400794461507
514.9357832421002
514.9314887650922
514.9271960151394
514.9229049922543
514.9186156964489
514.9143281277351
514.9100422861246
514.9057581716294
514.9014757842605
514.8971951240293
514.8929161909467
514.8886389850235
514.8843635062702
514.8800897546972
514.8758177303147
514.8715474331326
514.8672788631608
514.8630120204085
514.8587469048849
514.8544835165984
514.8502218555572
514.8459619217689
514.8417037152409
514.8374472359802
514.8331924839941
514.8289394592895
514.824688161873
514.8204385917514
514.8161907489308
514.8119446334168
514.8077002452147
514.8034575843295
514.7992166507657
514.7949774445277
514.7907399656191
514.7865042140435
514.7822701898045
514.7780378929054
514.7738073233489
514.7695784811373
514.7653513662725
514.7611259787565
514.7569023185907
514.7526803857769
514.7484601803161
514.7442417022093
514.740024951457
514.7358099280601
514.731596632019
514.727385063334
514.7231752220056
514.718967108034
514.7147607214198
514.7105560621636
514.7063531302659
514.7021519257272
514.6979524485479
514.6937546987284
514.6895586762688
514.685364381169
514.6811718134292
514.6769809730487
514.6727918600269
514.6686044743627
514.6644188160545
514.6602348851005
514.6560526814984
514.6518722052457
514.6476934563399
514.6435164347782
514.6393411405576
514.6351675736743
514.6309957341244
514.6268256219042
514.6226572370098
514.6184905794368
514.6143256491806
514.6101624462364
514.6060009705985
514.6018412222612
514.597683201218
514.5935269074627
514.5893723409882
514.585219501788
514.5810683898545
514.5769190051807
514.5727713477587
514.5686254175804
514.5644812146378
514.5603387389225
514.5561979904261
514.5520589691397
514.5479216750542
514.5437861081606
514.5396522684497
514.535520155912
514.5313897705374
514.5272611123156
514.5231341812352
514.5190089772842
514.5148855004505
514.5107637507214
514.5066437280838
514.5025254325245
514.4984088640302
514.4942940225873
514.4901809081817
514.4860695207996
514.4819598604264
514.4778519270477
514.4737457206487
514.4696412412139
514.4655384887277
514.4614374631743
514.4573381645379
514.4532405928018
514.4491447479492
514.4450506299632
514.4409582388267
514.4368675745219
514.432778637031
514.4286914263358
514.4246059424185
514.4205221852607
514.4164401548443
514.4123598511507
514.4082812741609
514.404204423856
514.4001293002167
514.3960559032238
514.3919842328575
514.3879142890979
514.3838460719252
514.3797795813188
514.3757148172577
514.3716517797203
514.3675904686844
514.3635308841277
514.3594730260276
514.3554168943607
514.351362489104
514.3473098102337
514.3432588577258
514.339209631556
514.3351621316998
514.3311163581326
514.3270723108293
514.3230299897649
514.3189893949144
514.3149505262523
514.3109133837526
514.3068779673887
514.3028442771343
514.2988123129632
514.2947820748483
514.2907535627625
514.2867267766782
514.2827017165677
514.2786783824027
514.2746567741548
514.2706368917949
514.266618735294
514.2626023046224
514.2585875997503
514.2545746206475
514.2505633672841
514.2465538396297
514.2425460376536
514.2385399613255
514.2345356106149
514.2305329854909
514.2265320859225
514.2225329118784
514.2185354633267
514.2145397402356
514.2105457425727
514.2065534703053
514.2025629234007
514.1985741018262
514.1945870055484
514.1906016345332
514.1866179887458
514.1826360681508
514.178655872713
514.1746774023965
514.1707006571652
514.1667256369825
514.1627523418118
514.1587807716163
514.1548109263591
514.1508428060034
514.1468764105117
514.1429117398467
514.1389487939706
514.1349875728455
514.1310280764334
514.1270703046963
514.1231142575958
514.1191599350931
514.1152073371492
514.1112564637252
514.1073073147819
514.1033598902796
514.0994141901787
514.0954702144392
514.0915279630209
514.0875874358832
514.0836486329848
514.0797115542842
514.0757761997396
514.0718425693091
514.0679106629506
514.063980480622
514.0600520222812
514.056125287886
514.052200277394
514.0482769907627
514.0443554279487
514.0404355889087
514.036517473599
514.0326010819755
514.028686413994
514.0247734696105
514.0208622487804
514.0169527514587
514.0130449775999
514.009138927158
514.005234600087
514.0013319963406
513.9974311158722
513.9935319586347
513.9896345245803
513.9857388136614
513.9818448258299
513.9779525610369
513.9740620192337
513.9701732003715
513.966286104402
513.9624007312765
513.9585170809461
513.9546351533617
513.9507549484744
513.946876466235
513.9429997065942
513.9391246695019
513.9352513549085
513.9313797627636
513.9275098930171
513.9236417456185
513.9197753205173
513.9159106176627
513.9120476370036
513.9081863784892
513.9043268420684
513.9004690276903
513.8966129353038
513.8927585648577
513.8889059163006
513.8850549895809
513.8812057846466
513.8773583014455
513.8735125399256
513.8696685000347
513.8658261817199
513.8619855849284
513.8581467096077
513.8543095557044
513.8504741231646
513.8466404119341
513.8428084219587
513.8389781531845
513.8351496055569
513.8313227790217
513.8274976735241
513.8236742890093
513.8198526254217
513.8160326827057
513.812214460805
513.8083979596632
513.8045831792241
513.8007701194311
513.7969587802278
513.7931491615576
513.789341263364
513.7855350855901
513.7817306281792
513.777927891074
513.7741268742176
513.7703275775526
513.7665300010218
513.7627341445674
513.7589400081316
513.7551475916563
513.7513568950832
513.7475679183536
513.7437806614086
513.7399951241883
513.7362113066337
513.7324292086847
513.7286488302813
513.724870171363
513.7210932318698
513.7173180117412
513.7135445109167
513.7097727293357
513.7060026669375
513.7022343236612
513.6984676994454
513.6947027942284
513.6909396079485
513.6871781405438
513.6834183919519
513.6796603621102
513.6759040509556
513.672149458425
513.6683965844546
513.6646454289806
513.6608959919391
513.657148273266
513.6534022728969
513.6496579907672
513.6459154268122
513.6421745809672
513.6384354531677
513.6346980433487
513.630962351445
513.6272283773907
513.62349612112
513.6197655825664
513.6160367616636
513.612309658345
513.6085842725437
513.6048606041928
513.6011386532256
513.5974184195749
513.5936999031736
513.589983103955
513.5862680218521
513.5825546567982
513.5788430087265
513.5751330775703
513.5714248632622
513.5677183657343
513.5640135849184
513.5603105207462
513.556609173149
513.552909542058
513.5492116274041
513.5455154291179
513.5418209471298
513.5381281813701
513.5344371317686
513.5307477982557
513.5270601807612
513.5233742792149
513.5196900935463
513.5160076236845
513.5123268695587
513.5086478310978
513.5049705082307
513.5012949008864
513.4976210089941
513.4939488324827
513.4902783712809
513.4866096253169
513.4829425945189
513.4792772788152
513.4756136781333
513.4719517924008
513.4682916215448
513.4646331654927
513.4609764241719
513.4573213975096
513.4536680854332
513.4500164878699
513.4463666047469
513.4427184359912
513.4390719815298
513.4354272412892
513.431784215196
513.4281429031765
513.4245033051571
513.4208654210639
513.417229250823
513.4135947943606
513.4099620516032
513.406331022477
513.4027017069085
513.3990741048234
513.3954482161477
513.3918240408069
513.3882015787268
513.3845808298328
513.3809617940504
513.3773444713057
513.373728861524
513.3701149646305
513.3665027805501
513.3628923092077
513.359283550528
513.3556765044351
513.3520711708537
513.3484675497083
513.3448656409233
513.3412654444231
513.3376669601317
513.3340701879735
513.3304751278723
513.326881779752
513.3232901435355
513.3197002191461
513.3161120065066
513.3125255055398
513.3089407161684
513.3053576383146
513.3017762719008
513.2981966168496
513.2946186730834
513.2910424405246
513.2874679190958
513.2838951087193
513.2803240093173
513.2767546208116
513.2731869431242
513.269620976177
513.2660567198922
513.262494174192
513.2589333389991
513.2553742142355
513.2518167998234
513.2482610956846
513.2447071017415
513.2411548179163
513.2376042441309
513.2340553803073
513.2305082263673
513.2269627822335
513.2234190478281
513.2198770230733
513.2163367078912
513.2127981022037
513.2092612059329
513.205726019001
513.2021925413302
513.1986607728426
513.1951307134597
513.191602363103
513.1880757216942
513.1845507891545
513.1810275654051
513.177506050367
513.1739862439612
513.1704681461082
513.1669517567283
513.1634370757416
513.1599241030684
513.1564128386289
513.1529032823429
513.1493954341305
513.1458892939114
513.1423848616056
513.138882137133
513.1353811204136
513.1318818113674
513.1283842099143
513.1248883159739
513.1213941294656
513.1179016503089
513.1144108784234
513.1109218137282
513.107434456142
513.1039488055834
513.1004648619711
513.0969826252236
513.0935020952594
513.0900232719965
513.0865461553536
513.0830707452493
513.0795970416026
513.0761250443321
513.0726547533565
513.0691861685935
513.0657192899608
513.0622541173753
513.0587906507541
513.0553288900136
513.0518688350704
513.0484104858409
513.0449538422414
513.041498904188
513.0380456715963
513.0345941443817
513.0311443224595
513.0276962057447
513.0242497941528
513.0208050875984
513.0173620859965
513.0139207892622
513.0104811973112
513.0070433100592
513.0036071274216
513.0001726493134
512.9967398756502
512.9933088063473
512.9898794413199
512.9864517804828
512.9830258237504
512.9796015710373
512.976179022258
512.9727581773269
512.9693390361587
512.9659215986677
512.9625058647686
512.9590918343753
512.9556795074019
512.9522688837625
512.9488599633706
512.9454527461393
512.9420472319813
512.9386434208096
512.9352413125374
512.931840907078
512.9284422043444
512.9250452042494
512.9216499067057
512.9182563116261
512.9148644189232
512.9114742285093
512.9080857402968
512.9046989541977
512.9013138701247
512.8979304879905
512.894548807708
512.8911688291902
512.8877905523497
512.8844139770991
512.8810391033516
512.87766593102
512.8742944600177
512.8709246902573
512.8675566216515
512.8641902541129
512.8608255875541
512.8574626218875
512.8541013570249
512.8507417928776
512.8473839293564
512.844027766372
512.8406733038349
512.837320541655
512.8339694797422
512.8306201180063
512.827272456357
512.8239264947041
512.8205822329572
512.817239671026
512.8138988088193
512.8105596462464
512.8072221832157
512.8038864196359
512.8005523554151
512.7972199904613
512.7938893246816
512.7905603579833
512.7872330902732
512.7839075214573
512.7805836514416
512.7772614801314
512.7739410074322
512.7706222332491
512.7673051574874
512.7639897800517
512.7606761008464
512.7573641197752
512.7540538367415
512.7507452516483
512.7474383643984
512.7441331748943
512.740829683038
512.7375278887315
512.7342277918768
512.730929392376
512.7276326901309
512.7243376850435
512.7210443770149
512.7177527659463
512.7144628517384
512.711174634292
512.7078881135079
512.7046032892869
512.7013201615297
512.698038730137
512.6947589950095
512.6914809560475
512.6882046131512
512.6849299662205
512.6816570151547
512.6783857598529
512.6751162002137
512.6718483361354
512.6685821675165
512.6653176942554
512.6620549162502
512.6587938333988
512.6555344455988
512.652276752748
512.6490207547439
512.6457664514843
512.6425138428666
512.6392629287876
512.6360137091436
512.632766183831
512.6295203527455
512.6262762157827
512.6230337728379
512.6197930238062
512.6165539685825
512.6133166070614
512.6100809391372
512.6068469647042
512.6036146836567
512.6003840958891
512.5971552012955
512.5939279997696
512.5907024912043
512.5874786754924
512.5842565525262
512.5810361221978
512.5778173843993
512.5746003390221
512.5713849859577
512.5681713250971
512.5649593563309
512.5617490795495
512.5585404946431
512.5553336015017
512.5521284000148
512.5489248900718
512.5457230715625
512.5425229443764
512.5393245084027
512.5361277635308
512.5329327096496
512.5297393466477
512.5265476744138
512.5233576928362
512.5201694018025
512.5169828011998
512.5137978909148
512.5106146708348
512.5074331408472
512.504253300839
512.5010751506969
512.4978986903076
512.494723919557
512.4915508383311
512.4883794465153
512.4852097439949
512.4820417306549
512.4788754063803
512.4757107710558
512.4725478245656
512.469386566794
512.4662269976255
512.4630691169447
512.4599129246361
512.4567584205846
512.4536056046753
512.4504544767934
512.4473050368234
512.4441572846498
512.4410112201571
512.4378668432292
512.4347241537504
512.4315831516045
512.4284438366755
512.425306208847
512.422170268003
512.419036014027
512.4159034468024
512.4127725662121
512.4096433721385
512.4065158644636
512.4033900430694
512.4002659078382
512.3971434586516
512.3940226953913
512.390903617939
512.3877862261762
512.3846705199843
512.3815564992443
512.3784441638371
512.3753335136438
512.3722245485454
512.3691172684231
512.3660116731579
512.3629077626309
512.3598055367232
512.3567049953157
512.3536061382889
512.3505089655231
512.3474134768979
512.3443196722932
512.3412275515885
512.3381371146637
512.3350483613984
512.3319612916722
512.3288759053645
512.3257922023546
512.322710182522
512.3196298457459
512.3165511919054
512.3134742208796
512.3103989325476
512.3073253267884
512.3042534034806
512.3011831625032
512.2981146037347
512.2950477270532
512.2919825323364
512.2889190194618
512.2858571883065
512.2827970387474
512.2797385706607
512.2766817839225
512.2736266784092
512.2705732539968
512.2675215105613
512.2644714479792
512.2614230661264
512.2583763648787
512.2553313441114
512.2522880037001
512.2492463435204
512.2462063634476
512.2431680633571
512.2401314431237
512.2370965026224
512.2340632417282
512.231031660316
512.2280017582603
512.2249735354354
512.2219469917155
512.2189221269749
512.2158989410879
512.2128774339282
512.2098576053696
512.2068394552863
512.2038229835522
512.2008081900411
512.1977950746267
512.1947836371822
512.1917738775809
512.1887657956955
512.1857593913991
512.1827546645644
512.179751615064
512.17675024277
512.1737505475545
512.1707525292894
512.1677561878467
512.1647615230983
512.161768534916
512.1587772231716
512.1557875877367
512.1527996284827
512.1498133452811
512.1468287380029
512.1438458065192
512.1408645507005
512.1378849704171
512.1349070655391
512.1319308359365
512.1289562814787
512.1259834020351
512.1230121974748
512.120042667667
512.1170748124804
512.1141086317838
512.111144125446
512.1081812933354
512.1052201353201
512.1022606512682
512.0993028410477
512.0963467045261
512.0933922415708
512.0904394520486
512.0874883358264
512.0845388927706
512.0815911227477
512.0786450256238
512.0757006012649
512.0727578495365
512.0698167703041
512.066877363433
512.0639396287887
512.0610035662363
512.0580691756408
512.0551364568668
512.052205409779
512.0492760342421
512.0463483301202
512.0434222972775
512.0404979355784
512.0375752448866
512.034654225066
512.0317348759801
512.0288171974925
512.0259011894667
512.0229868517662
512.0200741842542
512.0171631867942
512.0142538592496
512.0113462014837
512.008440213359
512.005535894738
512.0026332454828
511.9997322654548
511.99683295451484
511.99393531252383
511.99103933934214
511.9881450348297
511.9852523988462
511.982361431251
511.9794721319025
511.9765845006592
511.9736985373787
511.9708142419182
511.9679316141347
511.96505065388476
511.96217136102416
511.9592937354083
511.9564177768922
511.95354348533044
511.9506708605776
511.94779990248765
511.9449306109144
511.94206298571146
511.93919702673213
511.93633273382954
511.93347010685636
511.9306091456648
511.9277498501068
511.92489222003417
511.9220362552984
511.91918195575056
511.9163293212413
511.91347835162094
511.91062904673925
511.90778140644545
511.9049354305886
511.9020911190174
511.8992484715801
511.89640748812474
511.893568168499
511.8907305125505
511.88789452012645
511.8850601910741
511.8822275252402
511.8793965224712
511.87656718261326
511.87373950551216
511.8709134910133
511.86808913896164
511.86526644920184
511.8624454215784
511.85962605593556
511.8568083521169
511.8539923099653
511.85117792932294
511.84836521003183
511.8455541519337
511.84274475486984
511.8399370186813
511.837130943209
511.83432652829345
511.8315237737751
511.8287226794938
511.8259232452891
511.823125471
511.8203293564653
511.8175349015236
511.8147421060131
511.81195096977183
511.8091614926374
511.80637367444695
511.80358751503775
511.8008030142463
511.7980201719089
511.7952389878616
511.7924594619402
511.7896815939804
511.78690538381704
511.78413083128487
511.7813579362181
511.7785866984508
511.7758171178167
511.7730491941494
511.770282927282
511.7675183170471
511.764755363277
511.7619940658036
511.7592344244589
511.7564764390746
511.7537201094823
511.7509654355132
511.7482124169986
511.74546105376965
511.7427113456573
511.73996329249246
511.7372168941057
511.7344721503272
511.73172906098637
511.72898762591205
511.7262478449328
511.7235097178765
511.72077324457075
511.7180384248428
511.7153052585194
511.712573745427
511.70984388539193
511.70711567824026
511.7043891237978
511.70166422189016
511.6989409723427
511.6962193749806
511.69349942962856
511.69078113611124
511.6880644942531
511.68534950387846
511.68263616481147
511.6799244768762
511.6772144398964
511.6745060536956
511.671799318097
511.6690942329234
511.66639079799745
511.66368901314115
511.66098887817645
511.6582903929253
511.6555935572097
511.65289837085163
511.65020483367255
511.6475129454933
511.6448227061345
511.6421341154163
511.6394471731586
511.6367618791809
511.6340782333024
511.63139623534187
511.6287158851179
511.6260371824486
511.62336012715207
511.62068471904615
511.6180109579483
511.61533884367566
511.61266837604524
511.60999955487375
511.6073323799777
511.6046668511734
511.6020029682769
511.5993407311038
511.5966801394692
511.5940211931878
511.5913638920739
511.5887082359412
511.5860542246031
511.58340185787245
511.5807511355616
511.5781020574826
511.5754546234472
511.5728088332668
511.5701646867527
511.5675221837163
511.5648813239685
511.56224210732023
511.5596045335816
511.5569686025623
511.5543343140715
511.5517016679181
511.54907066391036
511.5464413018566
511.5438135815649
511.5411875028432
511.53856306549926
511.5359402693408
511.53331911417547
511.53069959981065
511.5280817260533
511.52546549271017
511.52285089958775
511.52023794649256
511.51762663323086
511.5150169596085
511.51240892543103
511.50980253050386
511.5071977746321
511.5045946576205
511.5019931792732
511.49939333939403
511.4967951377861
511.494198574252
511.4916036485939
511.48901036061363
511.4864187101124
511.483828696891
511.4812403207501
511.4786535814902
511.47606847891177
511.47348501281465
511.47090318299854
511.4683229892629
511.4657444314065
511.4631675092279
511.4605922225254
511.4580185710971
511.4554465547411
511.45287617325505
511.45030742643655
511.44774031408303
511.44517483599145
511.4426109919581
511.44004878177896
511.43748820525013
511.4349292621672
511.43237195232507
511.4298162755184
511.4272622315415
511.42470982018824
511.42215904125226
511.41960989452684
511.4170623798051
511.41451649687986
511.41197224554355
511.40942962558836
511.40688863680623
511.4043492789891
511.401811551929
511.3992754554175
511.3967409892465
511.3942081532074
511.3916769470917
511.38914737069047
511.38661942379474
511.3840931061951
511.38156841768193
511.3790453580451
511.3765239270739
511.374004124557
511.3714859502828
511.3689694040394
511.36645448561455
511.363941194796
511.3614295313711
511.35891949512677
511.3564110858496
511.3539043033255
511.35139914734043
511.3488956176799
511.3463937141288
511.34389343647183
511.3413947844932
511.3388977579767
511.3364023567059
511.333908580464
511.3314164290342
511.3289259021991
511.32643699974085
511.3239497214414
511.32146406708273
511.31898003644653
511.31649762931454
511.314016845468
511.311537684688
511.30906014675554
511.30658423145144
511.30410993855605
511.3016372678495
511.2991662191117
511.29669679212213
511.29422898665996
511.2917628025042
511.2892982394334
511.2868352972256
511.2843739756587
511.2819142745103
511.2794561935576
511.27699973257756
511.27454489134686
511.272091669642
511.2696400672395
511.2671900839156
511.2647417194463
511.2622949736075
511.2598498461747
511.2574063369235
511.2549644456293
511.2525241720674
511.2500855160132
511.24764847724134
511.2452130555263
511.24277925064223
511.2403470623634
511.2379164904638
511.235487534717
511.233060194896
511.23063447077345
511.2282103621218
511.22578786871316
511.2233669903195
511.2209477267128
511.2185300776649
511.2161140429474
511.2136996223318
511.21128681558923
511.2088756224906
511.2064660428065
511.2040580763072
511.2016517227627
511.1992469819428
511.1968438536172
511.19444233755564
511.1920424335277
511.1896441413031
511.1872474606513
511.18485239134145
511.1824589331426
511.1800670858237
511.1776768491537
511.17528822290126
511.1729012068348
511.1705158007227
511.16813200433296
511.16574981743327
511.16336923979077
511.1609902711722
511.15861291134354
511.15623716007065
511.1538630171191
511.15149048225396
511.14911955523996
511.146750235842
511.1443825238247
511.14201641895227
511.13965192098874
511.1372890296981
511.1349277448438
511.1325680661895
511.1302099934986
511.1278535265345
511.12549866506004
511.1231454088378
511.12079375763017
511.11844371119935
511.1160952693075
511.11374843171654
511.1114031981882
511.109059568484
511.1067175423651
511.10437711959264
511.10203829992713
511.0997010831287
511.09736546895704
511.09503145717156
511.0926990475315
511.0903682397958
511.08803903372325
511.0857114290726
511.0833854256024
511.08106102307113
511.07873822123736
511.0764170198594
511.07409741869526
511.0717794175031
511.0694630160407
511.0671482140657
511.0648350113355
511.0625234076073
511.06021340263794
511.057904996184
511.0555981880017
511.05329297784704
511.05098936547586
511.0486873506435
511.0463869331053
511.0440881126161
511.0417908889307
511.0394952618034
511.0372012309882
511.03490879623916
511.03261795731
511.0303287139542
511.0280410659251
511.025755012976
511.0234705548597
511.0211876913289
511.0189064221362
511.01662674703414
511.0143486657754
511.0120721781126
511.0097972837981
511.0075239825841
511.00525227422247
511.002982158465
511.0007136350631
510.9984467037681
510.99618136433094
510.9939176165027
510.99165546003394
510.9893948946748
510.9871359201751
510.9848785362843
510.9826227427519
510.98036853932706
510.97811592575874
510.9758649017957
510.9736154671863
510.9713676216785
510.96912136502044
510.96687669695996
510.96463361724466
510.9623921256217
510.96015222183803
510.95791390564034
510.9556771767751
510.95344203498837
510.95120848002614
510.9489765116342
510.94674612955816
510.94451733354356
510.9422901233355
510.94006449867913
510.9378404593191
510.9356180049996
510.9333971354646
510.9311778504581
510.9289601497238
510.9267440330053
510.92452950004565
510.92231655058765
510.92010518437394
510.9178954011471
510.9156872006498
510.9134805826244
510.9112755468133
510.9090720929586
510.9068702208025
510.90466993008715
510.9024712205545
510.90027409194624
510.8980785440036
510.8958845764681
510.893692189081
510.89150138158345
510.88931215371656
510.88712450522087
510.8849384358365
510.8827539453033
510.8805710333612
510.87838969974985
510.8762099442089
510.87403176647797
510.87185516629654
510.86968014340357
510.8675066975378
510.865334828438
510.86316453584243
510.8609958194894
510.8588286791172
510.8566631144639
510.8544991252676
510.8523367112663
510.85017587219807
510.848016607801
510.84585891781296
510.8437028019715
510.84154826001384
510.8393952916771
510.8372438966984
510.83509407481495
510.83294582576366
510.830799149281
510.82865404510346
510.8265105129675
510.82436855260914
510.8222281637642
510.8200893461684
510.8179520995574
510.81581642366643
510.81368231823114
510.8115497829871
510.8094188176693
510.8072894220128
510.8051615957519
510.8030353386208
510.80091065035356
510.79878753068385
510.79666597934545
510.79454599607186
510.7924275805964
510.7903107326523
510.78819545197246
510.7860817382897
510.78396959133704
510.78185901084714
510.77974999655237
510.77764254818464
510.77553666547567
510.77343234815737
510.77132959596145
510.76922840861937
510.7671287858624
510.76503072742173
510.76293423302843
510.7608393024135
510.75874593530773
510.7566541314417
510.75456389054546
510.7524752123487
510.7503880965809
510.74830254297115
510.7462185512487
510.74413612114233
510.74205525238096
510.73997594469336
510.73789819780825
510.7358220114544
510.7337473853605
510.7316743192554
510.7296028128675
510.7275328659251
510.7254644781566
510.72339764928995
510.721332379053
510.71926866717365
510.71720651337944
510.71514591739776
510.7130868789558
510.7110293977802
510.70897347359744
510.706919106134
510.7048662951164
510.70281504027105
510.7007653413244
510.6987171980028
510.6966706100319
510.69462557713734
510.69258209904444
510.69054017547853
510.6884998061645
510.6864609908272
510.6844237291913
510.6823880209812
510.6803538659216
510.67832126373685
510.67629021415144
510.6742607168893
510.672232771674
510.67020637822895
510.66818153627776
510.66615824554367
510.66413650574975
510.66211631661906
510.66009767787466
510.65808058923915
510.65606505043513
510.6540510611852
510.6520386212118
510.6500277302372
510.6480183879836
510.64601059417294
510.6440043485269
510.64199965076693
510.6399965006141
510.6379948977891
510.6359948420128
510.63399633300594
510.6319993704891
510.6300039541826
510.62801008380654
510.6260177590808
510.62402697972504
510.6220377454589
510.6200500560018
510.6180639110727
510.61607931039055
510.61409625367435
510.6121147406428
510.61013477101494
510.60815634450944
510.60617946084506
510.6042041197401
510.60223032091255
510.60025806408055
510.5982873489621
510.59631817527486
510.59435054273615
510.59238445106337
510.59041989997365
510.58845688918416
510.5864954184118
510.5845354873737
510.5825770957871
510.5806202433688
510.5786649298358
510.57671115490473
510.5747589182921
510.5728082197144
510.570859058888
510.56891143552923
510.56696534935406
510.5650208000783
510.5630777874179
510.56113631108894
510.5591963708072
510.55725796628815
510.5553210972472
510.55338576339966
510.5514519644606
510.5495197001452
510.5475889701687
510.54565977424625
510.5437321120927
510.5418059834227
510.5398813879509
510.53795832539174
510.5360367954594
510.534116797868
510.5321983323314
510.53028139856326
510.52836599627756
510.52645212518826
510.5245397850093
510.5226289754547
510.5207196962382
510.51881194707323
510.51690572767313
510.5150010377512
510.51309787702064
510.51119624519504
510.5092961419874
510.50739756711084
510.50550052027836
510.5036050012028
510.501711009597
510.49981854517375
510.4979276076457
510.4960381967252
510.49415031212436
510.4922639535554
510.4903791207306
510.4884958133624
510.4866140311632
510.48473377384505
510.48285504112016
510.4809778327002
510.4791021482971
510.47722798762277
510.4753553503891
510.4734842363083
510.471614645092
510.46974657645194
510.46788003009954
510.46601500574627
510.46415150310384
510.4622895218839
510.4604290617982
510.45857012255817
510.45671270387504
510.45485680546005
510.45300242702444
510.4511495682792
510.4492982289356
510.4474484087051
510.44560010729936
510.44375332442985
510.4419080598078
510.4400643131445
510.4382220841511
510.4363813725387
510.434542178018
510.4327045002998
510.4308683390947
510.4290336941134
510.4272005650665
510.4253689516646
510.4235388536182
510.4217102706381
510.4198832024348
510.4180576487189
510.41623360920073
510.4144110835906
510.41259007159863
510.41077057293467
510.4089525873086
510.4071361144305
510.4053211540105
510.40350770575867
510.4016957693849
510.39988534459883
510.39807643110987
510.39626902862744
510.39446313686096
510.39265875551985
510.3908558843133
510.38905452295023
510.38725467113943
510.3854563285894
510.3836594950084
510.3818641701042
510.38007035358453
510.37827804515666
510.37648724452777
510.374697951405
510.3729101654957
510.37112388650723
510.3693391141468
510.36755584812124
510.3657740881375
510.3639938339023
510.3622150851221
510.3604378415033
510.3586621027524
510.3568878685761
510.3551151386813
510.3533439127749
510.3515741905636
510.3498059717539
510.3480392560524
510.34627404316564
510.34451033280004
510.3427481246616
510.3409874184566
510.33922821389126
510.3374705106718
510.3357143085044
510.3339596070954
510.33220640615093
510.33045470537706
510.3287045044798
510.32695580316533
510.3252086011397
510.3234628981089
510.32171869377896
510.31997598785586
510.3182347800456
510.3164950700542
510.31475685758767
510.3130201423518
510.3112849240523
510.309551202395
510.30781897708596
510.3060882478313
510.30435901433714
510.3026312763094
510.3009050334541
510.2991802854773
510.29745703208494
510.2957352729833
510.29401500787856
510.292296236477
510.29057895848484
510.2888631736083
510.2871488815539
510.2854360820278
510.28372477473647
510.2820149593864
510.2803066356838
510.2785998033347
510.2768944620451
510.2751906115212
510.27348825146953
510.27178738159625
510.27008800160763
510.2683901112101
510.2666937101104
510.2649987980152
510.26330537463116
510.261613439665
510.25992299282314
510.25823403381185
510.2565465623371
510.25486057810497
510.2531760808214
510.25149307019217
510.2498115459233
510.2481315077208
510.2464529552907
510.24477588833895
510.2431003065718
510.24142620969576
510.239753597417
510.2380824694418
510.23641282547635
510.23474466522714
510.2330779884004
510.2314127947021
510.22974908383856
510.22808685551615
510.22642610944115
510.22476684531955
510.22310906285736
510.22145276176036
510.2197979417339
510.218144602483
510.2164927437128
510.2148423651287
510.2131934664359
510.21154604733954
510.20990010754474
510.2082556467566
510.20661266468016
510.2049711610208
510.20333113548384
510.20169258777435
510.20005551759743
510.1984199246582
510.1967858086615
510.19515316931245
510.19352200631613
510.19189231937787
510.190264108203
510.1886373724968
510.1870121119647
510.1853883263117
510.1837660152429
510.18214517846366
510.18052581567906
510.178907926594
510.1772915109133
510.1756765683418
510.1740630985845
510.17245110134616
510.17084057633144
510.169231523245
510.1676239417917
510.1660178316764
510.164413192604
510.16281002427934
510.1612083264073
510.15960809869273
510.1580093408405
510.15641205255577
510.15481623354356
510.15322188350876
510.15162900215626
510.1500375891909
510.14844764431757
510.14685916724136
510.1452721576678
510.1436866153025
510.14210253985095
510.1405199310185
510.1389387885105
510.13735911203196
510.13578090128806
510.13420415598387
510.13262887582425
510.1310550605143
510.1294827097594
510.127911823265
510.1263424007367
510.12477444188005
510.1232079464006
510.1216429140039
510.1200793443953
510.11851723728034
510.1169565923648
510.1153974093546
510.1138396879559
510.1122834278748
510.11072862881804
510.10917529049254
510.10762341260545
510.1060729948639
510.104524036975
510.1029765386462
510.10143049958504
510.09988591949934
510.0983427980967
510.0968011350848
510.0952609301711
510.0937221830635
510.09218489346983
510.0906490610979
510.0891146856553
510.0875817668499
510.08605030438946
510.08452029798184
510.08299174733486
510.08146465215634
510.07993901215434
510.07841482703714
510.0768920965128
510.07537082028955
510.0738509980762
510.0723326295814
510.07081571451374
510.06930025258214
510.06778624349556
510.0662736869632
510.06476258269447
510.063252930399
510.0617447297867
510.0602379805672
510.05873268245034
510.05722883514625
510.0557264383648
510.0542254918158
510.05272599520947
510.05122794825604
510.04973135066587
510.0482362021495
510.0467425024175
510.04525025118016
510.0437594481481
510.0422700930318
510.04078218554184
510.03929572538857
510.0378107122823
510.03632714593357
510.0348450260532
510.0333643523519
510.03188512454074
510.0304073423307
510.0289310054328
510.0274561135585
510.02598266641905
510.02451066372566
510.02304010518935
510.02157099052135
510.02010331943313
510.0186370916366
510.01717230684415
510.0157089647679
510.01424706512
510.01278660761284
510.011327591959
510.0098700178713
510.00841388506285
510.0069591932471
510.0055059421376
510.0040541314478
510.00260376089125
510.00115483018146
509.9997073390317
509.9982612871555
509.9968166742666
509.9953735000787
509.9939317643058
509.9924914666618
509.991052606861
509.98961518461795
509.98817919964733
509.986744651664
509.9853115403831
509.9838798655197
509.98244962678916
509.98102082390676
509.9795934565881
509.9781675245489
509.976743027505
509.97531996517216
509.9738983372662
509.9724781435033
509.9710593835997
509.9696420572719
509.9682261642364
509.96681170421004
509.9653986769098
509.96398708205277
509.96257691935614
509.9611681885373
509.95976088931354
509.95835502140255
509.95695058452213
509.95554757839034
509.9541460027252
509.9527458572451
509.9513471416684
509.94994985571395
509.9485539991007
509.9471595715478
509.94576657277446
509.9443750024999
509.9429848604435
509.94159614632474
509.9402088598632
509.9388230007786
509.9374385687905
509.9360555636189
509.93467398498353
509.93329383260414
509.93191510620056
509.9305378054929
509.9291619302013
509.92778748004605
509.9264144547475
509.92504285402595
509.92367267760153
509.92230392519434
509.9209365965245
509.91957069131206
509.9182062092772
509.9168431501399
509.9154815136202
509.91412129943785
509.91276250731255
509.91140513696416
509.91004918811234
509.9086946604765
509.90734155377606
509.90598986773045
509.9046396020591
509.9032907564814
509.901943330717
509.90059732448583
509.89925273750794
509.89790956950367
509.89656782019335
509.8952274892973
509.89388857653614
509.89255108163036
509.89121500430076
509.88988034426814
509.88854710125327
509.88721527497694
509.8858848651597
509.8845558715219
509.8832282937839
509.88190213166615
509.8805773848891
509.879254053173
509.8779321362382
509.8766116338053
509.8752925455948
509.87397487132705
509.8726586107224
509.87134376350116
509.8700303293839
509.86871830809093
509.8674076993426
509.86609850285924
509.8647907183612
509.86348434556874
509.86217938420225
509.8608758339823
509.85957369462915
509.8582729658634
509.8569736474054
509.8556757389755
509.8543792402942
509.8530841510818
509.85179047105873
509.85049819994504
509.84920733746105
509.8479178833271
509.8466298372633
509.8453431989898
509.84405796822637
509.8427741446927
509.8414917281085
509.84021071819336
509.83893111466693
509.8376529172489
509.8363761256584
509.8351007396144
509.8338267588357
509.83255418304077
509.8312830119479
509.83001324527515
509.8287448827408
509.8274779240629
509.8262123689593
509.82494821714783
509.82368546834584
509.8224241222705
509.8211641786389
509.8199056371683
509.8186484975755
509.8173927595775
509.81613842289096
509.8148854872326
509.81363395231904
509.81238381786727
509.81113508359397
509.8098877492156
509.8086418144484
509.80739727900857
509.8061541426124
509.8049124049759
509.8036720658148
509.8024331248447
509.80119558178114
509.79995943633946
509.79872468823544
509.79749133718485
509.79625938290394
509.79502882510894
509.7937996635161
509.7925718978414
509.7913455278009
509.79012055311057
509.7888969734862
509.7876747886438
509.7864539982994
509.785234602169
509.7840165999688
509.7827999914151
509.7815847762241
509.7803709541123
509.7791585247959
509.7779474879909
509.77673784341357
509.7755295907799
509.77432272980593
509.77311726020764
509.7719131817008
509.77071049400104
509.76950919682383
509.76830928988477
509.76711077289985
509.76591364558533
509.7647179076574
509.7635235588326
509.7623305988276
509.76113902735904
509.75994884414365
509.7587600488979
509.75757264133824
509.7563866211814
509.755201988144
509.7540187419428
509.75283688229445
509.7516564089159
509.75047732152404
509.7492996198358
509.7481233035684
509.7469483724386
509.7457748261637
509.7446026644608
509.743431887047
509.7422624936395
509.7410944839554
509.7399278577119
509.73876261462635
509.7375987544159
509.7364362767979
509.7352751814898
509.7341154682091
509.7329571366737
509.7318001866014
509.7306446177098
509.7294904297165
509.7283376223396
509.7271861952969
509.7260361483062
509.7248874810854
509.7237401933522
509.7225942848246
509.7214497552201
509.7203066042563
509.7191648316508
509.71802443712124
509.7168854203852
509.7157477811603
509.7146115191639
509.7134766341136
509.712343125727
509.7112109937217
509.7100802378153
509.70895085772565
509.7078228531708
509.7066962238688
509.7055709695379
509.70444708989646
509.70332458466294
509.7022034535561
509.7010836962944
509.6999653125964
509.69884830218064
509.69773266476534
509.6966184000688
509.69550550780957
509.69439398770635
509.6932838394779
509.6921750628427
509.6910676575193
509.6899616232264
509.6888569596823
509.68775366660554
509.68665174371483
509.6855511907289
509.68445200736653
509.6833541933462
509.68225774838663
509.68116267220637
509.68006896452414
509.67897662505845
509.6778856535283
509.6767960496526
509.6757078131503
509.6746209437405
509.673535441142
509.6724513050741
509.6713685352564
509.6702871314086
509.6692070932503
509.66812842050115
509.6670511128808
509.6659751701087
509.6649005919045
509.6638273779878
509.66275552807826
509.66168504189534
509.66061591915843
509.6595481595872
509.65848176290126
509.6574167288203
509.65635305706394
509.6552907473516
509.6542297994032
509.6531702129388
509.6521119876785
509.65105512334264
509.64999961965157
509.64894547632537
509.6478926930846
509.6468412696498
509.6457912057416
509.6447425010805
509.64369515538704
509.64264916838226
509.64160453978695
509.6405612693219
509.6395193567081
509.63847880166674
509.63743960391895
509.6364017631857
509.63536527918774
509.63433015164566
509.6332963802798
509.6322639648102
509.6312329049568
509.6302032004392
509.6291748509769
509.628147856289
509.62712221609473
509.62609793011285
509.62507499806185
509.62405341966
509.62303319462563
509.62201432267676
509.6209968035312
509.61998063690663
509.61896582252035
509.6179523600893
509.61694024932996
509.61592948995855
509.61492008169085
509.61391202424267
509.61290531732953
509.611899960667
509.61089595397067
509.6098932969556
509.60889198933666
509.6078920308285
509.60689342114557
509.60589616000226
509.604900247113
509.60390568219196
509.6029124649529
509.6019205951091
509.6009300723734
509.5999408964586
509.5989530670773
509.5979665839416
509.59698144676355
509.59599765525473
509.59501520912664
509.5940341080903
509.59305435185644
509.59207594013566
509.59109887263804
509.5901231490737
509.58914876915225
509.5881757325829
509.58720403907483
509.586233688337
509.58526468007796
509.5842970140059
509.5833306898292
509.58236570725563
509.58140206599234
509.580439765746
509.5794788062229
509.57851918712873
509.5775609081691
509.5766039690496
509.57564836947523
509.5746941091507
509.57374118778085
509.5727896050701
509.57183936072244
509.5708904544413
509.56994288592983
509.568996654891
509.5680517610277
509.5671082040424
509.5661659836374
509.56522509951475
509.56428555137614
509.5633473389235
509.5624104618585
509.56147491988264
509.5605407126971
509.5596078400029
509.5586763015006
509.5577460968903
509.5568172258716
509.5558896881442
509.55496348340745
509.5540386113608
509.55311507170364
509.55219286413495
509.55127198835345
509.55035244405786
509.54943423094693
509.5485173487194
509.5476017970737
509.5466875757082
509.5457746843211
509.5448631226105
509.54395289027417
509.5430439870095
509.5421364125137
509.5412301664838
509.54032524861674
509.5394216586092
509.53851939615816
509.53761846096023
509.5367188527119
509.5358205711096
509.5349236158498
509.5340279866289
509.53313368314326
509.5322407050888
509.5313490521615
509.5304587240574
509.529569720472
509.5286820411009
509.52779568563966
509.526910653784
509.5260269452295
509.5251445596717
509.5242634968061
509.52338375632786
509.52250533793205
509.5216282413133
509.520752466166
509.51987801218417
509.51900487906147
509.5181330664912
509.5172625741664
509.5163934017797
509.5155255490236
509.5146590155908
509.5137938011738
509.512929905465
509.5120673281568
509.51120606894125
509.51034612751033
509.5094875035555
509.5086301967679
509.50777420683886
509.5069195334593
509.5060661763201
509.50521413511166
509.5043634095246
509.5035139992495
509.50266590397683
509.50181912339696
509.5009736572002
509.5001295050768
509.4992866667167
509.49844514180955
509.4976049300447
509.49676603111135
509.4959284446987
509.49509217049564
509.49425720819096
509.49342355747336
509.49259121803135
509.4917601895532
509.4909304717269
509.4901020642404
509.4892749667811
509.4884491790363
509.48762470069283
509.48680153143715
509.4859796709557
509.485159118935
509.48433987506115
509.4835219390205
509.48270531049917
509.48188998918323
509.4810759747584
509.48026326691075
509.479451865326
509.47864176968943
509.4778329796862
509.4770254950013
509.47621931531995
509.47541444032714
509.474610869708
509.4738086031476
509.473007640331
509.4722079809431
509.47140962466875
509.47061257119236
509.4698168201981
509.46902237136993
509.46822922439156
509.4674373789467
509.4666468347187
509.4658575913905
509.46506964864494
509.46428300616486
509.46349766363284
509.4627136207312
509.46193087714215
509.46114943254753
509.46036928662903
509.4595904390681
509.4588128895462
509.45803663774456
509.45726168334437
509.4564880260264
509.45571566547125
509.4549446013594
509.4541748333714
509.453406361188
509.4526391844898
509.4518733029568
509.45110871626895
509.4503454241058
509.44958342614683
509.4488227220714
509.44806331155866
509.4473051942876
509.4465483699369
509.4457928381851
509.44503859871025
509.4442856511901
509.4435339953023
509.44278363072414
509.4420345571328
509.44128677420514
509.44054028161764
509.43979507904675
509.4390511661689
509.4383085426603
509.4375672081972
509.4368271624556
509.4360884051112
509.4353509358396
509.4346147543163
509.4338798602169
509.4331462532169
509.43241393299155
509.431682899216
509.43095315156535
509.4302246897144
509.4294975133378
509.42877162210976
509.4280470157042
509.4273236937948
509.4266016560551
509.4258809021583
509.4251614317778
509.4244432445867
509.42372634025816
509.4230107184647
509.42229637887846
509.42158332117157
509.4208715450159
509.4201610500832
509.41945183604486
509.4187439025721
509.4180372493359
509.41733187600727
509.41662778225697
509.41592496775553
509.41522343217326
509.41452317518
509.41382419644543
509.41312649563866
509.41243007242844
509.411734926483
509.4110410574704
509.41034846505823
509.40965714891405
509.40896710870544
509.40827834409953
509.4075908547632
509.4069046403634
509.40621970056674
509.4055360350397
509.4048536434487
509.40417252545996
509.40349268073993
509.40281410895506
509.4021368097713
509.4014607828545
509.4007860278703
509.4001125444841
509.39944033236094
509.3987693911657
509.3980997205629
509.3974313202171
509.39676418979235
509.3960983289524
509.395433737361
509.3947704146818
509.3941083605785
509.3934475747149
509.39278805675445
509.3921298063604
509.3914728231958
509.3908171069234
509.3901626572061
509.3895094737066
509.38885755608777
509.3882069040122
509.38755751714217
509.38690939513987
509.38626253766716
509.38561694438573
509.384972614957
509.3843295490422
509.38368774630254
509.383047206399
509.3824079289921
509.3817699137424
509.3811331603104
509.38049766835667
509.3798634375417
509.3792304675258
509.3785987579693
509.3779683085325
509.3773391188759
509.3767111886596
509.3760845175437
509.37545910518776
509.3748349512512
509.37421205539323
509.37359041727274
509.3729700365487
509.37235091287977
509.3717330459247
509.371116435342
509.37050108079035
509.369886981928
509.3692741384128
509.36866254990224
509.36805221605397
509.36744313652576
509.36683531097543
509.366228739061
509.3656234204403
509.3650193547708
509.36441654171
509.36381498091515
509.3632146720434
509.36261561475186
509.36201780869743
509.3614212535368
509.36082594892656
509.36023189452345
509.35963908998434
509.3590475349659
509.3584572291248
509.35786817211743
509.35728036360007
509.35669380322867
509.35610849065876
509.35552442554587
509.3549416075451
509.35436003631145
509.35377971150007
509.353200632766
509.3526227997641
509.35204621214876
509.35147086957414
509.3508967716942
509.3503239181626
509.34975230863284
509.34918194275843
509.34861282019284
509.34804494058955
509.34747830360226
509.34691290888424
509.34634875608873
509.345785844869
509.34522417487784
509.3446637457676
509.34410455719063
509.34354660879904
509.34298990024496
509.3424344311805
509.34188020125754
509.34132721012753
509.3407754574417
509.3402249428512
509.33967566600705
509.33912762656
509.33858082416083
509.33803525846025
509.33749092910926
509.3369478357584
509.33640597805817
509.33586535565934
509.33532596821243
509.334787815368
509.33425089677627
509.3337152120876
509.33318076095185
509.3326475430186
509.332115557937
509.3315848053563
509.3310552849255
509.33052699629394
509.32999993911045
509.329474113024
509.32894951768327
509.32842615273677
509.32790401783296
509.32738311262057
509.3268634367483
509.3263449898646
509.32582777161775
509.32531178165556
509.3247970196256
509.3242834851754
509.3237711779523
509.3232600976035
509.32275024377583
509.3222416161162
509.3217342142712
509.32122803788735
509.3207230866108
509.32021936008783
509.31971685796435
509.31921557988636
509.31871552549984
509.3182166944503
509.3177190863833
509.31722270094434
509.3167275377785
509.3162335965306
509.31574087684527
509.3152493783671
509.3147591007408
509.31427004361086
509.31378220662197
509.3132955894187
509.3128101916455
509.3123260129469
509.3118430529676
509.3113613113522
509.310880787745
509.3104014817903
509.30992339313235
509.30944652141517
509.30897086628266
509.30849642737877
509.3080232043472
509.3075511968314
509.3070804044749
509.3066108269209
509.3061424638125
509.3056753147926
509.30520937950433
509.30474465759045
509.3042811486933
509.3038188524552
509.30335776851854
509.3028978965256
509.3024392361188
509.3019817869404
509.3015255486326
509.3010705208374
509.3006167031968
509.30016409535284
509.29971269694767
509.2992625076234
509.2988135270221
509.29836575478595
509.297919190557
509.2974738339772
509.2970296846884
509.2965867423325
509.2961450065514
509.29570447698717
509.2952651532817
509.2948270350765
509.29439012201266
509.29395441373146
509.29351990987385
509.2930866100806
509.2926545139922
509.2922236212492
509.2917939314921
509.2913654443615
509.2909381594978
509.29051207654135
509.29008719513223
509.2896635149103
509.2892410355151
509.28881975658607
509.2883996777626
509.28798079868403
509.2875631189898
509.28714663831926
509.2867313563118
509.2863172726068
509.28590438684347
509.2854926986607
509.28508220769714
509.2846729135916
509.28426481598245
509.283857914508
509.2834522088063
509.2830476985153
509.28264438327307
509.2822422627176
509.28184133648693
509.28144160421886
509.28104306555116
509.28064572012164
509.28024956756786
509.27985460752717
509.27946083963644
509.2790682635328
509.27867687885333
509.27828668523495
509.2778976823145
509.27750986972916
509.277123247116
509.2767378141121
509.2763535703544
509.27597051547974
509.2755886491248
509.27520797092626
509.27482848052074
509.2744501775449
509.2740730616354
509.2736971324287
509.273322389561
509.2729488326684
509.27257646138725
509.27220527535343
509.27183527420294
509.27146645757176
509.27109882509563
509.2707323764101
509.2703671111506
509.2700030289528
509.26964012945183
509.2692784122831
509.26891787708183
509.2685585234836
509.2682003511239
509.2678433596382
509.2674875486617
509.2671329178293
509.266779466776
509.2664271951365
509.26607610254547
509.26572618863776
509.26537745304796
509.26502989541046
509.26468351535965
509.2643383125301
509.26399428655674
509.2636514370743
509.2633097637175
509.26296926612105
509.2626299439201
509.2622917967495
509.261954824244
509.2616190260388
509.26128440176905
509.26095095107036
509.26061867357845
509.2602875689291
509.259957636758
509.2596288767007
509.25930128839246
509.25897487146864
509.25864962556426
509.2583255503144
509.2580026453541
509.25768091031824
509.2573603448414
509.257040948558
509.25672272110234
509.2564056621089
509.256089771212
509.2557750480458
509.2554614922445
509.2551491034424
509.254837881274
509.2545278253734
509.2542189353747
509.2539112109119
509.2536046516191
509.25329925713055
509.2529950270801
509.2526919611017
509.25239005882923
509.25208931989647
509.2517897439371
509.25149133058454
509.25119407947255
509.25089799023505
509.2506030625057
509.2503092959185
509.2500166901071
509.2497252447052
509.2494349593463
509.24914583366404
509.248857867292
509.24857105986354
509.2482854110122
509.2480009203717
509.24771758757566
509.24743541225763
509.24715439405105
509.24687453258963
509.24659582750706
509.24631827843706
509.24604188501354
509.2457666468702
509.24549256364054
509.245219634958
509.24494786045585
509.2446772397673
509.24440777252545
509.24413945836324
509.2438722969137
509.2436062878101
509.2433414306859
509.2430777251748
509.24281517091055
509.2425537675268
509.242293514657
509.2420344119344
509.2417764589923
509.24151965546395
509.2412640009823
509.24100949518044
509.24075613769133
509.24050392814803
509.24025286618354
509.2400029514309
509.2397541835231
509.23950656209314
509.2392600867741
509.23901475719896
509.2387705730005
509.2385275338116
509.2382856392649
509.23804488899333
509.2378052826296
509.2375668198068
509.2373295001576
509.23709332331515
509.2368582889122
509.2366243965815
509.23639164595585
509.23616003666785
509.2359295683503
509.23570024063616
509.23547205315873
509.23524500555123
509.2350190974469
509.23479432847904
509.2345706982806
509.23434820648487
509.2341268527253
509.23390663663537
509.23368755784855
509.23346961599856
509.23325281071885
509.2330371416429
509.2328226084042
509.23260921063644
