568.9999999999997
568.5526250037819
568.1041804480561
567.6536003739661
567.199826015426
566.7418093742411
566.2785167697647
565.8089323545486
565.3320615874387
564.8469346555366
564.3526098363906
563.8481767917276
563.3327597840525
562.8055208074395
562.2656626240235
561.712431697882
561.14512101809
560.5630728027783
559.9656810761537
559.3523941107146
558.7227167272084
558.0762124451577
557.4125054770262
556.7312825594015
556.032294614906
555.3153582388934
554.5803570053579
553.8272425867938
553.0560356829664
552.266826753836
551.4597765522865
550.6351164527105
549.7931485719287
548.9342456793061
548.0588508933524
547.1674771624804
546.2607065281064
545.3391891688508
544.4036422251887
543.4548484044212
542.4936543664352
541.5209688914649
540.5377608318271
539.5450568502931
538.5439389484625
537.5355417892622
536.5210498184829
535.501694191056
534.4787495086531
533.4535303760972
532.4273877848548
531.4017053325201
530.3778952878769
529.3573945118993
528.3416602458675
527.3321657784265
526.3303960041026
525.3378428864404
524.356000839642
523.3863620432228
522.4304117048721
521.4896232873307
520.5654537156009
519.6593385811572
518.7726873600915
517.9068786624367
517.0632555301751
516.2431208015996
515.4477325597887
514.6782996830228
513.9359775149776
513.2218636724908
512.5369940085761
511.8823387481171
511.2587988133299
510.6672023556629
510.10830151027136
509.5827693886595
509.091197324394
508.6340923860224
508.2118751704991
507.82487788956007
507.4733427604906
507.15742071161344
506.87717041166377
506.6325576309985
506.4234549413266
506.2496417593625
506.1108047384361
506.0065385106777
505.93634678093497
505.8996437720293
505.89575601937696
505.9239245114349
505.9833071708211
506.0729816693672
506.19194856881325
506.33913477737633
506.51339731094424
506.7135273461436
506.93825455110664
507.1862516783875
507.45613940307027
507.7464913877933
508.05583955526544
508.382679547761
508.72547635194366
509.0826700663002
509.45268178760944
509.833919592256
510.2247845877015
510.6236770090159
511.0290023350548
511.43917739863866
511.85263646493325
512.2678372521449
512.6832668687788
513.0974476420303
513.5089428121701
513.9163620681704
514.3183669003946
514.7136757469566
515.101068911243
515.4793932289635
515.847566464016
516.2045814134757
516.5495097031678
516.8815052565512
517.1998074210575
517.5037437374309
517.7927323391167
518.0662839704643
518.3240036144314
518.5655917224849
518.7908450414458
518.9996570341459
519.1920178927625
519.3680141456979
519.527827860951
519.6717354510369
519.8001060864884
519.9133997268987
520.0121647803671
520.0970354041045
520.168728460691
520.2280401459867
520.2758423060194
520.3130784613398
520.3407595583285
520.359959467903
520.3718102529758
520.3774972268997
520.3782538260252
520.3753563203877
520.3701183872425
520.3638855726339
520.3580296665477
520.353943017448
520.3530328120042
520.3567153456187
520.3664103090657
520.383535116096
520.4094992963493
520.4456989772852
520.4935114780596
520.5542900374747
520.6293586973454
520.7200073616533
520.8274870507652
520.9530053687574
521.0977222005732
521.2627456543064
521.449128262475
521.6578634547316
521.8898823129024
522.1460506176683
522.4271661946254
522.7339565658866
523.0670769117792
523.4271083455402
523.8145565022953
524.2298504420224
524.6733418646406
525.1453046337979
525.6459346044177
526.1753497476622
526.7335905656566
527.320620786995
527.936328332859
528.5805265425769
529.2529556465505
529.9532844735787
530.6811123787754
531.435971377593
532.2173284708265
533.0245881449035
533.8570950312553
534.7141367083142
535.5949466294614
536.4987071601381
537.4245527073571
538.3715729250576
539.338815978889
540.3252918542446
541.3299756917264
542.3518111346972
543.3897136741183
544.4425739764864
545.5092611813265
546.5886261553655
547.6795046912297
548.7807206392938
549.8910889622049
551.0094187025935
552.1345158554892
553.2651861379038
554.400237648931
555.5384834146602
556.6787438132017
557.819848876042
558.9606404628639
560.0999743078185
561.2367219360787
562.3697724503583
563.4980341878723
564.6204362490155
565.7359298997594
566.8434898504455
567.9421154142386
569.030831549086
570.1086897875205
571.1747690590205
572.2281764100085
573.2680476269842
574.2935477686508
575.3038716131465
576.2982440266967
577.275920260055
578.2361861791034
579.1783584359738
580.1017845870024
581.0058431637693
581.8899437034161
582.7535267442271
583.5960637921453
584.4170572635129
585.2160404089307
585.9925772227074
586.746262341945
587.4767209388855
588.1836086096112
588.8666112617074
589.5254450030843
590.159856033739
590.7696205417192
591.35454460402
591.9144640926721
592.4492445859157
592.9587812839382
593.4429989281932
593.9018517228144
594.3353232561408
594.7434264199059
595.1262033232317
595.4837251982519
595.8160922939369
596.1234337544465
596.4059074781871
596.6636999536486
596.8970260680935
597.1061288851299
597.2912793870893
597.4527761780279
597.5909451431966
597.706139061
597.7987371636867
597.8691446432467
597.9177920992698
597.9451349258413
597.9516526348646
597.9378481135298
597.9042468139762
597.8513958735067
597.779863164041
597.6902362698003
597.5831213924986
597.4591421837162
597.3189385045356
597.1631651129306
596.9924902798385
596.8075943352993
596.6091681464917
596.3979115298777
596.1745316000033
595.9397410578667
595.694256422232
595.4387962077931
595.1740790546298
594.9008218139758
594.6197375958579
594.3315337846326
594.0369100287706
593.7365562115405
593.4311504094258
593.121356845339
592.8078238439339
592.4911817965287
592.1720411432482
591.8509903801173
591.5285940989952
591.2053910683135
590.8818923625793
590.5585795484932
590.2359029354382
589.9142798979897
589.5940932778876
589.2756898726333
588.9593790176763
588.6454312689197
588.3340771919354
588.0255062639332
587.7198658942217
587.4172605685151
587.1177511220061
586.8213541457634
586.5280415306637
586.2377401525845
585.950331702167
585.6656526620777
585.3834944343189
585.1036036197265
584.8256824512695
584.549389382106
584.2743398287239
584.0001070689341
583.7262232939017
583.452180812831
583.1774334084125
582.9013978406147
582.623455495743
582.3429541769787
582.0592100319298
581.7715096120512
581.479112058126
581.1812514054458
580.8771390019411
580.5659660322118
580.2469061400247
579.9191181415005
579.5817488208978
579.2339358006647
578.8748104771338
578.5035010130621
578.1191353780096
577.7208444273509
577.3077650104439
576.8790430982345
576.4338369204046
575.9713201020764
575.4906847900827
574.9911447588415
574.4719384858747
573.9323321869389
573.371622800653
572.7891409124542
572.1842536077434
571.556367244246
570.9049301338586
570.2294351244841
569.5294220725746
568.8044801973201
568.0542503077185
567.278426894115
566.4767600761941
565.6490573997985
564.7951854753112
563.9150714507381
563.0087043130632
562.0761360119747
561.1174824005857
560.1329239883336
559.1227065018862
558.0871412505123
557.0266052929433
555.9415414032817
554.8324578340952
553.6999278754379
552.5445892091911
551.3671430588245
550.1683531352389
548.9490443799597
547.7101015075689
546.4524673498685
545.1771410049084
543.8851757947375
542.5776770364761
541.2557996320559
539.9207454827224
538.5737607350975
537.2161328662754
535.8491876161542
534.474285775865
533.0928198417278
531.7062105446628
530.3159032655042
528.9233643471829
527.5300773152076
526.1375390182751
524.7472557011846
523.3607390225809
521.9795020304606
520.6050551087714
519.2389019087808
517.8825352791007
516.5374332084452
515.205054795332
513.8868362590237
512.5841870059635
511.2984857659084
510.03107681184053
508.78326627753626
507.55631858652737
506.35145300604825
505.16984033931294
504.0125997690998
502.8807958652105
501.77543576792414
500.6974665590462
499.6477728314419
498.6271744672817
497.6364246345857
496.676208010947
495.74713924248704
494.8497616451905
493.98454615485684
493.15189053103467
492.3521188193771
491.5854810758882
490.85215335547275
490.1522379659879
489.4857639876809
488.85268805667374
488.25289541012387
487.68620118976247
487.15235199951564
486.6510277118064
486.1818435160424
485.74435220172745
485.33804666755555
484.9623626467816
484.61668163817615
484.3003340309004
484.01260241070713
483.7527250339786
483.51989945525247
483.31328629311264
483.1320131185886
482.97517844957554
482.84185583425443
482.7310980059805
482.64194109174053
482.57340885609983
482.52451696247897
482.4942772335461
482.4817018924615
482.4858077667549
482.5056204367922
482.5401783109826
482.5885366101735
482.6497712441268
482.7229825634949
482.80729897122666
482.901880377973
483.0059214868354
483.1186548935234
483.23935398877256
483.3673356508139
483.5019627165718
483.64264622102843
483.788847394985
483.9400794123117
484.09590887887424
484.25595705676994
484.4199008190848
484.58747333188364
484.75846446158
484.9327209072216
485.11014605852057
485.2906995817212
485.4743967367881
485.6613074308604
485.8515550143674
486.04531482764196
486.2428125073135
486.4443220630816
486.6501637365789
486.8607016549741
487.076341292792
487.2975267561834
487.5247379044562
487.7584873240623
487.9993171705904
488.24779589470813
488.5045148683785
488.7700849280291
489.045132851712
489.3302977876643
489.62622765177923
489.9335755113982
490.2529959726133
490.5851415879262
490.9306593007361
491.29018694275453
491.6643498000075
492.05375726262
492.4589995731198
492.8806446873952
493.3192352616196
493.7752857775229
494.2492798175207
494.7416675003834
495.2528630872031
495.7832427663504
496.33314262503905
496.9028568140201
497.4926359108326
498.10268548591995
498.73316487484465
499.3841861587556
500.0558133541492
500.7480618118083
501.4608978236323
502.19423843494326
502.94795145884956
503.72185568829394
504.51572130043286
505.32927044711136
506.1621780243653
507.0140726130533
507.88453758204804
508.7731123448098
509.67929375960017
510.6025376631154
511.54226052687983
512.4978412253939
513.4686229047857
514.4539149404928
515.4529949723232
516.4651110051909
517.4894835637975
518.5253078895357
519.5717561679179
520.6279797750296
521.6931115318231
522.7662679555226
523.8465514978957
524.9330527606082
526.024852678415
527.1210246615466
528.2206366892444
529.3227533469477
530.4264378002006
531.5307536990448
532.6347670073895
533.7375477525788
534.8381716911476
535.9357218875529
537.0292902034524
538.1179786957524
539.2009009223294
540.2771831550343
541.345965500223
542.4064029276365
543.4576662090359
544.4989427685255
545.5294374469598
546.548373183348
547.5549916167375
548.5485536126665
549.5283397187192
550.493650554017
551.4438071376723
552.3781511613994
553.2960452116272
554.1968729465675
555.080039233674
555.9449702528625
556.7911135707651
557.6179381912642
558.4249345876165
559.2116147215589
559.9775120546939
560.7221815570996
561.4451997176366
562.1461645600009
562.8246956682196
563.4804342248736
564.1130430649106
564.7222067475205
565.30763164813
565.869046072158
566.4062003917697
566.9188672063676
567.4068415270557
567.8699409847729
568.3080060612635
568.7209003416123
569.108510786637
569.4707480229731
569.8075466482677
570.1188655484908
570.4046882239186
570.6650231198946
570.8999039581062
571.1093900638717
571.293566684708
571.45254529516
571.5864638826952
571.6954872093497
571.7798070436705
571.8396423574071
571.87523948147
571.886872215777
571.8748418876638
571.8394773535545
571.7811349387428
571.7001983103871
571.5970782791427
571.4722125252345
571.3260652452541
571.159126716533
570.971912776453
570.7649642143889
570.5388460742004
570.2941468654606
570.0314776820572
569.7514712272957
569.4547807452291
569.1420788585635
568.8140563139724
568.4714206361275
568.1148946922192
567.7452151692173
567.3631309665353
566.9694015071963
566.5647949711067
566.1500864546041
565.7260560610358
565.2934869276754
564.8531631947629
564.4058679230352
563.9523809667285
563.493476809542
563.0299223714009
562.5624747940324
562.0918792135046
561.6188665279924
561.1441511692616
560.6684288866287
560.1923745523858
559.7166399978561
559.2418518892454
558.7686096524541
558.297483455952
557.8290122606437
557.3637019452809
556.9020235156356
556.4444114054421
555.9912618769515
555.5429315285929
555.0997359167169
554.6619482979431
554.2297984982173
553.8034719141878
553.3831086520273
552.9688028084374
552.5606018981443
552.1585064316452
551.7624696463856
551.3723973940171
550.988148185852
550.6095333981702
550.2363176385184
549.8682192735376
549.5049111181577
549.1460212852995
548.7911341945239
548.4397917373958
548.0914945967425
547.745703716459
547.4018419179106
547.0592956583162
546.7174169258589
546.3755252657218
546.0329099306637
545.6888321491061
545.3425275030936
544.9932084080311
544.640066685744
544.2822762221892
543.9189957010547
543.5493714044404
543.1725400716717
542.7876318071434
542.3937730279689
541.9900894420808
541.5757090473188
541.1497651419327
540.7113993369251
540.2597645607242
539.7940280468066
539.3133742949758
538.8170079970207
538.3041569176081
537.7740747214784
537.22604373814
536.6593776553026
536.0734241324369
535.4675673261302
534.8412303192293
534.19387744606
533.5250165063965
532.8342008612149
532.1210314036673
531.3851583991928
530.6262831891712
529.8441597528283
529.0385961223351
528.2094556462997
527.3566580972224
526.480180618902
525.5800585103188
524.6563858431122
523.7093159102997
522.7390615043288
521.7458950230175
520.730148402494
519.6922128768026
518.632538564249
517.5516338809005
516.4500647820479
515.3284538329051
514.187479110302
513.0278729376914
511.85042045629746
510.65595803570915
509.4453715277162
508.21959436763166
506.97960552772037
505.72642732766667
504.461123107322
503.1847947673541
501.89858018394966
500.6036505042296
499.3012073295438
497.99247979424695
496.6787215478795
495.3612076490111
494.04123137943685
492.7201009877626
491.399136371704
490.0796657087288
488.76302204498836
487.4505398527834
486.1435515670152
484.8433841112463
483.5513554242077
482.26877099774873
480.996920437325
479.7370740562986
478.4904795154988
477.25835851951877
476.0419035810927
474.8422748647853
473.66059712126787
472.49795672334545
471.3553988145148
470.23392458058845
469.13448865488647
468.05799666736
467.00530294759164
465.9772083911026
464.9744584978811
463.9977415915802
463.047687227337
462.124864795571
461.2297823284143
460.3628855146458
459.52455692820877
458.71511547464036
457.93481605899916
457.1838494780443
456.4623425385894
455.7703584030908
455.10789716259444
454.4748966361746
453.8712333949229
453.29672400741816
452.75112650259223
452.2341420451158
451.7454168176539
451.28454410344
450.85106656163134
450.4444786870804
450.0642294454764
449.7097250740493
449.38033203715963
449.07538012522497
448.7941656845784
448.53595496499
448.29998757084735
448.08548000148227
447.8916292657132
447.7176165553156
447.5626109619404
447.4257732218839
447.3062594729432
447.2032250074078
447.1158280050685
447.04323323014336
446.984615676275
446.9391641440071
446.90608473538197
446.8846042506749
446.873973472703
446.87347032451
446.8824028866365
446.90011226072227
446.9259752667431
446.95940696181316
446.9998629691847
447.0468416068246
447.0998858057201
447.15858480896264
447.2225756438364
447.291544360478
447.36522703200205
447.44341051228974
447.52593294882945
447.6126840491522
447.7036051006161
447.798688744683
447.8979785082515
448.001568095919
448.1096004483277
448.222266573085
448.33980415602906
448.46249596170026
448.5906680328088
448.72468769926786
448.8649614079808
449.01193238513093
449.16607814324186
449.327907845724
449.49795954202955
449.67679728700153
449.86500815858153
450.0631991885359
450.2719942210973
450.49203071450154
450.7239565004566
450.9684265166435
451.2260995274008
451.4976348476066
451.7836890844513
452.0849129114809
452.4019478890423
452.7354233449267
453.08595332852815
453.4541336512638
453.8405390253647
454.24572031242496
454.670201892331
455.1144791624047
455.5790161756971
456.06424342646955
456.5705557901046
457.09831062387957
457.6478260341252
458.2193793143472
458.81320555793565
459.42949644807715
460.0683992264361
460.73001584124347
461.41440227463016
462.12156804823485
462.8514759051811
463.604041665544
464.3791342516453
465.17657587879194
465.9961424062989
466.83756384292775
467.70052500031727
468.58466628745555
469.48958463877415
470.4148345680125
471.3599293395762
472.3243422488385
473.3075080027129
474.30882419176095
475.32765284510623
476.3633220593491
477.4151276925262
478.4823351140959
479.56418100201313
480.65987517812005
481.7686024733825
482.88952461478556
484.021782125951
485.164496233863
486.3167707745324
487.4776940908452
488.6463409162493
489.8217742383176
491.0030471366829
492.1892045903475
493.3792852499122
494.5723231708151
495.7673495041727
496.9633941422362
498.15948731587224
499.3546611419364
500.5479511189488
501.7383975699925
502.9250470321586
504.1069535923581
505.2831801698771
506.4527997463803
507.6148965441647
508.76856715361555
509.912921611085
511.0470844286966
512.1701955778287
513.2814114282035
514.3799056446055
515.4648700433223
516.5355154105146
517.5910722848065
518.6307917064099
519.6539459350455
520.6598291388505
521.6477580563142
522.6170726331289
523.5671366356502
524.4973382425228
525.4070906158864
526.2958324534719
527.1630285228688
528.0081701790431
528.8307758658669
529.6303916020112
530.4065914512274
531.1589779768436
531.887182680012
532.5908664209253
533.2697198219837
533.923463651719
534.5518491880753
535.1546585594245
535.7317050616074
536.2828334492006
536.8079201990415
537.3068737437709
537.7796346729498
538.2261758991046
538.6465027859717
539.0406532361864
539.4086977356606
539.7507393519653
540.0669136841116
540.3573887610182
540.6223648858745
540.8620744236866
541.0767815294067
541.2667818141588
541.432401947304
541.573999192392
541.6919608753321
541.7867037834426
541.8586734943771
541.9083436342573
541.9362150646879
541.942814998685
541.9286960458978
541.8944351877145
541.8406326830411
541.7679109057326
541.6769131148801
541.568302159451
541.4427591191184
541.3009818834606
541.1436836719256
540.9715914970426
540.7854445735059
540.585992675962
540.3739944485601
540.1502156696386
539.915427475157
539.6704045447242
539.4159232543127
539.1527598000946
538.8816882981464
538.6034788651688
538.3188956857
538.0286950715341
537.7336235191884
537.4344157712148
537.1317928870939
536.8264603295007
536.5191060719048
536.2103987334963
535.9009857473739
535.5914915678027
535.2825159222944
534.9746321142719
534.6683853820606
534.3642913197166
534.0628343649562
533.7644663592317
533.4696051848223
533.1786334836252
532.8918974621018
532.6097057865705
532.3323285727477
532.0599964732695
531.792899866709
531.5311881513591
531.2749691468077
531.0243086061354
530.7792298413593
530.5397134645245
530.3056972465852
530.0770760959658
529.8537021583949
529.6353850392453
529.4218921493766
529.2129491753581
529.0082406747799
528.8074107968915
528.6100641283581
528.4157666636015
528.2240468988439
528.03439704856
527.8462743826074
527.6591026818221
527.4722738094573
527.2851493954715
527.0970626302018
526.9073201634262
526.7152041043988
526.5199741180954
526.3208696126517
526.1171120128084
525.9079071140915
525.6924475123304
525.4699151029548
525.2394836443061
525.0003213789682
524.7515937068232
524.4924659031647
524.2221058748712
523.9396869473987
523.64439067522
523.3354096681966
523.0119504262024
522.6732361741442
522.3185096893096
521.9470361127821
521.5581057365533
521.1510367578675
520.7251779922132
520.2799115362559
519.8146553719203
519.3288659027992
518.8220404140841
518.2937194471311
517.7434890797532
517.170983103461
516.5758850890408
515.9579303320212
515.316907669735
514.652661161886
513.965091626731
513.2541580252528
512.5198786860394
511.7623323639411
510.9816591259468
510.1780610581222
509.35180278791
508.5032118165906
507.6326786572103
506.7406567738578
505.82766231880015
504.89427366463804
503.94113072927394
502.96893409216017
501.97844390095867
500.9704785684236
499.94591326000796
498.9056781734366
497.85075661231366
496.7821828567319
495.70103983463457
494.6084565984589
493.50560561240434
492.3936998564316
491.2739897538935
490.14775993055395
489.01632581363526
487.8810300803508
486.7432389661822
485.60433844397767
484.46573028577023
483.3288280199507
482.19505279705066
481.0658291779594
479.9425808589678
478.82672634859614
477.7196746116221
476.6228206961262
475.537541359828
474.4651907124492
473.40709589113044
472.36455278613266
471.33882183419064
470.3311238969106
469.3426362415233
468.3744886411789
467.4277596117847
466.50347280213583
465.60259355374535
464.72602564635247
463.87460824452796
463.0491130601827
462.2502417451365
461.4786235271204
460.73481310173077
460.0192887919265
459.33245098563435
458.6746208609244
458.0460394070384
457.44686674837845
456.87718177741704
456.3369821012799
455.8261843054038
455.34462453623087
454.89205940342407
454.4681672006949
454.0725494429481
453.7047327159742
453.3641708333981
453.0502472940976
452.76227803181337
452.4995144472296
452.26114671140186
452.04630732804424
451.8540749409111
451.6834783713343
451.5335008698063
451.40308456431165
451.2911350870403
451.1965263601918
451.118105520708
451.0546979629694
451.00511247774836
450.9681464651245
450.9425911986669
450.9272371179548
450.9208791263638
450.92232187095937
450.9303849813203
450.94390824425915
450.96175669174386
450.98282557970447
451.006045235766
451.0303857544253
451.0548615187999
451.0785355287881
451.1005235162759
451.1199978289296
451.13619106508736
451.14839944337047
451.15598589177034
451.1583828422129
451.1550947179261
451.14570010214294
451.1298535778366
451.1072872297243
451.07781180170326
451.0413175048181
450.99777447265956
450.94723286289167
450.88982260539416
450.8257527993176
450.75531076320834
450.67886074419846
450.59684229403143
450.50976832140327
450.41822283179937
450.3228583676115
450.2243931627169
450.12360802695997
450.02134297702366
449.9184936310144
449.81600738482507
449.7148793890246
449.6161483456387
449.52089214476064
449.4302233615765
449.34528463502073
449.2672439497708
449.1972898435179
449.136626561491
449.0864691801676
449.0480387219849
449.0225572826654
449.0112431924684
449.0153062322514
449.0359429246599
449.0743319201005
449.1316294964502
449.20896519068117
449.30743757969935
449.4281102266702
449.57200780802515
449.7401124352483
449.93336018439516
450.15263784506374
450.3987798992754
450.67256573941563
450.9747171330591
451.30589594115276
451.666702094646
452.0576718332535
452.479276208678
452.93191985326564
453.41594001373375
453.9316058483008
454.4791179842563
455.05860833175046
455.67014014840225
456.31370834821547
456.98924004719515
457.6965953370199
458.4355682772267
459.2058880955465
460.0072205852755
460.83916968792386
461.70127924889607
462.59303493357834
463.5138662907944
464.46314895015234
465.4402069395271
466.4443151087878
467.47470164584655
468.5305506711689
469.61100489706064
470.7151683382221
471.8421090602712
472.99086195323497
474.1604315173844
475.3497946492385
476.5579034160871
477.7836878079466
479.0260584565107
480.28390931135283
481.55612026431726
482.84155971372707
484.13908706075364
485.4475551310618
486.76581251560657
488.09270582521515
489.42708185436095
490.7677896503704
492.11368248507057
493.4636197266245
494.8164686100565
496.17110590568456
497.5264194853607
498.8813097870934
500.23469117923196
501.5854932259382
502.9326618562741
504.27516043976567
505.61197077171806
506.94209397194334
508.2645513009205
509.5783848977257
510.88265844436336
512.1764577613405
513.4588913394795
514.7290908130449
515.9862113792493
517.2294321691669
518.4579565750957
519.6710125393671
520.8678528094479
522.047755163955
523.2100226139776
524.3539835839338
525.4789920759683
526.5844278216189
527.669696424173
528.7342294948182
529.7774847853542
530.7989463198766
531.7981245274372
532.7745563772991
533.7278055179692
534.6574624207996
535.5631445285767
536.4444964091155
537.301189913494
538.1329243382232
538.9394265902857
539.7204513536093
540.4757812552066
541.205227028896
541.9086276741582
542.5858506073992
543.2367918026624
543.8613759186085
544.4595564083372
545.0313156084634
545.5766648037796
546.0956442638146
546.5883232475635
547.054799972683
547.4952015454471
547.9096838478263
548.2984313782081
548.6616570424834
548.9996018924411
549.3125348086173
549.600752124949
549.8645771929447
550.1043598835703
550.3204760253468
550.513326777289
550.6833379354824
550.8309591723435
550.9566632078916
551.0609449126493
551.1443203420637
551.2073257026232
551.2505162501084
551.2744651206731
551.2797620958073
551.2670123025612
551.2368348507133
551.1898614088806
551.1267347220034
551.0481070731099
550.9546386927037
550.8469961195509
550.7258505170549
550.5918759498029
550.4457476252422
550.2881401056915
550.119725496091
549.9411716130384
549.7531401408515
549.556284780603
549.3512493982555
549.1386661781515
548.9191537881733
548.6933155629022
548.4617377111713
548.2249875544555
547.9836118025725
547.7381348730926
547.4890572607017
547.2368539626044
546.9819729659228
546.7248338028901
546.4658261794633
546.2053086827393
545.9436075722797
545.6810156601574
545.4177912842522
545.1541573790993
544.890300648296
544.6263708422437
544.362480144718
544.0987026714607
543.8350740836856
543.5715913191201
543.3082124429151
543.0448566204736
542.781404213967
542.517697004023
542.2535385377774
541.9886946041954
541.7228938371777
541.4558284464724
541.1871550759223
540.9164957880878
540.6434391738206
540.3675415848409
540.0883284868527
539.8052959302572
539.5179121350955
539.2256191865056
538.9278348366212
538.6239544083882
538.3133527963245
537.9953865588503
537.6693960965821
537.3347079108099
536.990636936245
536.6364889419222
536.2715629939221
535.895153973343
535.5065551427626
535.1050607542373
534.6899686916628
534.2605831401379
533.8162172747992
533.3561959614697
532.8798584614179
532.3865611324725
531.8756801186386
531.3466140202852
530.7987865368289
530.2316490737779
529.6446833060139
529.0374036891077
528.4093599104701
527.7601392721363
527.0893689969603
526.3967184500073
525.6819012670338
524.9446773820883
524.1848549463929
523.4022921308488
522.5968988047146
521.7686380832045
520.9175277370194
520.0436414571146
519.1471099683472
518.22812198598
517.2869250093579
516.3238259475055
515.3391915718247
514.3334487914354
513.3070847471313
512.2606467204407
511.1947418548218
510.1100366865447
509.0072564833428
507.8871843895079
506.75066037669495
505.5985800002713
504.43189296161614
503.25160147741366
502.05875845769674
500.8544654950914
499.63987066834346
498.4161661639037
497.18458572004243
495.9464018986342
494.7029231904995
493.45549096100495
492.20547624336996
490.9542763878374
489.7033115756014
488.45402120709946
487.2078601749353
485.9662950323042
484.7308000684265
483.5028533031082
482.28393241308635
481.0755106033097
479.8790524367853
478.6960096370934
477.5278168781269
476.37588757598525
475.24160969830416
474.12634160665306
473.03140794787987
471.9580956103801
470.9076497612671
469.88126998043066
468.88010650745855
467.9052566173279
466.9577611405826
466.03860114336055
465.14869478222914
464.28889434836503
463.4599835150956
462.6626748022063
461.8976072697157
461.1653444531222
460.4663725513307
459.80109887754463
459.169850582433
458.57287365787795
458.0103322285656
457.4823081375785
456.9888008309656
456.52972754500274
456.10492379851894
455.7141441913286
455.3570635085254
455.03327812903757
454.74230773546196
454.4835973208466
454.2565194867033
454.06037702512475
453.8944057765025
453.757777753022
453.64960451683754
453.56894080056077
453.51478835645196
453.4861000194914
453.4817839684054
453.500708167715
453.541704972834
453.6035758792625
453.68509639609897
453.78502102339496
453.90208831229745
454.03502598647964
454.18255610298354
454.3434002302954
454.5162846213063
454.6999453587524
454.893133450825
455.0946198548554
455.3032004072383
455.51770063805156
455.7369804492598
455.9599386359115
456.1855172303889
456.412705650516
456.640544633094
456.8681299352412
457.0946157868912
457.31921807889915
457.5412172723319
457.75996101566085
457.9748664577136
458.1854222455525
458.3911901980726
458.5918066478956
458.78698344594784
458.9765086248908
459.16024671935
459.33813874265144
459.5102018215577
459.6765284923598
459.837285663487
459.9927132514682
460.14312249872773
460.2888939833844
460.43047533282544
460.56837865423813
460.7031776965064
460.8355047589547
460.966047363374
461.09554470664045
461.22478391204595
461.35459609817445
461.48585228485695
461.61945915637125
461.7563547026202
461.89750375945584
462.0438934696465
462.19652868616464
462.3564273394445
462.52461579015437
462.7021241888445
462.8899818635137
463.0892127557689
463.3008309257083
463.52583614502254
463.76520959716726
464.0199097027187
464.29086808714953
464.57898570733437
464.8851291521334
465.210127131325
465.55476716593165
465.9197924917348
466.3058991865309
466.7137335303604
467.14388960661427
467.5969071505188
468.07326965007076
468.5734027030119
469.09767263204833
469.64638535923507
470.21978553904773
470.81805594823584
471.44131712930357
472.0896272832776
472.76298240614295
473.46131666218554
474.1845029864705
474.93235390766563
475.70462258148075
476.50100402416126
477.3211365347644
478.16460329433306
479.03093412947464
479.91960742727383
480.830052188067
481.76165020232895
482.7137383376929
483.6856109220368
484.6765222086026
485.68568890914725
486.7122927811138
487.7554832549406
488.8143800879213
489.88807603136945
490.97563949825604
492.0761172190047
493.1885368737249
494.31190968978075
495.44523299422633
496.5874927113881
497.73766579674646
498.89472259913714
500.05762914412566
501.22534933215746
502.3968470458536
503.57108816159734
504.7470424613396
505.9236854414053
507.10000001601634
508.2749781141142
509.44762216884976
510.6169464998305
511.78197858889473
512.9417602508743
514.0953487015033
515.2418175252283
516.3802575461974
517.5097776062261
518.6295052540236
519.7385873504292
520.8361905947158
521.921501977345
522.9937291648145
524.0521008225047
525.0958668815965
526.1242987561241
527.1366895161605
528.1323540230868
529.1106290328894
530.0708732733789
531.0124675010597
531.9348145431306
532.8373393298746
533.7194889224095
534.580732540398
535.4205615939528
536.2384897236319
537.0340528520343
537.8068092500539
538.5563396203988
539.2822472004909
539.9841578863933
540.6617203789879
541.314606353153
541.9425106501596
542.5451514930498
543.122270724341
543.6736340649019
544.1990313923669
544.6982770370556
545.1712100929543
545.6176947409037
546.0376205807803
546.4309029690812
546.7974833580174
547.137329631947
547.4504364367574
547.7368254976101
547.9965459203218
548.2296744715458
548.4363158328403
548.6166028236717
548.7706965884144
548.898786742501
549.0010914731045
549.0778575898374
549.1293605211205
549.1559042521426
549.1578212006914
549.1354720276249
549.0892453791267
549.0195575581007
548.9268521221879
548.8115994060988
548.6742959662649
548.5154639461914
548.3356503612473
548.1354263019374
547.9153860549828
547.6761461418847
547.4183442750495
547.1426382319099
546.849704647845
546.5402377291546
546.2149478878431
545.8745603004261
545.5198133934268
545.1514572587434
544.770252002554
544.3769660318823
543.9723742833794
543.5572563992971
543.1323948559458
542.6985730502201
542.2565733500988
541.8071751153077
541.351152694576
540.8892734060923
540.4222955079058
539.9509661651422
539.4760194211318
538.9981741796553
538.5181322056268
538.0365761515721
537.5541676172758
537.0715452498617
536.5893228914233
536.1080877812026
535.6283988191658
535.1507848976271
534.6757433074026
534.20373822475
533.7351992850787
533.2705202491849
532.8100577675467
532.3541302479424
531.9030168313856
531.456956481099
531.0161471890166
530.5807453039297
530.1508649851372
529.7265777853066
529.307912365851
528.8948543477213
528.4873463002642
528.0852878704632
527.6885360544162
527.2969056124402
526.9101696286882
526.528060215571
526.150269362682
525.7764499293745
525.4062167797197
525.0391480581208
524.6747866032916
524.3126414977862
523.9521897498123
523.5928781034553
523.2341249728045
522.8753224950004
522.5158386969251
522.1550197699798
521.7921924471455
521.426666476209
521.0577371827167
520.6846881158689
520.3067937702399
519.9233223758542
519.5335387488651
519.1367071948014
518.7320944560488
518.3189726948779
517.8966225030144
517.4643359285935
517.0214195112165
516.5671973157185
516.10101395516
515.6222375932944
515.130262916524
514.6245140652007
514.104447514104
513.5695548919208
513.0193657295356
512.4534501268879
511.8714213281448
511.2729381950612
510.65770756857006
510.0254865087713
509.3760844036663
508.70936493716624
508.0252479071279
507.32371088451595
506.60479070518096
505.86858478603233
505.11525225767195
504.34501490603014
503.55815791610013
502.7550304114519
501.9360457837631
501.10168180714214
500.2524805325914
499.3890479585645
498.51205347428777
497.6222290732363
496.7203683348871
495.807325173657
494.8840123547052
493.9513997771402
493.0105125260833
492.0624286958653
491.10827698747124
490.14923408426995
489.1865218109256
488.2214040812033
487.25518364131057
486.2891986163521
485.32481886842857
484.3634421759037
483.4064902443543
482.4554045605704
481.5116421018279
480.5766709135022
479.6519655688739
478.7390025257913
477.83925539560545
476.95419014041477
476.0852602152635
475.2339016725737
474.40152824663545
473.5895264365415
472.7992506064262
472.0320181221715
471.2891045440458
470.5717388949622
469.8810990241314
469.21830708593734
468.58442515378783
467.98045098848326
467.4073139803523
466.8658712839635
466.35690416369783
465.8811145679651
465.4391219493289
465.03146034715365
464.65857574855437
464.3208237424823
464.01846748077804
463.7516759590009
463.5205226287395
463.3249843518821
463.16494070593745
463.0401736480605
462.950367544004
462.8951095667026
462.8738904676225
462.8861057224662
462.93105705120166
463.0079543106323
463.1159177560338
463.2539806667696
463.4210923291036
463.6161213676938
463.83785941558494
464.0850251108921
464.35626840671597
464.6501751792314
464.965272117392
465.3000318763234
465.6528784751529
466.02219291870307
466.40631902115075
466.8035694085648
467.2122316762457
467.63057467588044
468.05685490665945
468.4893229839151
468.9262301584668
469.3658348594702
469.80640923330134
470.24624565095036
470.6836631564604
471.1170138290958
471.54468903212296
471.96512552139285
472.37681138743903
472.77829180544074
473.168174568268
473.5451353787561
473.9079228782131
474.2553633891619
474.5863653514434
474.8999234320315
475.19512229034694
475.47113998243304
475.7272509888478
475.96282885268744
476.17734841589356
476.37038764389854
476.541629030662
476.69086057827633
476.8179763475269
476.9229765779431
477.00596737790124
477.06715998744266
477.10686961863104
477.1255138803217
477.1236107962545
477.10177642751864
477.06072211252024
477.0012513393371
476.9242562668531
476.83071391240094
476.7216820248054
476.5982946628842
476.4617575005701
476.3133428808489
476.1543846416806
475.98627273798974
475.81044768457065
475.62839484526893
475.4416385941858
475.25173637503224
475.0602726849429
474.8688530090356
474.6790977319354
474.4926360521978
474.3110999251492
474.1361180592186
473.96930999025153
473.8122802575779
473.6666127047096
473.5338649265515
473.41556288406395
473.31319570631774
473.22821069872
473.16200857484523
473.1159389278826
473.09129595627667
473.0893144566685
473.1111660957205
473.15795597091244
473.23071946878974
473.33041942744194
473.4579436084486
473.6141024821276
473.7996273283839
474.01516865386327
474.2612949245007
474.53849161096906
474.84716054307216
475.18761956785926
475.56010250504625
475.96475939208955
476.4016570100725
476.8707796805103
477.3720303221919
477.905231756283
478.47012824701693
479.06638726444817
479.69360145514685
480.3512908063078
481.03890498837774
481.7558258610471
482.50137012735973
483.27479212071233
484.0752867096138
484.9019923051248
485.7539939559297
486.63032651614265
487.5299778712196
488.4518922076777
489.3949733127957
490.3580878910418
491.3400688845616
492.33971878568894
493.3558129301906
494.38710276062574
495.4323190498458
496.4901750754493
497.55936973681156
498.63859060706204
499.7265169132522
500.8218224387938
501.9231783429541
503.0292558929044
504.13872910457354
505.25027728931155
506.3625875041676
507.4743569043087
508.58429499674264
509.6911257952022
510.79358987663346
511.89044634015505
512.9804746697388
514.0624765022466
515.1352773028251
516.1977279500146
517.2487062332099
518.2871182652787
519.3118998133235
520.3220175507896
521.3164702343485
522.2942898089907
523.2545424445656
524.196329506855
525.1187884661485
526.0210937462103
526.9024575164677
527.7621304300451
528.5994023099901
529.4136027858092
530.2041018822368
530.9703105618208
531.7116812225853
532.4277081517679
533.1179279363486
533.781919830709
534.4193060813941
535.0297522086178
535.6129672438482
536.1687039225808
536.6967588311416
537.196972506117
537.669229484794
538.1134583048896
538.5296314515912
538.9177652496564
539.2779196982427
539.6101982460125
539.9147475038462
540.1917568923355
540.4414582212737
540.664125198569
540.8600728662091
541.029656960985
541.1732731977492
541.2913564731007
541.38437998753
541.4528542844323
541.4973262047941
541.5183777567063
541.5166248992683
541.4927162408209
541.447331651747
541.381180792465
541.295001557693
541.1895584385378
541.0656408043927
540.9240611070654
540.7656530099647
540.5912694455029
540.40178060415
540.1980718588983
539.9810416291641
539.751599188472
539.5106624207144
539.2591555300767
538.9980067098766
538.7281457757157
538.4505017686488
538.166000534457
537.8755622854779
537.5800991518698
537.2805127295179
536.9776916320152
536.6725090542893
536.3658203555395
536.0584606692026
535.7512425476801
535.4449536496694
535.140354478011
534.8381761759125
534.5391183893198
534.2438472030929
533.9529931584307
533.667149358841
533.3868696717519
533.1126670325646
532.8450118577155
532.5843305730524
532.3310042634727
532.0853674493103
531.8477069943733
531.61826115003
531.3972187394065
531.1847184853219
530.9808484851537
530.785645835361
530.5990964079442
530.4211347807151
530.2516443227349
530.0904574357089
529.9373559517287
529.7920716873242
529.6542871532629
529.5236364190808
529.3997061309665
529.2820366812507
529.1701235273903
529.0634186579381
528.9613322025326
528.8632341824078
528.7684563974391
528.6762944453495
528.5860098682372
528.4968324211493
528.4079624570674
528.3185734223619
528.2278144564619
528.1348130891234
528.0386780281907
527.9385020302346
527.8333648460388
527.7223362325917
527.6044790229531
527.4788522450106
527.3445142800146
527.2005260518376
527.0459542379562
526.8798744932772
526.7013746780528
526.5095580810788
526.3035466292606
526.082484074534
525.8455391490546
525.5919086795496
525.3208206518273
525.031537216553
524.7233576273536
524.395621102291
524.0477095998974
523.6790505011465
523.2891191887742
522.8774415155432
522.4435961533379
521.9872168152325
521.5079943428099
521.0056786510962
520.4800805235891
519.9310732501957
519.3585941012503
518.7626456310456
518.1432968046887
517.5006839425474
516.8350114770238
516.1465525168176
515.4356492142132
514.7027129313389
513.9482242018126
513.1727324846374
512.3768557075521
511.56127959743367
510.7267567959574
509.8741057594743
509.0042094426953
508.11801376634764
507.2165258696012
506.3008121487623
505.37199608442677
504.4312558600054
503.47982177519555
502.51897345861613
501.550036884623
500.5743812000701
499.5934153673727
498.60858463085884
497.62136681415325
496.6332684570975
495.6458208014876
494.66057563571377
493.6791010091354
492.70297682775146
491.7337903433706
490.77313154907046
489.822588494259
488.88374253328874
487.95816352223824
487.04740497903373
486.1529992225962
485.2764525072409
484.41924016903954
483.58280180116213
482.76853647539133
481.97779802720004
481.21189042199705
480.4720632203048
479.75950715973477
479.07534987164786
478.4206517502391
477.7964019915376
477.203514819544
476.6428259163923
476.1150890731019
475.6209730771071
475.16105885225596
474.7358368663667
474.34570482064447
473.9909656342907
473.67182573662103
473.38839367799164
473.14067906975424
472.9285918623245
472.7519419692924
472.6104392443531
472.5036938165324
472.4312167876684
472.39242129464395
472.3866239374374
472.4130465726038
472.47081847027493
472.558978831152
472.6764796584297
472.82218897797395
472.9948943983952
473.1933070010783
473.4160655487678
473.6617409997797
473.92884131338263
474.2158165304533
474.5210641120508
474.84293451704235
475.1797369985413
475.52974559773463
475.891205312591
476.2623384178743
476.641350911893
477.02643906461697
477.41579604121233
477.807618574445
478.20011365882374
478.5915052390833
478.98004086565214
479.3639982898781
479.7416919718119
480.1114794733705
480.47176771000875
480.82101903450786
481.15775712707637
481.4805726666092
481.7881287586276
482.0791660963374
482.352507832416
482.60706414026095
482.8418364445422
483.0559213021657
483.2485139161448
483.4189112663321
483.5665148425855
483.6908329676841
483.7914826990866
483.8681913004859
483.9207972760823
483.9492509625724
483.9536146759548
483.93406241240433
483.8908791045751
483.8244594366788
483.735306223714
483.6240283623652
483.4913383632501
483.3380494763245
483.1650724233524
482.9734117533774
482.76416183893815
482.5385025323165
482.29769450251564
482.04307427490016
481.77604899649253
481.49809095088125
481.2107318474659
480.91555691040475
480.614198793342
480.3083313467319
479.9996632651277
479.68993164215726
479.3808954611141
479.0743290490936
478.7720155225022
478.47574025165693
478.18728437187724
477.90841836782784
477.6408957571317
477.3864468985477
477.1467729491698
476.92353999404094
476.7183733703899
476.53285220753986
476.3685042024005
476.2268006492705
476.1091517411978
476.0169021584221
475.95132695779154
475.91362777545595
475.90492935343434
475.92627639887894
475.97863078305016
476.0628690852949
476.17978048563856
476.33006500788326
476.5143321134389
476.7330996446401
476.98679311480896
477.27574534067304
477.60019641119385
477.96029398547006
478.3560939109629
478.78756115190527
479.2545710164063
479.7569106695874
480.29428091899433
480.8662982576214
481.47249714910765
482.112332538892
482.7851825745212
483.49035151792464
484.22707283218716
484.9945124251292
485.79177203184105
486.61789271823824
487.4718584876952
488.35259997290774
489.2589981953623
490.18988837515025
491.1440637743512
492.12027955776074
493.11725665525864
494.13368561069717
495.1682304028265
496.21953222450924
497.2862132073271
498.36688007957446
499.46012774663564
500.56454278374565
501.67870683208884
502.801199890135
503.930603493092
505.0655037743076
506.20449440333704
507.34617939638673
508.4891757959155
509.6321162171348
510.77365125994646
511.9124517855616
513.0472110577143
514.1766467490698
515.2995028140865
516.4145512302974
517.5205936107483
518.6164626909815
519.7010236944761
520.7731755809426
521.8318521823495
522.8760232318772
523.9046952911539
524.9169125812713
525.9117577231964
526.8883523932775
527.8458578995106
528.7834756841419
529.7004477580421
530.5960570721618
531.4696278311455
532.3205257538988
533.1481582856487
533.9519747657541
534.7314665551324
535.4861671268269
536.2156521228588
536.9195393800296
537.5974889268956
538.2492029537974
538.8744257575102
539.4729436616385
540.0445849134651
540.589219557556
541.1067592860143
541.5971572647966
542.0604079350117
542.4965467877375
542.9056501106771
543.2878347046172
543.6432575672434
543.9721155415154
544.2746449256024
544.5511210412199
544.801857757148
545.0272069646124
545.2275580011162
545.403337019341
545.5550062978822
545.6830634907093
545.7880408123342
545.8705041558463
545.9310521413224
545.9703150924569
545.9889539395643
545.9876590474325
545.9671489668639
545.9281691090521
545.87149034229
545.7979075109408
545.7082378770336
545.6033194851851
545.4840094518942
545.3511821806834
545.2057275050292
545.0485487615866
544.8805607967539
544.7026879099993
544.5158617376936
544.3210190815919
544.1190996865014
543.9110439719901
543.6977907232764
543.4802747468963
543.259424497278
543.0361596807998
542.8113888443039
542.5860069553145
542.3608929815334
542.1369074775075
541.9148901865187
541.695657665766
541.4800009430378
541.2686832131975
541.0624375828581
540.8619648716411
540.6679314783864
540.4809673205318
540.3016638547637
540.1305721869328
539.96820127904
539.815016260812
539.6714368530089
539.5378359092109
539.4145380825029
539.3018186231435
539.1999023128354
539.1089625406029
539.0291205248045
538.9604446855236
538.9029501711958
538.8565985427513
538.8212976179112
538.796901477732
538.7832106370746
538.7799723802087
538.7868812622523
538.8035797766073
538.8296591880581
538.8646605305946
538.908075768472
538.9593491185362
539.0178785312658
539.0830173274595
539.1540759870181
539.230324085789
539.3109923759627
539.3952750051022
539.4823318684189
539.5712910883575
539.6612516149479
539.7512859398695
539.8404429166633
539.9277506790513
540.0122196488877
540.0928456248935
540.1686129430836
540.2384976996191
540.3014710266391
540.3565024115605
540.4025630502988
540.438629224845
540.463685695585
540.476729098721
540.4767713391445
540.4628429690483
540.4339965425078
540.3893099362423
540.3278896267358
540.2488739138647
540.1514360811578
540.0347874828758
539.8981805482565
539.7409116934488
539.5623241318247
539.3618105735559
539.1388158056594
538.8928391439985
538.6234367488962
538.3302237962249
538.0128764961491
537.6711339520251
537.304799852347
536.9137439890197
536.4979035955898
536.0572844994208
535.5919620821819
535.1020820434079
534.5878609622798
534.0495866531309
533.4876183106261
532.9023864410669
532.2943925767917
531.6642087711804
531.0124768723826
530.339907574452
529.6472792452174
528.9354365308895
528.2052887380794
527.4578079945381
526.6940271905627
525.9150377037481
525.1219869104954
524.3160754883913
523.4985545142771
522.6707223635412
521.8339214168993
520.9895345816843
520.1389816354188
519.2837154001951
518.4252177570892
517.5649955105229
516.70457611317
515.8455032627191
514.9893323825282
514.1376259989489
513.2919490287586
512.4538639907898
511.62492615637245
510.80667865371413
510.00064754189447
509.20833687063123
508.4312237424583
507.6707533943368
506.9283343160125
506.2053334226845
505.50307129978256
504.822817537769
504.1657861749685
503.5331312664542
502.925942597005
502.3452415560166
501.79197719202017
501.26702246415414
500.771170707561
500.30513232920043
499.8695317500014
499.4649046087326
499.0916952423593
498.75025445684724
498.44083760153126
498.1636029592876
497.91861046373504
497.7058207535756
497.52509457300295
497.37619252579964
497.25877518935397
497.17240359346215
497.11654006733414
497.0905494567103
497.0937007114862
497.1251688427127
497.1840372463161
497.26930038928265
497.37986685234705
497.51456272155497
497.6721353194785
497.8512572653056
498.0505308514461
498.2684927227188
498.50361884274696
498.75432973077864
499.0189959507233
499.29594383284183
499.5834614072429
499.8798045271076
500.18320315843806
500.49186781211915
500.80399609320875
501.11777934157885
501.43140933738795
501.7430850443936
502.051019363831
502.35344587141515
502.6486255099115
502.9348532096399
503.2104644093652
503.4738414503058
503.7234198163272
503.95769419376046
504.17522432483486
504.37464062951085
504.55464957150315
504.7140387453638
504.851681662583
504.96654221576824
505.0576788011728
505.12424808124223
505.1655083703172
505.1808226281775
505.1696610477169
505.1316032247663
505.0663398999761
504.9736742645781
504.8535228237693
504.7059158134745
504.53099716834066
504.32902404092243
504.1003658741913
503.84550303177764
503.56502499265025
503.25962811917077
502.9301130096276
502.57738144845456
502.2024329692913
501.8063610478239
501.39034894289813
500.95566520580724
500.50365887895947
500.035754406265
499.5534462785051
499.0582934378017
498.55191346610474
498.0359765834008
497.5121994820745
496.982339024464
496.44818583113397
495.911557787736
495.37429349852584
494.8382457146778
494.30527476542363
493.77724201969147
493.2560034053664
492.74340301263794
492.24126680716097
491.75139647795714
491.27556344400625
490.8155030423553
490.372908919421
489.94942764593105
489.5466535746225
489.16612395839627
488.8093143451024
488.4776342636177
488.17242321431615
487.89494697539334
487.646394234818
487.42787355596676
487.2404106832922
487.0849461926719
486.96233348933646
486.87333715455105
486.81863164060667
486.79880031205704
486.81433482955066
486.8656348710617
486.95300818379013
487.07667095854083
487.2367485170206
487.43327630125316
487.6662011531959
487.93538287158714
488.24059603204785
488.5815320555208
488.9578015093448
489.36893662463626
489.81439401308364
490.29355756587336
490.8057415171842
491.35019365441644
491.9260986571677
492.5325815469791
493.1687112299892
493.8335041148334
494.52592778841813
495.2449047325274
495.9893160646419
496.75800528685454
497.5497820274163
498.3634257601925
499.1976894879822
500.05130337643004
500.92297832614
501.8114094715129
502.7152795957298
503.63326245225693
504.56402598424825
505.50623543424155
506.45855633753933
507.4196573935928
508.3882132106037
509.36290691951064
510.3424326544408
511.32549789762305
512.3108256876965
513.297156691281
514.2832511384955
515.2678906237838
516.2498797740029
517.2280477863951
518.2012498396039
519.1683683814329
520.1283142975369
521.080027965653
522.0224802003332
522.954673093458
523.8756407561008
524.7844499674759
525.6802007368383
526.5620267843066
527.4290959465667
528.2806105133404
529.115807500353
529.9339588643747
530.7343716658297
531.516388184306
532.2793859920516
533.0227779902547
533.7460124126267
534.4485728004818
535.1299779530541
535.7897818563692
536.4275735935389
537.0429772388668
537.6356517377208
538.2052907737595
538.7516226247188
539.2744100075485
539.7734499132484
540.2485734313086
540.6996455632354
541.126565024228
541.5292640316708
541.9077080787346
542.2618956910131
542.5918581638389
542.8976592777102
543.1793949890994
543.4371930938072
543.6712128599117
543.8816446273252
544.068709370922
544.2326582241649
544.3737719601087
544.4923604267266
544.5887619336586
544.6633425877475
544.7164955749311
544.7486403863236
544.7602219866357
544.7517099233637
544.7235973755202
544.6764001409283
544.6106555614001
544.5269213856169
544.4257745699795
544.3078100180462
544.1736392594547
544.0238890694707
543.8592000306116
543.6802250381148
543.487627751278
543.2820809929699
543.0642650998655
542.8348662263156
542.5945746051668
542.3440827692168
542.0840837374142
541.8152691703327
541.53832749993
541.2539420390199
540.9627890762774
540.6655359628954
540.362839197228
540.0553425138921
539.7436749839245
539.428449132713
539.1102590825053
538.7896787263332
538.4672599401904
538.1435308402465
537.8189940918791
537.4941252772472
537.1693713280757
536.8451490301551
536.5218436058241
536.1998073804413
535.879358538611
535.5607799756793
535.2443182497578
534.9301826392395
534.6185443104815
534.3095355999845
534.0032494149764
533.699738755861
533.3990163636597
533.1010544951813
532.8057848282583
532.5130984989919
532.2228462726189
531.9348388492213
531.6488473051331
531.3646036705433
531.081801643396
530.8000974391671
530.5191107755433
530.2384259905633
529.9575932922507
529.6761301373226
529.393522736107
529.1092276802437
528.822673689211
528.5332634712892
528.2403756942434
527.9433670605076
527.6415744811279
527.3343173423084
527.020899858015
526.7006135017682
526.3727395105693
526.0365514538111
525.6913178598927
525.3363048930893
524.9707790729977
524.594010028669
524.2052732793686
523.8038530338159
523.3890449996478
522.960159194685
522.5165227514799
522.0574827066639
521.5824087665972
521.0906960407664
520.5817677343581
520.0550777914684
519.5101134804155
518.9463979126044
518.36349248643
517.7609992477294
517.1385631584243
516.4958742651626
515.832669759968
515.1487359251475
514.4439099548827
513.7180816460631
512.9711949511587
512.2032493861923
511.41430128724846
510.60446490933646
509.7739133617805
508.922879374703
508.05165589157605
507.16059648323676
506.25011557921164
505.32068851266456
504.3728513757572
503.40720068268854
502.4243928382661
501.42514341045313
500.41022620585625
499.38047214766584
498.3367679561992
497.2800546328907
496.21132574923195
495.131625542746
494.04204682267584
492.94372868870613
491.8378540666896
490.72564706601395
489.6083701639708
488.48732122324424
487.3638303493748
486.239256595767
485.1149845245651
483.99242063240035
482.87298965064906
481.75813073045896
480.6492935233975
479.5479341692036
478.4555112027739
477.3734813930887
476.3032955273058
475.2463941537072
474.2042032976408
473.17813016506517
472.16955884870913
471.1798460521451
470.2103168473085
469.262260481194
468.3369262476237
467.435519440074
466.5591974015758
465.7090656876873
464.88617435845754
464.0915144151307
463.3260143970716
462.59053715403536
461.8858768085046
461.21275592232905
460.5718228813653
459.9636495112298
459.38872893658396
458.8474736956625
458.34021412099366
457.86719699630083
457.4285844985237
457.0244534328298
456.65479476742007
456.3195134738484
456.0184286773403
455.75127412031094
455.51769894098555
455.3172687677081
455.14946712819284
455.0136971716017
454.90928369991343
454.83547550371173
454.7914479961621
454.7763061375048
454.78908764096144
454.82876644960334
454.8942564724464
454.9844155667456
455.098049752208
455.23391764164535
455.39073507143047
455.56717991402604
455.7618970538401
455.9735035067197
456.2005936625546
456.44174462974416
456.69552165968486
456.9604836289874
457.23518855679293
457.5181991342675
457.80808824316733
458.10344444028385
458.4028773846002
458.7050231841435
459.0085496397341
459.31216136311036
459.6146047473585
459.91467276816763
460.2112095951639
460.50311499339034
460.78934849579196
461.06893332841753
461.34096007106893
461.6045900371738
461.85905835780653
462.1036767560497
462.33783599918013
462.56100801740837
462.7727476793057
462.97269421571986
463.1605722857804
463.33619268041195
463.4994526606384
463.65033592973117
463.7889122399761
463.91533663670276
464.0298483441085
464.1327692991754
464.22450234170793
464.30552907032796
464.37640737608274
464.4377686669231
464.490314797743
464.53481472193664
464.572100881492
464.60306535350134
464.62865577175745
464.64987104291663
464.66775687751203
464.68340115686925
464.6979291576159
464.71249865594433
464.72829493417225
464.74652571251295
464.76841602907103
464.7952030909926
464.828131119534
464.868446211546
464.91739123952556
464.9762008119613
465.0460963151663
465.1282810572103
465.223935533873
465.33421283574137
465.4602342146795
465.6030848269363
465.7638096689993
465.9434097210584
466.14283831178807
466.36299771693973
466.6047360028803
466.8688441248121
467.1560532880519
467.4670325793417
467.8023868737214
468.16265502103096
468.54830831466603
468.959749243783
469.3973105287562
469.8612544382979
470.3517723853248
470.8689847973878
471.4129412561864
471.98362089944084
472.5809330773039
473.2047182544831
473.85474914823703
474.530732091441
475.2323086090544
475.9590571956453
476.71049528103316
477.48608137059114
478.2852173462835
479.10725091413076
479.9514781834715
480.81714636317713
481.703456559868
482.6095666631599
483.53459430300296
484.4776198643012
485.43768954423786
486.4138184380729
487.40499363958094
488.41017734273186
489.42830993168553
490.45831304672566
491.49909261436625
492.5495418305438
493.60854408652904
494.67497582789315
495.74770933760675
496.8256154351644
497.90756608447373
498.9924369040657
500.07910957402976
501.16647413490546
502.25343117459596
503.3388939002055
504.4217900924894
505.501063941383
506.57567776184186
507.64461358996255
508.70687466003085
509.7614867637854
510.80749949372233
511.8439873728074
512.8700508735141
513.8848173295669
514.8874417441681
515.8771074988355
516.8530269672787
517.814442039049
518.7606245579767
519.6908766805775
520.604531159765
521.5009515592959
522.3795324044494
523.2396992744472
524.080908842065
524.902648865744
525.7044381393425
526.4858264044523
527.2463942299884
527.9857528635779
528.7035440590406
529.3994398839135
530.0731425106286
530.7243839946166
531.3529260422443
531.9585597712058
532.5411054656707
533.1004123281305
533.6363582294578
534.1488494583182
534.6378204706845
535.1032336398262
535.5450790067308
535.963374030442
536.3581633373909
536.7295184685229
537.0775376227898
537.4023453953217
537.7040925083203
537.9829555324035
538.2391365959268
538.4728630797063
538.6843872944653
538.8739861381699
539.0419607303307
539.1886360202786
539.3143603664424
539.4195050837681
539.5044639565646
539.5696527142412
539.615508467565
539.6424891031919
539.651072634435
539.6417565065187
539.6150568548724
539.5715077152062
539.5116601842715
539.4360815304058
539.3453542531388
539.2400750913974
539.1208539801794
538.9883129558254
538.8430850102382
538.6858128946355
538.5171478737116
538.3377484313028
538.1482789288813
537.9494082185007
537.7418082121548
537.5261524098614
537.3031143891909
537.0733662594506
536.8375770841774
536.5964112759633
536.3505269679578
536.1005743665928
535.8471940902878
535.5910154991503
535.3326550208716
535.0727144781217
534.8117794229264
534.5504174837108
534.289176730847
534.0285840666645
533.7691436459586
533.5113353330279
533.2556132012687
533.0024040812818
532.7521061633523
532.5050876600287
532.2616855343442
532.022204298973
531.7869148914677
531.5560536305611
531.3298212582522
531.108382072147
530.8918631523294
530.6803536868184
530.4739043993725
530.2725270830315
530.0761942425224
529.8848388483995
529.6983542055249
529.5165939381903
529.3393720938549
529.1664633671809
528.9976034457006
528.8324894780937
528.6707806658275
528.5120989786545
528.3560299940493
528.2021238602171
528.049896381834
527.898830227252
527.7483762554593
527.5979549606177
527.4469580315589
527.2947500231439
527.1406701359303
526.984034100147
526.8241361595611
526.660251150376
526.4916366698432
526.3175353288682
526.1371770825967
525.9497816327556
525.7545608952856
525.550721526617
525.3374675017492
525.1140027371246
524.8795337511292
524.6332723548645
524.3744383657281
524.1022623361794
523.8159882899096
523.5148764575423
523.1982060039422
522.865277739132
522.5154168047171
522.1479753276607
521.7623350331658
521.3579098083708
520.9341482085044
520.4905358971164
520.0265980120364
519.5419014488069
519.0360570534269
518.5087217163605
517.9596003598932
517.3884478111216
516.795070553079
516.1793283467973
515.5411357173398
514.8804632970928
514.1973390198687
513.4918491596926
512.7641392085875
512.014414588043
511.2429411892361
510.4500457374821
509.6361159768687
508.80160067149137
507.9470094201857
507.07291228213785
506.1799392112902
505.268779298029
504.3401798172566
503.39494508259804
502.4339351071156
501.4580640714871
500.4682986012419
499.46565585534
498.45120142904057
497.42604707469053
496.39134824475326
495.348301462014
494.29814152253
493.24213853759835
492.1815948217548
491.1178416345088
490.0522357841833
488.98615610291847
487.92099980260053
486.8581787221635
485.7991154773301
484.745239524403
483.6979831502099
482.65877740082294
481.6290479621888
480.6102110062765
479.6036690167638
478.6108066086294
477.6329863563394
476.67154464561867
475.72778756401704
474.80298684568623
473.8983758858965
473.01514584084293
472.15444182820113
471.31735924375
470.5049402092419
469.7181701665306
468.957974632702
468.2252161305463
467.5206913082472
466.8451282617177
466.19918407242244
465.5834425728451
464.9984123510449
464.44452500498886
463.92213365649127
463.431511733651
462.9728520297105
462.5462660452449
462.1517836195149
461.7893528556942
461.45884034348757
461.16003168140753
460.8926322997341
460.6562685839325
460.4504892969803
460.2747672976721
460.12850155064467
460.01101942256844
459.92157925764434
459.8593732242794
459.82353042357676
459.81312024899194
459.82715598526033
459.86459863347835
459.9243609480698
460.0053116702887
460.10627994188684
460.2260598816179
460.36341530636605
460.51708457789255
460.6857855554576
460.8682206339452
461.0630818466151
461.2690560112292
461.4848298980896
461.70909539841466
461.94055467139947
462.1779252482917
462.41994507194653
462.6653774505391
462.91301590437274
463.1616888850725
463.4102643469276
463.657654150814
463.9028182818308
464.14476886251515
464.3825739442744
464.6153610605428
464.84232052617006
465.062708468648
465.2758495779773
465.4811395631235
465.67804730410535
465.86611669000314
466.044968134669
466.21429976355535
466.3738882667505
466.52358941500745
466.6633382372312
466.79314885955944
466.9131140078407
467.0234041769923
467.12426647243046
467.21602313046486
467.2990697261307
467.37387307852373
467.4409688652941
467.5009589593832
467.5545085022711
467.60234272905586
467.64524356162445
467.6840459869804
467.71963423853447
467.7529377988629
467.7849272430638
467.81660994239536
467.8490256482942
467.88324197723875
467.9203498172144
467.9614586766318
468.00769199651165
468.0601824466138
468.1200672260112
468.18848338834687
468.2665632117009
468.35542963257853
468.4561917630059
468.5699405091003
468.69774430874577
468.84064500515615
468.99965387224154
469.175747806724
469.36986570091824
469.5829050090658
469.81571851902174
470.0691113398703
470.3438381147746
470.640600467138
470.9600446869192
471.30275966263576
471.66927506326334
472.06005977293205
472.47552058004254
472.9160011211169
473.38178107840406
473.87307562903203
474.39003514236407
474.9327451211329
475.50122638084736
476.0954354609609
476.715265260338
477.36054588861913
478.0310457241864
478.72647266866
479.4464755871951
480.1906459232749
480.9585194761945
481.7495783290062
482.5632529143608
483.3989242054501
484.25592601904634
485.1335474175369
486.03103519685067
486.94759644720693
487.88240117375614
488.8345849643435
489.80325169183146
490.7874762387333
491.78630723229844
492.79876977861517
493.82386818481535
494.8605886590149
495.9079019781904
496.96476611484593
498.0301288139779
499.10293011248274
500.18210479381213
501.2665847713779
502.3553013949165
503.4471876746866
504.54118041906816
505.63622228181384
506.7312637159401
507.8252648320175
508.91719715928235
510.0060453085789
511.0908085367504
512.1705022127596
513.2441591864047
514.3108310609642
515.3695893715901
516.4195266717389
517.4597575303388
518.4894194426788
519.507673658263
520.513705929189
521.5067271828691
522.4859741230789
523.4507097634687
524.4002238977391
525.3338335107218
526.250883134601
527.150745154523
528.0328200677707
528.8965367006087
529.7413523868311
530.5667531118928
531.3722536262612
532.1573975313626
532.921757341299
533.6649345232387
534.3865595190842
535.0862917507607
535.763819611234
536.4188604430675
537.0511605059905
537.6604949346423
538.2466676873215
538.8095114862492
539.3488877495683
539.8646865150708
540.3568263553691
540.8252542839164
541.2699456509786
541.6909040283209
542.0881610810678
542.4617764249602
542.8118374670379
543.1384592275898
543.4417841410561
543.7219818334758
543.979248874032
544.2138084982362
544.4259103002065
544.6158298914713
544.7838685237449
544.9303526732474
545.0556335843102
545.1600867701521
545.2441114688137
545.3081300523983
545.3525873880347
545.377950149304
545.3847060771586
545.3733631895434
545.3444489390714
545.2985093182651
545.2361079120451
545.1578248974085
545.064255990452
544.9560113411009
544.8337143761747
544.6980005916843
544.5495162954335
544.3889173012162
544.2168675761025
544.0340378424942
543.8411041369005
543.6387463277189
543.4276465946606
543.2084878727785
542.9819522643816
542.7487194224428
542.5094649094093
542.2648585355771
542.015562681456
541.7622306087688
541.5055047648797
541.2460150855493
540.9843773010676
540.7211912510039
540.4570392129774
540.1924842509594
539.9280685886578
539.6643120135437
539.4017103170792
539.1407337767098
538.8818256851487
538.6254009323985
538.3718446459073
538.1215108941204
537.8747214585642
537.6317646794222
537.3928943792577
537.1583288692202
536.9282500418257
536.7028025542004
536.4820931054492
536.2661898115362
536.0551216808184
535.8488781931277
535.6474089850431
535.4506236437321
535.2583916115117
535.0705422030195
534.8868647365833
534.7071087810499
534.5309845190679
534.3581632275667
534.1882778758945
534.0209238417642
533.855659744922
533.6920083982595
533.5294578758159
533.3674626967035
533.2054451235416
533.042796573551
532.878879140004
532.713027221316
532.5445492547104
532.3727295510784
532.196830227211
532.0160932311293
531.8297424558708
531.6369859367362
531.4370181266302
531.2290222438088
531.0121726860922
530.7856375054013
530.5485809362949
530.3001659720085
530.039556981347
529.7659223596792
529.4784372071048
529.176286026741
528.8586654359486
528.5247868832142
528.173879363259
527.805192122842
527.4179973496865
527.0115928369507
526.5853046157043
526.1384895478362
525.670537871684
525.1808756925914
524.6689674106241
524.1343180777271
523.5764756765811
522.9950333134227
522.3896313171471
521.7599592371066
521.1057577321867
520.4268203438796
519.7229951463149
518.9941862664523
518.2403552678518
517.461522391666
516.657767648769
515.8292317571669
514.9761169191779
514.0986874332941
513.1972701360324
512.2722546694379
511.3240935703043
510.35330217764005
509.3604583553801
508.34620202778717
507.31123452557307
506.25631774133177
505.1822730933536
504.0899802974513
502.98037594705505
501.8544519024406
500.71325349057054
499.5578775176829
498.38947009740673
497.20922429784474
496.0183776117363
494.81820925451115
493.61003729565533
492.3952156294585
491.1751307918969
489.9511986310864
488.7248608393956
487.49758135601263
486.27084264943136
485.0461418899788
483.8249870231512
482.6088927551275
481.3993764624292
480.1979540382423
479.0061356883959
477.8254216904491
476.6572981297953
475.50323262709
474.3646700716343
473.2430283756735
472.13969426479855
471.0560191198328
469.9933148857304
468.9528500630849
467.93584579787245
466.9434720849997
465.9768441010622
465.03701868150614
464.12499095717504
463.2416911649368
462.38798164671726
461.56465405075994
460.7724267483758
460.0119424788448
459.2837662343991
458.58838339638555
457.9261981328738
457.2975320671191
456.70262322538156
456.1416252715865
455.61460703518827
455.1215523374314
454.6623601200129
454.2368448789567
453.8447374053038
453.4856858329379
453.1592569925252
452.8649380691917
452.6021385601773
452.3701925273537
452.1683611382039
451.99583548755726
451.8517396910873
451.73513424025833
451.645019607087
451.58034008586066
451.5399878577521
451.5228072631405
451.5275992653234
451.5531260882731
451.59811601018583
451.66126829371444
451.74125823299755
451.836742296925
451.9463633474827
452.068755911553
452.20255148428464
452.3463838420111
452.49889434261837
452.65873719122175
452.82458464904215
452.9951321635064
453.1691033978535
453.3452551388451
453.5223820616092
453.69932133117345
453.8749570208844
454.0482243286517
454.2181135728606
454.3836739507122
454.5440170426869
454.6983200478531
454.8458287358692
454.98586010268775
455.1178047181462
455.24112875488436
455.3553756894598
455.460167668157
455.55520653172164
455.64027449502936
455.71523447951375
455.78003009790854
455.834685292499
455.879303629756
455.9140672560192
455.9392355206592
455.9551432747944
455.96219885528257
455.96088176535176
455.95174006477066
455.93538748374743
455.91250027586534
455.8838138263828
455.85011903314535
455.81225847814414
455.7711224084872
455.72764454624814
455.6827977472729
455.63758952958597
455.59305749250126
455.55026464783947
455.51029468484853
455.4742471904559
455.44323284640393
455.4183686246012
455.4007730017379
455.3915612139548
455.3918405720039
455.40270585679855
455.42523481461376
455.46048377048476
455.50948337757745
455.5732345194853
455.65270438145694
455.7488227054485
455.86247824277507
455.9945154169834
456.1457312083478
456.31687227009365
456.5086322851152
456.7216495706462
456.95650493705136
457.21371980556125
457.4937545883373
457.79700733286177
458.1238126313354
458.4744407944893
458.84909728792405
459.24792242783
459.67099133174895
460.1183141188086
460.5898363527234
461.08543971982914
461.60494293346784
462.14810285513335
462.7146158219633
463.3041191694137
463.91619293723306
464.55036174624615
465.2060968329613
465.88281822862
466.57989706898064
467.29665802092865
468.0323818118627
468.78630784775254
469.5576369057882
470.3455338876696
471.1491306197528
471.96752868650077
472.7998022840117
473.6450010807762
474.5021530732551
475.3702674243356
476.24833727323414
477.1353425060788
478.03025247705375
478.9320286706601
479.839627296432
480.75200180823043
481.6681053409574
482.58689305831047
483.50732440599836
484.42836526562104
485.34899000517845
486.26818342289664
487.1849425818107
488.09827853335366
489.0072179289888
489.9108045195711
490.8081005427325
491.6981879991728
492.58016981936373
493.45317092281715
494.3163391726036
495.1688462283085
496.0098883011009
496.8386868150018
497.6544889787322
498.45656827274365
499.244224856247
500.0167858993207
500.7736058453833
501.51406660942445
502.23757771745306
502.94357639260494
503.63152759329466
504.30092400873207
504.95128601702027
505.5821616109398
506.1931262963194
506.7837829676403
507.3537617652416
507.9027199182062
508.43034157671457
508.9363376373553
509.4204455645522
509.8824292109142
510.3220786389515
510.7392099462666
511.13366509594005
511.5053117534358
511.8540431309818
512.1797778400128
512.4824597518694
512.762057866591
513.0185661893137
513.2520036133914
513.4624138089385
513.6498651151338
513.8144504343062
513.9562871255669
514.075516895539
514.1723056835434
514.2468435384388
514.2993444842137
514.3300463712862
514.3392107103612
514.327122485652
514.2940899442341
514.240444358298
514.166539757131
514.0727526257216
513.959481567051
513.8271469253584
513.6761903679133
513.5070744230463
513.3202819723989
513.116315695493
512.8956974648385
512.6589676899218
512.4066846085689
512.1394235243987
511.8577759893737
511.5623489306911
511.253763721473
510.93265519494906
510.5996706020627
510.2554685126601
509.90071766063943
509.5360957336864
509.16228810858775
508.7799865335214
508.3898877591389
507.992692120653
507.58910207355825
507.17982068599133
506.7655500910774
506.34698990290383
505.92483559997044
505.4997768802206
505.07249599208126
504.6436660462319
504.2139493130839
503.7839955111632
503.35444009180407
502.9259025257528
502.49898459736403
502.0742687121467
501.65231622349893
501.2336657845128
500.8188317307576
500.408302499946
500.0025390943072
499.60197359142876
499.2070077093222
498.818011431401
498.4353216968685
498.0592411617915
497.69003703595075
497.3279400004072
496.97314321051243
496.6258013888297
496.286030012183
495.95390459685433
495.62946008574454
495.31269034103735
495.0035477455793
494.7019429158545
494.4077445290935
494.1207792667578
493.84083187642483
493.567645353867
493.30092124684563
493.040320081835
492.78546191455524
492.535927004844
492.2912566161045
492.05095393931737
491.81448514128334
491.5812805363031
491.35073587998846
491.12221378342565
490.8950452454374
490.6685313002257
490.44194477729326
490.21453217011793
489.98551560958515
489.754094937739
489.5194498770478
489.2807422899498
489.03711852301666
488.787711829712
488.531644865478
488.26803224867587
487.9959831806639
487.7146041181429
487.4230014907847
487.1202844569695
486.80556769029084
486.47797418930605
486.13663810281884
485.78070756280323
485.4093475169947
485.02174255314515
484.6170997069076
484.19465124528847
483.7536574175375
483.2934091652782
482.8132307836904
482.31248252562114
481.7905631405622
481.2469123404255
480.6810131840246
480.09239437221646
479.48063244574206
478.84535387790277
478.1862370543915
477.5030141328471
476.7954727749966
476.06345774450637
475.30687236388036
474.52567982396016
473.7199043398517
472.8896321474106
472.0350123348065
471.15625750410396
470.2536442582086
469.3275135089566
468.3782706026074
467.4063852595103
466.4123913252376
465.3968863309774
464.36053086151304
463.3040477296669
462.22822095667163
461.13389455853206
460.02197113905055
458.8934102907973
457.7492268059007
456.59048869916757
455.41831504671416
454.2338736439072
453.0383784870323
451.83308708375796
450.6192975981083
449.39834583629664
448.1716020804655
446.9404677780611
445.7063720952294
444.4707683432813
443.2351302878909
442.00094835129664
440.7697257183088
439.54297435745696
438.3222109691309
437.10895287312974
435.9047138485553
434.71099993940624
433.5293052395886
432.36110767140775
431.20786477196896
430.0710095021992
428.95194609336244
427.852045946018
426.77264359647404
425.7150327658403
424.68046250675854
423.67013346279094
422.6851942553167
421.7267380126046
420.79579905543966
419.8933497533262
419.0202975648732
418.17748227548134
417.3656734448814
416.5855680764274
415.8377885193999
415.1228806148596
414.4413120947802
413.79347124328774
413.17966582786954
412.60012230739835
412.0549853227876
411.5443174749859
411.0680993939188
410.62623010081023
410.21852766510034
409.8447301560018
409.5044968875219
409.1974099544863
408.9229760557632
408.6806285995813
408.4697300845639
408.28957474883407
408.13939147830774
408.01834696407775
407.9255490976201
407.8600505914013
407.82085281131066
407.8069098062563
407.81713251927556
407.8503931636029
407.905529746307
407.9813507213058
408.0766397527954
408.19016056946595
408.32066188943986
408.4668823955448
408.62755574029217
408.80141555973387
408.98720047524694
409.1836590623116
409.3895547654151
409.603670738343
409.82481458930573
410.0518230106925
410.28356627369965
410.51895256867584
410.75693217276125
410.99650142712267
411.2367065067833
411.4766469668183
411.7154790495771
411.9524187385851
412.18674454585056
412.4178000204545
412.6449959674189
412.8678123670196
413.08579998607775
413.2985816743514
413.50585334081086
413.70738460624125
413.9030191303198
414.0926746129706
414.2763424713361
414.4540871953111
414.6260453862993
414.7924244854696
414.9535011993112
415.10961963182297
415.2611891342165
415.40868188438515
415.5526302095946
415.6936236669057
415.83230589679425
415.9693712662097
416.10556131801394
416.2416610443873
416.37849500242936
416.5169232907892
416.65783740669866
416.80215600319616
416.9508205665498
417.10479103402696
417.26504137218376
417.43255513577014
417.60832102717285
417.7933284761021
417.9885632589179
418.195003176556
418.4136138094843
418.6453443675244
418.89112365172974
419.15185614477707
419.4284182455318
419.72165466253085
420.03237498011254
420.36135040981276
420.70931073851926
421.0769414837372
421.4648812651362
421.87371940036957
422.3039937319556
422.7561886907481
423.2307336002061
423.72800122443294
424.2483065617186
424.79190588405714
425.3589960218168
425.94971389149424
426.5641362633283
427.2022797644617
427.8641011122762
428.5494975715188
429.25830762782675
429.9903118693172
430.74523406705526
431.52274244447364
432.32245112518694
433.143921748052
433.98666523776456
434.850143718822
435.73377256034337
436.63692253897887
437.5589221069713
438.49905975234134
439.4565864381364
440.4307181076921
441.42063824294644
442.42550046302995
443.44443115060915
444.4765320937824
445.5208831317418
446.57654479288345
447.6425609144962
448.7179612336541
449.80176393950967
450.89297817783716
451.9906064993443
453.09364724395544
454.2010968539636
455.31195210962704
456.42521228151304
457.5398811946625
458.65496920038015
459.7694950521692
460.88248768303004
461.9929878820482
463.10004986888003
464.2027427654032
465.30015196444384
466.39138039611356
467.47554969285636
468.55180125486515
469.61929721806763
470.67722132737055
471.72477971828556
472.76120161041814
473.7857399166556
474.7976717722026
475.7962989878988
476.7809484324779
477.7509723485914
478.70574860754704
479.64468090775125
480.56719892186425
481.47275839769486
482.36084121779226
483.23095542256095
484.08263520160637
484.91544085788547
485.72895874904754
486.52280121012575
487.29660646148795
488.0500385056553
488.78278701627744
489.4945672222163
490.18511978935743
490.85421070246076
491.50163114908304
492.1271974072564
492.73075073821235
493.31215728506817
493.87130797805105
494.4081184465175
494.9225289377095
495.4145042418184
495.8840336225462
496.33113075199475
496.7558336483729
497.1582046146846
497.53833017629074
497.89632101502025
498.2323118973315
498.5464615938791
498.83895278770575
499.10999196818983
499.35980930775526
499.5886585181757
499.7968166832436
499.98458406464454
500.15228387798305
500.3002620359873
500.42888685603185
500.5385487292558
500.62965974874766
500.70265329449234
500.75798357301284
500.79612510980223
500.81757219277097
500.8228382651149
500.81245526618835
500.78697291908355
500.74695796379825
500.69299333516176
500.62567728494537
500.54562244779027
500.45345485080117
500.34981286691624
500.2353461123972
500.1107142890173
499.97658597180305
499.8336373435086
499.68255087734514
499.5240139698605
499.3587175262876
499.1873545010816
499.01061839674605
498.8292017243517
498.643794429444
498.4550822873131
498.263745271858
498.0704559025314
497.87587757408045
497.6806628739879
497.4854518927303
497.29087053217313
497.09752881752803
496.906019218349
496.71691498413634
496.53076850019215
496.34810966944383
496.16944432596665
495.99525268592373
495.8259878416028
495.662074304186
495.5039066008238
495.3518479315213
495.2062288912305
495.06734626237073
494.93546188279106
494.8108015939068
494.69355427347534
494.5838709572911
494.4818640538854
494.38760665600324
494.3011319523366
494.22243274279987
494.1514610603885
494.08812790235083
494.0323030730813
493.9838151408577
493.94245151027957
493.90795861198575
493.8800422109779
493.85836783462963
493.84256132119634
493.83220948933865
493.8268609288763
493.8260269126712
493.8291824291904
493.83576733492083
493.8451876253527
493.85681682276675
493.86999747857726
493.8840427875187
493.8982383105495
493.91184380297705
493.9240951439054
493.93420636268604
493.94137175764354
493.94476810195994
493.94355693120536
493.9368869066328
493.9238962481175
493.90371523039266
493.87546873600775
493.83827885825866
493.7912675472276
493.7335592919253
493.66428383138106
493.5825788874152
493.4875929117306
493.37848783984515
493.2544418442794
493.11465207933475
492.9583374097787
492.78474111575923
492.5931335662408
492.3828148532135
492.1531173788893
491.90340838811284
491.633092438226
491.34161379863457
491.02845877237274
490.69315793207255
490.3352882628575
489.95447520482026
489.5503945878749
489.12277445194997
488.6713967457003
488.1960988971227
487.69677524970933
487.1733783581029
486.62592013752084
486.05447286151525
485.4591700029651
484.8402069135517
484.1978413374248
483.53239375521815
482.8442475550055
482.13384902721646
481.4017071809619
480.6483933796789
479.8745407945231
479.08084367446094
478.26805643256165
477.4369925485692
476.5885232884063
475.7235762417989
474.8431336797314
473.9482307340359
473.03995340204096
472.1194363798207
471.18786072815095
470.24645137582763
469.2964744656062
468.3392345486367
467.3760716338603
466.40835809945366
465.43749547405804
464.4649110960899
463.49205465994726
462.52039465844916
461.5514147314198
460.58660993082947
459.6274829133394
458.6755400715533
457.7322876157926
456.79922761865686
455.8778540349322
454.9696487097051
454.0760773878253
453.19858573813906
452.3385954061007
451.4975001084736
450.6766617839391
449.8774068135073
449.10102232463635
448.34875259284297
447.6217955544164
446.92129944369566
446.2483595681839
445.60401523447905
444.98924683759645
444.40497312581965
443.85204865271743
443.33126142743873
442.8433307738061
442.38890540805306
441.9685617443331
441.5828024363166
441.2320551623547
440.9166716608388
440.6369270214711
440.3930192371676
440.18506902033386
440.01311988621126
439.87713850492725
439.77701532273494
439.7125654517811
439.6835298265954
439.68957662435406
439.7303029448064
439.80523674465087
439.91383902001115
440.0555062295308
440.22957294952784
440.435314751604
440.6719512920433
440.9386496013257
441.23452756112323
441.55865755521404
441.9100702798852
442.28775869857907
442.6906821247873
443.1177704165369
443.5679282652091
444.0400395608892
444.5329718160607
445.0455806292448
445.57671417013347
446.12521766771954
446.6899378828434
447.2697275465999
447.8634497462306
448.46998224032035
449.0882216853172
449.71708775574814
450.3555271410131
451.0025174022072
451.6570706729835
452.3182371890336
452.98510863142633
453.6568212698075
454.3325588922967
455.01155550978706
455.693097823284
456.3765274438487
457.0612428557528
457.7467011146762
458.43241927414806
459.11797553489936
459.8030101133297
460.4872258268033
461.17038839493296
461.852326457394
462.532931310206
463.21215636388195
463.8900163282805
464.56658613040184
465.241999572734
465.91644774113166
466.59017717243876
467.2634877931298
467.9367306411698
468.61030538414866
469.28465764746016
469.9602761669124
470.6376897807494
471.3174642765968
472.00019910930223
472.6865240060774
473.3770954757182
474.0725932389214
474.7737165968391
475.4811807550187
476.19571311981974
476.9180495842757
477.64893082023997
478.38909859345205
479.1392921178241
479.90024446486586
480.67267904373335
481.4573061668356
482.25481971527194
483.0658939176328
483.8911802548902
484.7313045033066
485.5868639264389
486.45842462636483
487.3465190633083
488.25164375181913
489.1742571405741
490.11477768183147
491.07358209556116
492.05100383218223
493.047331736722
494.0628089160759
495.09763180993195
496.1519494648556
497.2258630100475
498.31942533237327
499.4326409473517
500.56546606188516
501.71780882364
502.8895297511464
504.080442337909
505.29031382306175
506.51886612043455
507.7657768973537
509.0306807940141
510.3131707737607
511.6127995942038
512.9290813888346
514.2614933486396
515.6094774930172
516.9724425192016
518.3497657193841
519.7407949547627
521.144850675839
522.561227978444
523.9891986852348
525.4280134426962
526.8769038239483
528.335084428008
529.8017549666209
531.2761023302477
532.7573026252339
534.244523174723
535.7369244764593
537.2336621112426
538.7338885963587
540.2367551788242
541.7414135638492
543.2470175745816
544.7527247397828
546.2576978066381
547.7611061764951
549.2621272619642
550.7599477643801
552.2537648711161
553.7427873727908
555.2262367009208
556.7033478870363
558.1733704446632
559.6355691759692
561.0892249052414
562.5336351417192
563.9681146746411
565.3919961036353
566.804630307864
568.2053868575538
569.593654371675
570.9688408256711
572.3303738132128
573.6777007659572
575.0102891352454
576.3276265396676
577.6292208823642
578.9146004418765
580.1833139402468
581.4349305919583
582.669040137162
583.8852528623996
585.0831996117839
586.2625317913519
587.4229213690649
588.5640608727027
589.6856633876288
590.7874625560912
591.8692125794249
592.9306882242378
593.9716848333918
594.9920183422831
595.9915253006642
596.9700628999857
597.9275090059947
598.8637621961083
599.7787418008371
600.6723879482088
601.5446616098282
602.395544646967
603.2250398549205
604.0331710036485
604.819982872544
605.5855412770335
606.3299330846532
607.0532662181441
607.7556696430114
608.4372933369189
609.0983082382843
609.7389061715373
610.3592997465965
610.9597222301885
611.540427386739
612.1016892867028
612.6438020803921
613.1670797355821
613.6718557373487
614.1584827486812
614.6273322304808
615.0787940196392
615.5132758639563
615.9312029127436
616.3330171621334
616.7191768542817
617.090155829807
617.4464428329425
617.7885407690299
618.1169659140984
618.432247076413
618.7349247100314
619.0255499806092
619.304683783968
619.572895718199
619.8307630103567
620.0788693990789
620.3178039747629
620.5481599792092
620.7705335669406
620.9855225306575
621.1937249934882
621.3957380708181
621.5921565046668
621.7835712737999
621.9705681830229
622.1537264352808
622.3336171903379
622.5108021139098
622.6858319211883
622.8592449188313
623.0315655495455
623.2033029434116
623.3749494801681
623.5469793667139
623.7198472341621
623.8939867588211
624.0698093114646
624.2477026391884
624.4280295841617
624.6111268435217
624.7973037746505
624.9868412500383
625.1799905658854
625.3769724084223
625.5779758817922
625.7831576011874
625.9926408548358
626.2065148383052
626.424833964451
626.6476172521036
626.8748477963477
627.1064723230703
627.3424008302995
627.5825063187077
627.8266246134871
628.074554279629
628.3260566325096
628.5808558455715
628.8386391567269
629.0990571749188
629.3617242881214
629.626219173922
629.892085413638
630.1588322107434
630.425935214192
630.6928374468768
630.9589503390406
631.2236548660037
631.4863027891505
631.7462179987394
632.0026979567537
632.2550152376941
632.5024191649148
632.7441375397373
632.9793784601787
633.2073322257597
633.427173324471
633.6380624976103
633.8391488778581
634.029572195714
634.2084650491835
634.3749552315307
634.5281681117948
634.6672290625709
634.7912659293789
634.8994115357939
634.9908062182857
635.0646003845054
635.1199570885941
635.1560546168953
635.1720890772461
635.1672769848878
635.1408578379787
635.092096675639
635.0202866113873
634.9247513347119
634.8048475733834
634.6599675089727
634.4895411379619
634.2930385707868
634.0699722611364
633.81989915786
633.5424227718507
633.2371951503158
632.9039187510225
632.5423482092849
632.1522919906059
631.73361392206
631.2862345956715
630.8101326372567
630.3053458344202
629.77197211765
629.2101703888311
628.620161191876
628.0022272205283
627.3567136587943
626.6840283498545
625.984641789796
625.2590869430677
624.5079588770768
623.7319142138475
622.9316703971881
622.1080047744017
621.2617534921628
620.3938102067494
619.5051246094046
618.5967007682002
617.6695952884228
616.7249152941622
615.7638162344444
614.787499517853
613.7972099802455
612.7942331908546
611.7798926027679
610.7555465544477
609.7225851295899
608.6824268833335
607.6365154435282
606.5863159963999
605.5333116665433
604.4789998017532
603.4248881737786
602.3724911066134
601.3233255444339
600.2789070717675
599.2407458988462
598.2103428254509
597.1891851969158
596.1787428663082
595.1804641770266
594.1957719802043
593.2260597014465
592.2726874715204
591.3369783356382
590.4202145559335
589.5236340216355
588.6484267812391
587.7957317107156
586.9666333315065
586.1621587916819
585.3832750231572
584.630886087327
583.9058307209222
583.2088800932161
582.5407357849874
581.9020279989011
581.2933140101607
580.7150768653856
580.167724336705
579.651588137071
579.1669234017743
578.7139084401091
578.2926447600593
577.9031573677356
577.5453953420672
577.2192326840437
576.924469438605
576.6608330860969
576.4279801990059
576.2254983584281
576.0529083235597
575.909666446348
575.795167322294
575.7087466672484
575.6496844089373
575.6172079809371
575.6104958058738
575.6286809537063
575.6708549600635
575.7360717887831
575.8233519220171
575.9316865606035
576.0600419168034
576.2073635810548
576.3725809441446
576.554611656027
576.7523661023423
576.9647518795764
577.1906782498007
577.4290605560526
577.6788245796099
577.938910820639
578.2082786839874
578.4859105523352
578.7708157294136
579.062034236572
579.3586404465689
579.659746539124
579.964505763499
580.2721154941894
580.5818200666705
580.8929133810913
581.2047412627479
581.516703569137
581.828256034522
582.1389118443633
582.4482429335143
582.7558810036768
583.0615182571831
583.3649078456863
583.6658640337469
583.9642620786547
584.2600378292299
584.5531870478562
584.8437644614997
585.1318825488826
585.4177100723858
585.7014703645818
585.9834393804217
586.2639435271036
586.5433572845466
586.8221006301197
587.1006362819458
587.3794667757074
587.6591313904506
587.9402029393598
588.2232844420043
588.5090056949834
588.7980197581452
589.0909993737756
589.388633336237
589.691622829486
590.0006777497822
590.3165130306807
590.6398449871309
590.9713876951269
591.3118494230181
591.6619291302022
592.0223130484163
592.3936713601955
592.7766549883368
593.1718925094066
593.5799872034845
594.0015142514696
594.4370180902569
594.8870099350956
595.3519654774675
595.8323227658295
596.3284802755206
596.8407951730252
597.3695817787147
597.9151102310863
598.4776053543624
599.0572457301927
599.6541629731563
600.2684412087043
600.900116751165
601.5491779784306
602.2155653989515
602.8991719057756
603.5998432115322
604.3173784574824
605.0515309890621
605.8020092896926
606.5684780640529
607.3505594615141
608.1478344299647
608.959844189853
609.7860918179118
610.6260439298261
611.4791324509885
612.3447564644058
613.2222841247624
614.1110546276515
615.01038022313
615.9195482629478
616.8378232709632
617.7644490265369
618.6986506510865
619.6396366884264
620.5866011699554
621.5387256561761
622.4951812465671
623.4551305503685
624.4177296113908
625.3821297805863
626.3474795307571
627.3129262083651
628.2776177179892
629.2407041356536
630.2013392479146
631.1586820142209
632.1118979506091
633.0601604333675
634.0026519218972
634.9385651005451
635.8671039397527
636.7874846774318
637.6989367220028
638.6007034789649
639.4920431032456
640.3722291798675
641.2405513357619
642.0963157859303
642.9388458174922
643.7674822154212
644.5815836339895
645.3805269180907
646.1637073787019
646.9305390268062
647.6804547701166
648.4129065769549
649.1273656115868
649.8233223452318
650.5002866468647
651.1577878578024
651.7953748538515
652.4126160986224
653.0090996914344
653.5844334130177
654.1382447719242
654.6701810542492
655.1799093789455
655.6671167607525
656.1315101824609
656.572816677876
656.9907834264978
657.3851778605996
657.7557877850816
658.1024215101952
658.4249079969157
658.7230970144428
658.9968593090257
659.2460867830567
659.4706926830403
659.6706117946761
659.8458006430094
659.996237695411
660.1219235649822
660.2228812118217
660.2991561393998
660.3508165831951
660.3779536886137
660.3806816750749
660.3591379830426
660.3134834007831
660.243902167649
660.1506020507384
660.0338143918727
659.8937941219735
659.730819740012
659.5451932538326
659.3372400803635
659.1073089029904
658.8557714840395
658.583022430373
658.2894789101459
657.9755803188475
657.6417878928611
657.2885842689201
656.9164729880866
656.5259779431312
656.1176427684
655.6920301713451
655.2497212050058
654.791314480897
654.317425321896
653.8286848548904
653.3257390432369
652.8092476594115
652.279883198536
651.7383297338492
651.1852817155043
650.6214427144172
650.0475241132068
649.4642437465169
648.8723244932037
648.2724928230804
647.6654773011815
647.0520070527639
646.4328101925158
645.8086122216584
645.1801343968594
644.5480920750502
643.9131930384709
643.2761358044556
642.6376079245877
641.9982842778716
641.3588253626584
640.7198755921438
640.0820615983316
639.4459905494266
638.8122484857188
638.1813986790894
637.5539800213054
636.9305054462451
636.3114603911561
635.6973013020138
635.0884541880259
634.4853132302987
633.8882394495834
633.2975594379179
632.7135641588985
632.1365078211928
631.5666068297176
631.0040388187194
630.4489417708379
629.9014132260395
629.3615095840868
628.8292455040113
628.3045934039492
627.7874830645166
627.2778013386621
626.7753919706956
626.280055526986
625.791549440631
625.3095881721832
624.8338434883077
624.3639448600562
623.8994799821601
623.4399954144969
622.9849973466658
622.5339524862902
622.0862890712588
621.6413980055993
621.1986341181996
620.7573175431497
620.3167352200561
619.8761425122101
619.4347649400587
618.9918000269965
618.5464192540676
618.097770119701
617.6449783001206
617.1871499056481
616.7233738277093
616.2527241709945
615.7742627649808
615.2870417488
614.7901062231696
614.2824969628883
613.7632531831499
613.2314153527515
612.6860280470398
612.1261428331921
611.550821180212
610.9591373858079
610.3501815120765
609.7230623217414
609.0769102066099
608.4108800998753
607.7241543638502
607.0159456446384
606.2854996851352
605.5320980876464
604.7550610173136
603.953749837414
603.1275696676389
602.2759718565447
601.3984563594969
600.4945740135431
599.5639287007299
598.6061793915557
597.621042060477
596.6082914656489
595.5677627853811
594.4993531041329
593.4030227411519
592.2787964151504
591.1267642388082
589.9470825373478
588.7399744859144
587.5057305610163
586.2447088017711
584.9573348772486
583.6441019567469
582.3055703804163
580.9423671282424
579.55518508604
578.1447821077688
576.7119798741629
575.2576625483224
573.782775229549
572.2883222073566
570.7753650182718
569.2450203088097
567.6984575087686
566.1368963196425
564.5616040235539
562.973892618795
561.3751157888346
559.7666657123643
558.1499697226583
556.5264868252692
554.8977040838046
553.2651328841469
551.6303050880873
549.994769087919
548.3600857740826
546.7278244284786
545.0995585565789
543.4768616719516
541.861303047188
540.2544434455266
538.6578308477445
537.0729961892092
535.5014491221968
533.9446738187492
532.4041248294214
530.8812230132622
529.377351554292
527.8938520796141
526.4320208941523
524.9931053468475
523.5783003428915
522.1887450162407
520.8255195762563
519.4896423418095
518.1820669755859
516.9036799306349
515.6552981204829
514.4376668233373
513.2514578300522
512.0972678446662
510.9756171454021
509.8869485130893
508.8316264330155
507.8099365751238
506.82208555634287
505.868200987658
504.9483318073355
504.06244890051653
503.210446004176
502.3921408951787
501.60727685789294
500.85552442656325
500.13648339642924
499.4496850963989
498.79459491489786
498.1706150693467
497.5770876085947
497.01329763652194
496.4784767439155
495.9718066347076
495.492422931764
495.0394191465477
494.61185079615433
494.20873965044166
493.82907809128596
493.47183356537994
493.13595311150806
492.82036794285864
492.5239980646753
492.2457569074651
491.9845559560283
491.73930935464193
491.50893846879666
491.2923763840776
491.08857232310913
490.8964959618529
490.71514162691386
490.5435323559722
490.3807238040159
490.2258079787232
490.07791678904834
489.9362253918127
489.7999553219672
489.6683773931206
489.54081435594173
489.416643303081
489.2952978102497
489.1762698041576
489.0591111493121
488.94343494719357
488.8289165429549
488.7152942364377
488.6023696958943
488.4900080743283
488.37813782981505
488.26675025263097
488.15589870348396
488.0456975686156
487.9363209390429
487.8280010226925
487.72102629955623
487.61573943126484
487.5125349375933
487.41185665334797
487.31419497992823
487.22008394656456
487.13009809682177
487.04484921653096
486.96498291986416
486.89117511074375
486.8241283371751
486.7645680564287
486.71323882925196
486.6709004614147
486.6383241108775
486.61628837874525
486.6055754020052
486.6069669658177
486.62124065284837
486.6491660467378
486.69150100629
486.7489880264219
486.822350701373
486.9122903049956
487.01948250208557
487.1445742037687
487.28818057905613
487.450882233819
487.63322256745624
487.8357053164168
488.05879229260944
488.3029013235767
488.568404400175
488.8556260363721
489.1648418446591
489.4962773294254
489.85010689949985
490.2264530998912
490.62538606162315
491.04692316745934
491.4910289302621
491.9576150797201
492.4465408522384
492.95761347789164
493.490588857447
494.0451724216247
494.62102016403617
495.21773983860555
495.83489231171114
496.47199305879496
497.1285137947455
497.8038842269658
498.49749391971346
499.2086942581116
499.93680050014444
500.6810939048792
501.4408239250925
502.21521045249636
503.00344610388953
503.8046985367274
504.61811278282175
505.4428135892094
506.2779077556375
507.1224864585748
507.97562755213175
508.8363978367434
509.7038552870278
510.57705123084776
511.45503247225287
512.3368433516515
513.2215277372151
514.1081309421339
514.9957015629764
515.8832932350496
516.7699663012775
517.6547893917846
518.5368409121008
519.4152104385877
520.289000020281
521.1573253869408
522.0193170636371
522.8741213927175
523.7209014645146
524.5588379586645
525.3871298984128
526.2049953207569
527.0116718656438
527.8064172878007
528.588509895101
529.3572489176225
530.1119548117497
530.8519695038727
531.5766565784104
532.2854014149576
532.977611279413
533.6527153739848
534.310164850966
534.9494327951387
535.5700141795683
536.1714257994341
536.7532061884057
537.3149155218713
537.8561355111241
538.3764692924025
538.8755413144274
539.3529972277997
539.8085037793425
540.2417487142027
540.6524406882589
541.0403091930458
541.4051044950108
541.7465975905436
542.064580177895
542.3588646467588
542.6292840859696
542.8756923094685
543.0979639004139
543.2959942730539
543.4696997516272
543.6190176651633
543.743906456635
543.8443458046261
543.9203367554768
543.9719018636886
543.9990853381206
544.0019531912733
543.9805933888097
543.9351159963968
543.8656533209177
543.7723600430392
543.6554133381012
543.5150129822705
543.3513814409021
543.1647639360377
542.955428490024
542.7236659423257
542.4697899367992
542.194136876888
541.8970658462928
541.5789584926843
541.2402188720038
540.8812732508852
540.5025698647665
540.1045786293735
539.6877908034364
539.2527186006712
538.7998947491959
538.329871996741
537.8432225601026
537.3405375174087
536.8224261419417
536.2895151764534
535.7424480471298
535.1818840166496
534.6084972760804
534.022975975735
533.426021195532
532.8183458557212
532.2006735691217
531.5737374363287
530.9382787856401
530.2950458597202
529.6447924512593
528.9882764901624
528.3262585850651
527.6595005222312
526.9887637251148
526.3148076780876
525.6383883180326
524.9602563976806
524.2811558247887
523.6018219814697
522.9229800280968
522.2453431963356
521.5696110760344
520.8964679009124
520.2265808380448
519.560598286159
518.8991481877747
518.2428363603628
517.5922448517882
516.9479303253688
516.3104224798992
515.6802225100116
515.0578016122456
514.4435995421491
513.8380232276592
513.2414454439273
512.6542035545947
512.0765983243504
511.50889280748856
510.9513113170811
510.4040384791966
509.867218376395
509.34095378457783
508.8253055071063
508.3202918098923
507.82588796095604
507.3420258777312
506.86859388514256
506.40543658724124
505.95235485493913
505.50910593214775
505.0754036623773
504.65091883758885
504.23527967086255
503.8280723942572
503.4288419829781
503.0370930065816
502.6522906074475
502.2738616062323
501.9011957335118
501.5336469863494
501.17053510806375
500.8111471890222
500.4547393858796
500.10053875618735
499.7477452047574
499.39553353765075
499.0430556191974
498.6894426270376
498.3338073998183
497.9752468718418
497.61284458869346
497.24567329772896
496.87279760712335
496.49327670690303
496.1061671451048
495.7105256519517
495.3054120046687
494.8898919253117
494.46304000379195
494.02394263811016
493.571700983654
493.10543390324665
492.62428090949396
492.1274050909213
491.6139960133046
491.08327258749455
490.53448589495804
489.96692196220806
489.37990447517546
488.7727974244951
488.14500767272045
487.4959874345915
486.82523666156607
486.1323053219449
485.41679556804286
484.6783637820533
483.91672249248484
483.13164215330517
482.3229527782839
481.4905454233037
480.6343735096756
479.75445398183155
478.85086829315856
477.923763214181
476.9733514577736
475.99991211655134
475.00379090809
473.98540022420633
472.94521898114306
471.8837922680854
470.8017307920478
469.69971011778557
468.57846970202786
467.4388117219561
466.2815996984924
465.1077569156352
463.9182646378198
462.7141601280305
461.49653447010206
460.2665301993076
459.0253387460317
457.77419769808785
456.5143878880169
455.24723031241575
453.9740828910143
452.6963370739002
451.4154143059922
450.1327623585598
448.84985153830485
447.5681707852105
446.28922367099375
445.0145243106018
443.74559319972263
442.4839529917735
441.2311242282474
439.98862103669694
438.7579468110221
437.5405898890732
436.33801924288906
435.15168019709546
433.98299019112727
432.833334601023
431.7040626365834
430.59648332967566
429.5118616293966
428.45141461968154
427.4163078747062
426.4076519670972
425.4264991435921
424.47384018237295
423.55060144578823
422.6576421415676
421.7957518049223
420.96564801316543
420.1679743437246
419.403298585593
418.67211121335396
417.9748241319209
417.3117696991013
416.68320003201984
416.08928660230026
415.53012012375746
415.00571073515596
414.51598847934616
414.06080407882865
413.6399300064799
413.25306184886955
412.899819958286
412.5797513882631
412.29233210609164
412.03696947456183
411.81300499392756
411.61971729384953
411.4563253639094
411.3219920101805
411.21582752425473
411.1368935500515
411.0842071327045
411.05674493288075
411.0534475890235
411.07322420920747
411.1149569736036
411.17750582796157
411.2597132480616
411.36040905477927
411.47841525924775
411.61255091752133
411.7616369740543
411.9245010732676
412.09998231861715
412.28693595882675
412.4842379812353
412.6907895925534
412.90552156775914
413.1273984484154
413.3554225723567
413.5886379174602
413.82613374302093
414.0670480130936
414.3105705870908
414.5559461639014
414.8024769668387
415.04952515777944
415.2965149698982
415.54293454960765
415.7883374997839
416.03234411803
416.2746423254689
416.5149882832747
416.7532066957664
416.989190800435
417.2229020468376
417.45436946785907
417.68368874846465
417.91102099868976
418.13659123913556
418.3606866087158
418.58365430583353
418.80589927544867
419.0278816556253
419.2501139981076
419.47315827822945
419.6976227101114
419.9241583837431
420.15345574114286
420.3862409093726
420.6232719087452
420.86533475501085
421.1132394746157
421.3678160523004
421.62991033034035
421.90037987871716
422.1800898553882
422.4699088755638
422.7707049085598
423.0833412204299
423.40867238012993
423.7475403464586
424.1007706524307
424.46916870309144
424.8535162019751
425.2545677205104
425.6730474237256
426.10964596460957
426.56501755845164
427.03977724734733
427.53449836393014
428.0497102022127
428.5858959021814
429.1434905535734
429.72287952307516
430.32439700798636
430.94832481818224
431.5948913869952
432.2642710104002
432.956583312717
433.6718929359231
434.4102094485659
435.17148746921623
435.9556269984122
436.762473952112
437.59182088883676
438.44340792190525
439.31692380742345
440.21200719802334
441.12824805173847
442.0651891848856
443.0223279573977
443.9991180787304
444.99497152221346
446.0092605355259
447.04131973485624
448.09044827027634
449.1559120499471
450.2369460109212
451.332756424537
452.44252322466167
453.5654023473223
454.70052807058687
455.84701534399136
457.0039620973317
458.17045151919484
459.3455542961601
460.5283308042094
461.7178332445721
462.9131077169396
464.1131962236845
465.31713859943187
466.5239743610458
467.73274447384614
468.94249303062196
470.152268840734
471.36112692730984
472.5681299311976
473.77234942097465
474.97286710895804
476.1687759738235
477.35918129105096
478.54320157293887
479.7199694204554
480.8886322897102
482.04835317629534
483.1983112211885
484.33770224227607
485.46573919586825
486.58165257282303
487.68469073414
488.7741201910967
489.84922583514356
490.90931112287603
491.9536982215115
492.9817281203219
493.99276071342575
494.98617485926644
495.9613684219561
496.91775829951433
497.85478044389976
498.77188987750424
499.6685607105021
500.5442861631885
501.3985785971216
502.2309695585394
503.0410098371768
503.8282695432336
504.5923382048509
505.33282488805975
506.0493583407565
506.7415871618671
507.409179996475
508.0518257573185
508.66923387269
509.2611345603661
509.8272791267978
510.36744029042063
510.8814125275429
511.3690124388586
511.8300791342587
512.2644746333211
512.6720842785942
513.0528171585224
513.4066065365987
513.7334102830973
514.0332113056077
514.3060179745069
514.5518645393971
514.7708115324126
514.9629461541903
515.1283826383121
515.2672625900279
515.3797552950977
515.4660579946773
515.5263961223042
515.5610234992354
515.5702224846309
515.5543040772972
515.5136079658046
515.4485025238727
515.3593847479572
515.2466801340324
515.1108424906836
514.952353685887
514.771723325079
514.5694883583714
514.3462126149288
514.1024862626825
513.8389251917836
513.5561703204688
513.2548868222447
512.9357632735647
512.5995107214821
512.246861671154
511.8785689935283
511.4954047540235
511.0981589634372
510.6876382527569
510.2646644738816
509.83007322855013
509.38471232809195
508.9294401869396
508.46512415317903
507.99263877970606
507.5128640398291
507.02668349141976
506.53498239402694
506.03864578365943
505.5385565101811
505.0355932424744
504.53062844673383
504.02452634340074
503.51814084838344
503.0123135043424
502.50787140798417
502.0056251394232
501.50636669974716
501.01086746301524
500.5198761490249
500.0341168232029
499.5542869299737
499.08105536596537
498.6150605994264
498.15690884221567
497.70717228063415
497.2663873712395
496.83505320761645
496.41362996390535
496.0025374206992
495.6021535787396
495.2128133656775
494.83480744093885
494.4683811034992
494.1137333071327
493.7710157874529
493.44033230478067
493.12173800660076
492.8152389131143
492.52079152914337
492.238302585383
491.9676289116843
491.70857744477206
491.4609053725328
491.2243204167177
490.9984812555729
490.78299808761943
490.5774333374649
490.38130250411194
490.1940751516988
490.0151760420533
489.8439864079301
489.6798453653105
489.522051462701
489.3698643648416
489.2225066677151
489.0791658412894
488.9389962960072
488.8011215685523
488.66463662192575
488.5286102543653
488.39208761115776
488.2540927930107
488.11363155435896
487.96969408471915
487.82125786598147
487.6672905983136
487.5067531872028
487.33860278396656
487.16179587179965
486.9752913891811
486.77805388227944
486.5690566778376
486.3472850678019
486.1117394968324
485.8614387437583
485.5954230879894
485.31275745183876
485.01253450967107
484.69387775477503
484.3559445148008
483.997928906558
483.61906472098957
483.21862822914983
482.7959409000236
482.3503720210839
481.88134121263755
481.38832082719586
480.8708382253382
480.328477919809
479.7608835798375
479.16775988800805
478.5488742423983
477.90405829701865
477.2332093338463
476.5362914600872
475.81333662474384
475.06444544906134
474.2897878659294
473.489603563851
472.66420223166796
471.8139636008191
470.9393372824665
470.04084239737074
469.11906699698284
468.1746672748859
467.20836656837827
466.22095415063546
465.2132838145303
464.1862722498587
463.1408972163981
462.07819551590995
460.99926076685745
459.90524098631084
458.79733598421916
457.6767945759681
456.54491161982213
455.4030248865004
454.2525117688078
453.0947858399888
451.9312932701544
450.763509110775
449.5929334579102
448.4210875055097
447.24950950071525
446.07975061364306
444.91337073459147
443.7519342120319
442.59700554513955
441.4501450450237
440.31290447915956
439.18682271386297
438.07342136998597
436.97420050724185
435.8906343526311
434.8241670884408
433.7762087152554
432.74813100540524
431.741263562261
430.756890000636
429.79624426325904
428.8605070879633
427.9508026398772
427.068195322507
426.21368678107075
425.38821311081125
424.59264228238163
423.82777179567904
423.09432657270304
422.39295709920856
421.7242378240506
421.0886658241646
420.4866597420778
419.9185590018125
419.3846233080012
418.88503243194475
418.41988628714813
417.9892052956193
417.5929310449887
417.2309272352424
416.902980912592
416.60880398673754
416.3480350265098
416.12024132762764
415.92492124508453
415.7615067814469
415.6293664211636
415.5278081998592
415.4560829964505
415.4133880348253
415.3988705808104
415.41163181918773
415.4507308945989
415.5151890993276
415.6039941901941
415.7161048161675
415.85045503777474
416.0059589189993
416.1815151721023
416.37601183561804
416.58833096558516
416.81735331994565
417.06196301605775
417.32105214141166
417.5935252978325
417.87830405972164
418.17433132722846
418.48057555568386
418.79603484315675
419.11974085858844
419.45076259361554
419.78820992191373
420.1312369507089
420.4790451499294
420.8308862454191
421.1860648636274
421.54394091618997
421.9039317139327
422.2655138011504
422.628224502505
422.99166317652833
423.3554921714104
423.7194374803807
424.0832890954517
424.4469010598003
424.81019122064845
425.1731406860514
425.5357929904905
425.89825297565926
426.2606853943308
426.6233132466896
426.98641585992414
427.3503267230993
427.7154310903255
428.0821633661013
428.45100428748975
428.82247791847817
429.1971484724526
429.5756169793259
429.95851781444105
430.3465151069021
430.74029904539196
431.14058209987195
431.54809517780166
431.96358373353985
432.38780384949933
432.82151830751167
433.265492668649
433.7204913794231
434.18727392190897
434.66659102491826
435.15918095283826
435.6657658881577
436.1870484230544
436.72370817470977
437.27639853821205
437.84574358999816
438.4323351537897
439.0367300399209
439.6594474678729
440.3009666806913
440.9617247587468
441.6421146390608
442.34248334531145
443.0631304326248
443.8043066501902
444.5662128234925
445.3489989567145
446.1527635546904
446.9775531626298
447.8233621206856
448.690132529343
449.57775442060716
450.4860661290611
451.41485485598605
452.3638574188935
453.3327611779861
454.32120513036045
455.32878116214266
456.35503544821165
457.39946998869766
458.46154427104796
459.5406770461735
460.6362482069544
461.74760075719047
462.8740428589531
464.0148499463224
465.1692668936093
466.33651022629414
467.5157703630601
468.7062138775559
469.90698576882085
471.1172117296369
472.33600040250906
473.5624456134754
474.7956285744868
476.0346200457085
477.2784824497599
478.526271930575
479.77704035023396
481.02983721776184
482.2837115445115
483.5377136213886
484.7908967138914
486.04231867175434
487.2910434507807
488.5361425451658
489.7766963292551
491.01179530827727
492.24054127822535
493.46204839569833
494.67544415910555
495.87987030315503
497.07448360901907
498.258456633013
499.43097835708494
500.59125476482006
501.7385093470215
502.8719835412306
503.99093710978127
505.094648461167
506.18241491969434
507.2535529485747
508.307398331708
509.3433063193899
510.3606517431243
511.358829104743
512.3372526449538
513.2953563962565
514.232594225013
515.1484398672643
516.042386962636
516.9139490904553
517.7626598119676
518.5880727222109
519.389761514711
520.1673200618095
520.9203625130523
521.6485234136827
522.351457844879
523.0288415869701
523.680371306478
524.305764767444
524.9047610670882
525.4771208954289
526.022626818104
526.5410835813003
527.0323184373152
527.4961814888366
527.9325460496358
528.3413090190454
528.7223912673086
529.0757380286108
529.4013192983439
529.6991302309722
529.9691915346363
530.2115498584969
530.4262781687212
530.6134761089205
530.7732703407831
530.9058148606537
531.0112912878271
531.0899091203825
531.141905954487
531.1675476632785
531.1671285316005
531.1409713431103
531.0894274164519
531.0128765873495
530.9117271335836
530.786415639866
530.6374067996747
530.465193151233
530.2702947451082
530.0532587411587
529.8146589328057
529.5550951968283
529.2751928671754
528.9756020315583
528.6569967498267
528.3200741933366
527.9655537047933
527.5941757783484
527.2067009601469
526.8039086699547
526.3865959449511
525.9555761072432
525.5116773570622
525.0557412939969
524.5886213689737
524.1111812699962
523.6242932449769
523.1288363653308
522.6256947343153
522.1157556444653
521.5999076887703
521.0790388304783
520.5540344366625
520.0257752809481
519.4951355209738
518.962980656335
518.4301654729438
517.897531979875
517.3659073448651
516.8361018346976
516.3089067667365
515.7850924779331
515.2654063177112
514.7505706711906
514.2412810191988
513.738204041482
513.241975769537
512.7531997954812
512.2724455432759
511.80024660842514
511.33709917208694
510.88346049534323
510.4397474991665
510.00633543537145
509.58355665361756
509.17169946932574
508.7710071371643
508.38167693449265
508.00385935883247
507.6376574431285
507.2831261922665
506.9402721440624
506.6090530576187
506.2893777315915
505.98110595457786
505.6840485895279
505.39796779377355
505.1225773759063
504.85754329037024
504.6024842703301
504.3569725991154
504.12053502019904
503.8926537852295
503.67276783919004
503.4602741412651
503.25452911948145
503.0548502567108
502.86051780518255
502.6707766261948
502.484838151265
502.3018824604747
502.12106047325324
501.941496246411
501.7622893737778
501.5825174813348
501.4012388113397
501.21749488865487
501.0303132622516
500.8387103146655
500.6416941319684
500.43826742664413
500.2274305056327
500.0081842756581
499.77953327780574
499.540488743168
499.2900716612479
499.02731585264786
498.75127103743006
498.4610058904913
498.1556110753317
497.83420224756304
497.4959230194577
497.1399478768237
496.76548503955667
496.3717792573151
495.9581145318569
495.52381675756914
495.06825627172384
494.59085030607633
494.09106533160883
493.5684192884432
493.02248369310064
492.45288561552013
491.8593095185661
491.24149895303094
490.59925810142767
489.9324531642215
489.24101358244667
488.52493309096957
487.7842705970751
487.0191508795474
486.22976510390265
485.41637114991806
484.5792937480713
483.71892442205257
482.8357212350842
481.9302083383694
481.0029753205572
480.05467635769264
479.08602916375145
478.09781374241936
477.09087094131866
476.0661008104657
475.02446076737783
473.96696357192013
472.89467511464176
471.80871202303155
470.71023909075507
469.60046653552
468.48064709185
467.3520729457317
466.2160725187847
465.0740071102387
463.9272674056672
462.7772698620747
461.6254529795339
460.4732734701553
459.3222023357518
458.17372086603
457.02931656958117
455.8904790503871
454.758695843008
453.63544821999403
452.5222069854225
451.42042826881624
450.3315493339977
449.25698441763643
448.1981206123778
447.1563138095309
446.13288471634155
445.1291149628609
444.1462433133122
443.18546199664445
442.24791317073164
441.3346855344431
440.4468111015433
439.58526214999307
438.75094835972743
437.94471415146063
437.1673362384854
436.41952140273054
435.7019045055678
435.01504674311656
434.3594341549829
433.73547639445513
433.1435057671951
432.583776544418
432.0564645554569
431.5616670635119
431.0994029272499
430.6696130497615
430.2721611151944
429.9068346121327
429.57334614152677
429.27133500576525
429.0003690742241
428.7599469193737
428.5495002162841
428.36839639711354
428.2159415509876
428.0913835585639
427.9939154494125
427.9226789692359
427.87676834293006
427.8552342185239
427.8570877761255
427.88130498513374
427.9268309921147
427.99258462098595
428.07746296650765
428.18034606156306
428.3001015983926
428.4355896837855
428.58566760809356
428.7491946077983
428.9250366012785
429.1120708774599
429.3091907172318
429.5153099278082
429.7293672705352
429.9503307630129
430.17720183690403
430.40901933345646
430.64486331949934
430.88385870742434
431.12517866341796
431.36804778906424
431.6117450624144
431.8556065256873
432.0990277078498
432.34146577135294
432.58244137338016
432.821540233309
433.05841439960733
433.29278321100423
433.52443394847165
433.7532221762165
433.9790717714904
434.2019746445861
434.42199015191153
434.6392442066085
434.85392809280756
435.06629699113586
435.2766682245924
435.48541923541427
435.692985304944
435.89985702976287
436.1065775683946
436.3137396737121
436.5219825269275
436.73198838967124
436.94447909124915
437.16021236871285
437.3799780779223
437.6045942941862
437.83490332139087
438.07176762884365
438.31606573531275
438.568688059763
438.8305327581633
439.1025015655287
439.38549566208343
439.6804115820156
439.98813718285464
440.3095476929142
440.64550185355483
440.99683817240583
441.3643713030321
441.7488885656943
442.15114662291734
442.57186832256497
443.0117397200754
443.4714072904158
443.9514753391784
444.45250362105895
444.9750051727577
445.5194443661082
446.08623518603105
446.6757397366835
447.2882669779741
447.9240716933551
448.58335368851283
449.2662572193571
449.972870646574
450.70322631287945
451.4573006379869
452.2350144252164
453.03623337274763
453.8607687816474
454.7083784519509
455.5787677573554
456.4715908884625
457.38645225392787
458.3229080283312
459.2804678351181
460.2585965525774
461.2567162305216
462.27420810516657
463.31041469966
464.36464199766255
465.43616167743124
466.5242133939852
467.6280070971048
468.7467253731274
469.8795257987981
471.0255432958264
472.1838924752558
473.35366996123787
474.533956684404
475.7238201357469
476.922316572531
478.12849316835127
479.34139010018913
480.5600425660582
481.78348272752424
483.01074157211934
484.24085069146184
485.47284397167266
486.7057591934316
487.93863953972215
489.1705350099685
490.40050374000043
491.62761322802703
492.85094146751914
494.0695779885078
495.28262480931795
496.4891973012362
497.68842496910855
498.8794521513248
500.0614386430661
501.23356024711757
502.39500925693744
503.5449948768917
504.6827435847186
505.80749944148033
506.9185243544533
508.0150982985087
509.09651950156194
510.162104599631
511.21118876698006
512.2431258267164
513.2572883470144
514.2530677279342
515.2298742836057
516.1871373242446
517.1243052422245
518.0408456061158
518.9362452662704
519.8100104751568
520.6616670252362
521.4907604067877
522.2968559876989
523.0795392167907
523.8384158517135
524.5731122119935
525.2832754573777
525.96857389125
526.6286972885121
527.2633572469947
527.872287561077
528.4552446158103
529.0120077994152
529.5423799315944
530.0461877047483
530.5232821348893
530.9735390188191
531.3968593938804
531.7931699963475
532.162423714314
532.504600030853
532.8197054531885
533.1077739235228
533.3688672070405
533.6030752525653
533.8105165214143
533.9913382801267
534.1457168528691
534.2738578294545
534.3759962250692
534.4523965880032
534.5033530520263
534.5291893304063
534.5302586487607
534.5069436140568
534.459656017252
534.3888365672268
534.2949545538579
534.1785074383138
534.0400203689459
533.8800456214369
533.6991619622108
533.497973934372
533.2771110657264
533.0372269987255
532.7789985424739
532.503124647225
532.2103253020338
531.9013403565775
531.5769282685674
531.2378647786038
530.8849415147747
530.518964529722
530.1407527732657
529.7511365039729
529.3509556433436
528.9410580765732
528.5222979040844
528.0955336482139
527.6616264196542
527.2214380484811
526.7758291848056
526.325657374333
525.8717751143295
525.415027895571
524.956252235954
524.496273711636
524.0359049916286
523.575943881714
523.1171713835471
522.6603497747799
522.2062207159811
521.7555033901417
521.308892680524
520.8670573925071
520.4306385249973
520.0002475968739
519.5764650338295
519.1598386208193
518.7508820252531
518.35007339582
517.9578540416092
517.574627195984
517.2007568694431
516.8365667954337
516.4823394728076
516.1383153083692
515.8046918627363
515.4816232024464
515.1692193609261
514.8675459107378
514.5766236492937
514.296428399897
514.0268909296911
513.7678969858292
513.5192874508804
513.280858618239
513.0523625880754
512.833507784152
512.6239595915497
512.4233411150904
512.2312340579473
512.0471797196806
511.87068011264734
511.7011991953836
511.53816422119
511.3809671997896
511.22896646952745
511.0814883772796
510.93782906293353
510.7972563448953
510.65901170274213
510.5223123528363
510.38635341230724
510.25031014644094
510.1133402942332
509.9745864665722
509.83317861122646
509.68823653861347
509.53887250216843
509.3841938270702
509.2233055810933
509.0553132813284
508.8793256303779
508.6944572754212
508.49983158336215
508.2945834251838
508.0778619625839
507.84883342986575
507.606683903913
507.3506220548791
507.07988187004923
506.7937253431949
506.49144512175747
506.1723671042661
505.83585298038724
505.48130270594817
505.1081569052874
504.7158991933055
504.3040584095944
503.8722107570346
503.4199818373039
502.9470485758792
502.45314102926415
501.93804406735256
501.40159892404256
500.84370460938027
500.2643191766117
499.6634608377474
499.0412089215683
498.3977046683605
497.733151855954
497.04781725196625
496.34203088758943
495.6161861487283
494.8707396807734
494.10621110372875
493.32318253485363
492.5222979164631
491.70426214700416
490.86984001406614
490.0198549286038
489.1551874602629
488.2767736743018
487.3856032712373
486.4827175310264
485.5692070643031
484.6462093738903
483.71490623053097
482.7765208675008
481.8323149994987
480.8835856719317
479.9316619475159
478.9779014379513
478.0236866892373
477.0704214299487
476.11952669252486
475.1724368183735
474.2305953582923
473.2954508803568
472.368452698074
471.4510465321572
470.54467011987504
469.6507487865674
468.77069099449454
467.90588388466614
467.05768882769706
466.2274370000981
465.41642500268756
464.6259105380147
463.85710816388354
463.11118514016727
462.38925738609004
461.6923855650761
461.021571314089
460.37775363412345
459.76180545822785
459.17453041314945
458.6166597902917
458.0888497411054
457.5916787114027
457.1256451283896
456.6911653533935
456.28857191242173
455.91811201577354
455.57994637693406
455.27414833987723
455.00070332271275
454.7595085843451
454.5503733195561
454.3730190865905
454.227080569895
454.1121066791702
454.02756198439954
453.9728284850422
453.94720771003665
453.94992314366965
453.98012297081493
454.03688313355383
454.11921068971196
454.2260474624318
454.35627396851385
454.508713611778
454.6821371262662
454.8752672527796
455.08678363093503
455.31532788772387
455.5595089024732
455.81790822701646
456.0890856389064
456.3715848047084
456.6639390297864
456.96467707045736
457.2723289839673
457.58543199143503
457.9025363287508
458.22221106032964
458.5430498305778
458.8636765280705
459.1827508377337
459.49897365660166
459.81109234908274
460.11790581824425
460.4182693703632
460.71109935085855
460.9953775307043
461.270155223427
461.53455711383816
461.7877847808042
462.0291198976239
462.2579270949839
462.4736564729079
462.6758457496002
462.86412203680123
463.0382032331867
463.1978990292763
463.34311151929995
