524.0
523.5405084367827
523.081489821761
522.6234198960451
522.1667823759157
521.7120480357747
521.2596889082267
520.8101662465551
520.3639270127945
519.9214244581995
519.4830952727606
519.0493629240435
518.6206298453808
518.1972803541253
517.779683460311
517.3681912384236
516.9631438983791
516.5648509243476
516.1736093444695
515.7897047821314
515.413401953886
515.0449442099205
514.6845421343172
514.3323837815985
513.9886385077889
513.6534544984547
513.3269454731748
513.0091903399333
512.7002413767192
512.4001302993438
512.1088503363693
511.8263754723353
511.55264928218213
511.28758711702164
511.0310782678403
510.7829838310439
510.54313475171705
510.31133422324376
510.08736449312306
509.8709852954763
509.661925951114
509.45990390710244
509.26460184470494
509.07568192349066
508.8927803258738
508.71550393135897
508.5434444342051
508.3761794699587
508.21325413495134
508.0542105211689
507.89857148032684
507.7458486761864
507.595537528869
507.44712306473133
507.30008358923016
507.15389008867504
507.008012344901
506.86190535440795
506.71502840628705
506.5668445992335
506.4168117295437
506.2643883109742
506.10903293799566
505.9501990216346
505.78736217962023
505.6200019012881
505.4476183299042
505.2697208040663
505.0858295234356
504.89549018388846
504.69826691634586
504.49374634262125
504.2815483192351
504.06132611150105
503.8327517230315
503.595511996436
503.3493238959081
503.0939408312878
502.8291391359554
502.5547239318434
502.2705171860603
501.97638031830866
501.6722079070349
501.35792103004394
501.0334887716623
500.6989125963142
500.35424801704016
499.9995937364371
499.6350852993345
499.2609019049575
498.8772601708468
498.4844122015886
498.0826434858746
497.67226380890094
497.25361733416565
496.82708131903865
496.3930823972164
495.95206916245047
495.50451946795164
495.05095414455553
494.591913576019
494.1279669956856
493.65972168823214
493.18780604384733
492.71287887969396
492.23560143620705
491.756663847837
491.27677430340185
490.7966592868087
490.31705074215085
489.83868603225613
489.3623120494725
488.8886805605984
488.41854792434333
487.95267049126903
487.4917999756979
487.03668303937667
486.5880542086754
486.14664640213203
485.7131752730809
485.2883366128824
484.8728036487857
484.46724184919395
484.07229346107454
483.6885732135844
483.3166639628159
482.957112238581
482.61043911744645
482.27713167336896
481.9576411709022
481.65237468340064
481.3617064976772
481.0859611771276
480.8254273616282
480.5803499984537
480.3509249275529
480.1373066158793
479.9396074627832
479.7578908674512
479.59216651509456
479.4424010110063
479.30851348024225
479.190375724199
479.0878103698963
479.00059357396344
478.9284512395894
478.8710729596367
478.8280999240961
478.7991238822901
478.7837125200524
478.78137820522335
478.7916015295307
478.8138265500605
478.84746944308716
478.89191430937865
478.94651790502735
479.01061454037114
479.0835146766385
479.1645103923366
479.25287215129134
479.3478520332801
479.44869575721094
479.554639471589
479.6649198460853
479.77877343897154
479.89543159786916
480.01413708928595
480.1341300354695
480.2546752973067
480.37505058653085
480.4945388041443
480.6124373697722
480.728062694953
480.84074092790456
480.9498154738258
481.0546717065402
481.15473349069725
481.24945988016276
481.33833510665534
481.42088460486815
481.49666911709454
481.5653207046488
481.62651155564737
481.67996030568537
481.725434054931
481.76273499872104
481.7917152890049
481.81226091434013
481.8242991573896
481.82779682158855
481.82276017603044
481.80923662757
481.78732260366553
481.7571625862301
481.718954819631
481.6729396389872
481.61939206469907
481.5586271316754
481.4909919117175
481.4168793005552
481.3366999363484
481.2509086302068
481.15999357929275
481.0644611453763
480.9648422684217
480.8616810454702
480.7555560054761
480.64706208727466
480.5367991267338
480.4253842154881
480.31345099210927
480.2016382595091
480.0905895677044
479.9809505934231
479.87336437373574
479.7684753401491
479.6669269442351
479.5693485064055
479.47636177671933
479.3885787217557
479.30659288039436
479.23098617289196
479.1623271016216
479.10115368533195
479.0479891654794
479.00332947503534
478.9676483687333
478.94140047678286
478.9250092567335
478.9188726145833
478.92335551691076
478.93880017721153
478.9655122974546
479.00377149891915
479.0538221343038
479.115881724512
479.190140863498
479.2767501646287
479.37582905469026
479.48747020764984
479.6117376754592
479.74865861343926
479.89823689033096
480.060438356237
480.23520246170045
480.4224407412305
480.62204199571397
480.8338622891612
481.05773461112153
481.2934743301493
481.5408584041506
481.7996548182301
482.0696084113997
482.3504421583674
482.64185838550736
482.94354429000055
483.2551687267944
483.57637890804
483.90680352080716
484.24607105554816
484.59379112472635
484.94956653912726
485.3129855655453
485.68362504026373
486.0610533428281
486.4448355107076
486.8345296981359
487.2296835770605
487.6298503679996
488.0345720380245
488.44338873712655
488.85584617857813
489.27149668860716
489.68989174257166
490.1105899630765
490.5331542846991
490.9571490354557
491.3821434572271
491.80770864457014
492.2334254136441
492.6588745682848
493.08364666564427
493.5073250413145
493.92950559254984
494.3497902651733
494.7677848222763
495.18311183093664
495.5954018179024
496.00429108315694
496.4094325836408
496.810489354206
497.2071434314005
497.59908964841884
497.9860317052379
498.3676825023202
498.7437577472338
499.113984662081
499.47810848492276
499.8358727448467
500.1870475974129
500.531403436472
500.8687370864354
501.1988499785586
501.52155031155456
501.8366638803984
502.14402751657997
502.44350233434346
502.73495427429395
503.0182586819944
503.2933114700003
503.5600119092871
503.8182670763651
504.06800269216285
504.30915434728234
504.54167188391176
504.7655128688622
504.98065126515735
505.18706629725995
505.38475327935987
505.5737256774373
505.7539975165539
505.92560078262244
506.08858088457947
506.2429877802671
506.3888911599171
506.52636061540375
506.6554851851256
506.7763644993838
506.889099920074
506.9938074056727
507.0906106802386
507.1796498114413
507.2610657162463
507.3350152428016
507.4016621801816
507.4611792515435
507.5137456758332
507.5595467617633
507.5987801070778
507.63165751168503
507.6583894266804
507.67919778504995
507.69431136640185
507.7039589605157
507.7083755451065
507.70780626128607
507.7025015723771
507.6927146434524
507.67870531585936
507.6607396865161
507.6390809151516
507.61400631493933
507.5857872278568
507.5546950346082
507.5210114687943
507.48501717821034
507.44698906469966
507.40720620491487
507.3659492363248
507.3235086735284
507.2801516360851
507.2361561861516
507.19179314082584
507.1473320365274
507.1030405674288
507.05917968867834
507.01599861403804
506.9737449757728
506.93266628046564
506.8929961488899
506.8549580119987
506.81877095048304
506.78464022653804
506.75276304092495
506.7233277873828
506.6965134697294
506.6724848092194
506.65138950991843
506.63335534827434
506.61850464162563
506.6069425871342
506.5987655181746
506.5940539748995
506.5928702338998
506.5952557263754
506.6012349114502
506.6108214294534
506.6240046579337
506.64075157932314
506.66102619944445
506.6847654069002
506.7118921298053
506.742304382385
506.7758795858236
506.8124766616417
506.85193813521414
506.89409463565653
506.93875871527183
506.9857187311632
507.034759094957
507.0856390675586
507.138108816372
507.1918948620391
507.24671393866004
507.3022695200678
507.3582484167989
507.4143348480532
507.4701917157286
507.5254747154933
507.57982900965123
507.63288586256687
507.68427892606144
507.7336388486114
507.7805836079607
507.82472843094945
507.86568028901013
507.9030608199912
507.9364790533641
507.9655522883377
507.9899007286527
508.00914202170804
508.0229054847754
508.0308311029801
508.0325575675585
508.0277453423005
508.01604942247013
507.997146749778
507.9707241480211
507.936485945111
507.89416178256516
507.84349715466124
507.7842615818258
507.7162371728272
507.63922467191105
507.5530470546968
507.45755072489976
507.35261331256197
507.2381296815569
507.11400871901776
506.980184887917
506.8366073487484
506.6832572171657
506.52013616536357
506.3472745428225
506.1647394654695
505.9726322234472
505.7710859403121
505.5602502032062
505.34030408328437
505.1114536882614
504.87392309800293
504.6279692644446
504.37387055509555
504.11192404778893
503.8424558560591
503.56580058143845
503.2823199080947
502.99240365503294
502.69645129965096
502.3948818128634
502.08812347759283
501.77663441363455
501.4608838501207
501.14135531294943
500.81853896487803
500.4929303613541
500.16503776928954
499.83538299023684
499.504493557993
499.17289049671035
498.8411021799487
498.5096585024661
498.1790894401668
497.8499280059824
497.52270015569593
497.19792561912925
496.8761164865142
496.55777579347944
496.2434027238094
495.93349578372045
495.62852988654777
495.32896836624695
495.0352573648296
494.7478310886969
494.4671171942518
494.1935206235582
493.9274294017533
493.6692049556674
493.41919205999346
493.17772454151117
492.9451069983459
492.7216294173501
492.50755790131007
492.3031386485084
492.1085999174323
491.9241475998037
491.7499586770538
491.58618548722166
491.43295553418056
491.2903823496952
491.1585523972917
491.03753177191044
490.9273620121132
490.8280647129954
490.7396374329794
490.66205620591734
490.59528470513624
490.53925718889883
490.4938833587566
490.4590574758572
490.4346587531935
490.4205520697541
490.4165821923939
490.42257234437704
490.4383381581776
490.46368429288196
490.4984079330989
490.5422804304095
490.59506387602823
490.65651447379173
490.72638156602164
490.80440032409706
490.8903040628196
490.9838101350901
491.08463644194995
491.19248714707334
491.30707775572256
491.4281188021978
491.5553104547919
491.68834992533834
491.8269209482749
491.9707025648398
492.1193708959974
492.2726095516361
492.4301137416733
492.5915748988296
492.7566849366392
492.92513154042706
493.0966153586636
493.27086770234934
493.4476296140109
493.6266534707781
493.8076961018926
493.99052506339126
494.17491839223266
494.3606445271968
494.5474767092353
494.73518488603446
494.9235579841936
495.1123954898416
495.30150110932664
495.49070257933835
495.6798342778415
495.8687350966115
496.05726808999094
496.2453094897543
496.43275984425435
496.6195247726808
496.805515161139
496.9906669010847
497.1749279582889
497.3582542434611
497.5406096109871
497.7219654594116
497.9023066916836
498.0816355247621
498.25997547869883
498.4373579878362
498.61382425010356
498.7894247072916
498.9642317153537
499.13832611784835
499.3118035663331
499.4847633419873
499.6573188607814
499.82958406365026
500.0016881998457
500.1737664429279
500.3459724825733
500.5184627696068
500.69139159849016
500.86492791820257
501.0392503632015
501.21454681130103
501.3910052452623
501.5688021881606
501.7481324245582
501.92919070345084
502.11217772693436
502.2972974131058
502.4847497155922
502.6747365082439
502.86745433513204
503.06309367245876
503.26184460790654
503.46388711258805
503.6693987276466
503.87856231370625
504.0915500472385
504.30852941562625
504.52965377372476
504.7550702846174
504.9849169539602
505.21931537461757
505.4583808653901
505.70221509928314
505.95091637793485
506.20456588429863
506.4632272096151
506.72696353296885
506.9958177095694
507.2698120570637
507.54895456496047
507.83323188655214
508.12262640736463
508.4170984149583
508.7165879665614
509.021014424196
509.33028474259135
509.64430195379316
509.96294102779706
510.2860509320531
510.6134784613672
510.9450440707519
511.2805616007908
511.6198231787005
511.9626105056734
512.3086820594646
512.6577755937432
513.0096282206588
513.3639552022964
513.7204661681839
514.0788640156932
514.4388352500154
514.8000577743934
515.1621954523529
515.5249080850542
515.8878440376646
516.2506459997489
516.6129566050913
516.9743909912631
517.3345570477526
517.6930557189334
518.049490043657
518.4034567170195
518.7545485579604
519.1023680716276
519.4465216168688
519.786616003052
520.1222638775137
520.4530737331609
520.7786684392418
521.0986665059124
521.4126939039357
521.720393815663
522.0214102472335
522.3153911481742
522.6019890577628
522.880872648981
523.1517252976738
523.4142370896403
523.6681076672013
523.9130578743394
524.1488218565942
524.3751501489313
524.5918061518519
524.7985712623947
524.9952345436183
525.1816085036979
525.3575295643606
525.5228434179913
525.6774120719415
525.8211162276178
525.9538510550725
526.0755459934325
526.1861299620373
526.2855665446216
526.3738343878383
526.4509317291082
526.5168697994325
526.5716879195074
526.6154447896912
526.6482164061987
526.6700937435377
526.6811824416064
526.6816067344904
526.6715244328
526.6510982127436
526.6205149052679
526.5799785449817
526.5297078094393
526.4699377500385
526.4009126875806
526.3228964778322
526.236180654276
526.1410643916764
526.0378630285485
525.9269011455706
525.8085031316249
525.6830184818336
525.5508012711249
525.4122203296924
525.2676496004652
525.1174715470937
524.9620937611666
524.801919894405
524.637364373367
524.4688450132991
524.2967689975345
524.1215646841376
523.9436498950606
523.7634461332813
523.5813840311828
523.397895853637
523.2134169863974
523.0283655348412
522.8431610005152
522.6582210257388
522.473960474234
522.2907927510289
522.1091091486661
521.9292930585882
521.7517407565806
521.57682770169
521.4049209945208
521.2363588865477
521.0714802862881
520.9106039192134
520.754036056167
520.6020718050835
520.4549810672011
520.313025105628
520.1764514170097
520.0454843622746
519.9203334388404
519.8011774787535
519.6881792749447
519.5814760893298
519.4811900006903
519.3874230876243
519.3002416261692
519.2197040012188
519.145840738984
519.0786631890415
519.018148149717
518.9642508501363
518.9169003951963
518.8760083543492
518.8414555864837
518.8131099098415
518.7908023178302
518.7743557227564
518.7635634965193
518.7581988116775
518.7580153029854
518.7627390006213
518.7720821657049
518.785735420009
518.8033709405651
518.8246412548132
518.8491758233008
518.876595050644
518.9065004005599
518.9384798944474
518.9721157636008
519.0069726712244
519.0426056853729
519.0785615460279
519.1143844096883
519.1496063760729
519.1837465119401
519.2163339289114
519.2468938944959
519.2749493311404
519.3000288963259
519.3216464322797
519.3393438193065
519.3526618724908
519.3611397691664
519.3643318135222
519.3618000614006
519.3531046282112
519.3378265292729
519.3155577037105
519.2859107727334
519.2485179440179
519.2030344700814
519.1491245775999
519.0864845117337
519.0148328282697
518.9339117877249
518.8434844848442
518.7433384558569
518.6332870646311
518.513170760139
518.3828404571206
518.242177788119
518.0910889259975
517.9295026074811
517.7573854362308
517.5747197177172
517.3815248739963
517.1778460057325
516.9637642952938
516.7393878267424
516.5048400249725
516.260285093272
516.0059120788661
515.7419255001483
515.4685732173642
515.1861130442804
514.8948339639854
514.5950467740331
514.2870745981818
513.9712561983546
513.6479424491574
513.3175189959028
512.9803830985677
512.6369489562969
512.2876464117649
511.9329130406734
511.57320598680474
511.20900311837715
510.8407690999833
510.4689758445167
510.094105349643
509.71665938957227
509.3371365896722
508.9560313932765
508.5738395157426
508.1910566676006
507.80817955445883
507.42570035949257
507.0440967536297
506.6638458317672
506.2854183698557
505.9092886601331
505.53591393227896
505.16574661572696
504.7992291249055
504.43678653478526
504.07884340439495
503.7257925001947
503.37801805281896
503.0358904551641
502.6997743661217
502.3700196367099
502.04696116401254
501.7309077328411
501.4221569879178
501.1209841224745
500.8276635008417
500.54244230758417
500.26555358561967
499.9972118227164
499.7376150491832
499.48695135268855
499.24538802408813
499.0130739098564
498.7901461161122
498.57672360566403
498.37291846271205
498.17881216346296
497.9944820780358
497.8199864063511
497.6553621423868
497.5006404883654
497.3558427685174
497.22097205513916
497.09602442265765
496.9809806444904
496.8758089638381
496.7804654643523
496.6948921892037
496.61902847292896
496.5528004802312
496.4961306729628
496.4489187276548
496.41105278101054
496.38242514738675
496.3629131780822
496.3523885662901
496.3507202449953
496.3577685459285
496.3733902653799
496.3974306240311
496.42972818121837
496.4701108268313
496.5184026421666
496.57441085076215
496.6379232404671
496.7087226149066
496.7865879816184
496.87129365415325
496.96261724739855
497.06032165054256
497.1641699956557
497.2739254341727
497.38935779553907
497.51024434762695
497.6363535256168
497.7674507235965
497.90329751859167
498.0436530395878
498.1882643155006
498.3368760937385
498.4892296064575
498.6450566567682
498.80408866967605
498.9660636019158
499.1307175329785
499.29778719095964
499.46701247203737
499.63813014964
499.8108916879038
499.9850506074835
500.16038076121566
500.3366509302442
500.513636641801
500.69111659756726
500.86887548927194
501.04670892066895
501.22441302631177
501.40178911296067
501.5786525755462
501.7548332507252
501.93017575259887
502.104528891525
502.27774594755545
502.44970678097036
502.62029857211525
502.7894206231417
502.9569846255047
503.1229104878377
503.2871440241069
503.4496397125319
503.6103653087376
503.769299668459
503.92643929073967
504.0817917506671
504.2353755132642
504.38723284049195
504.5374033314572
504.685954315253
504.83296531741047
504.97852343941344
505.12272512919833
505.26567559367004
505.4074903317366
505.5482988415869
505.6882417556814
505.8274723977712
505.96614297655947
506.1044125166211
506.2424481394012
506.38042636304937
506.51852572534864
506.65691928928527
506.7957844407812
506.9353061651776
507.0756629182976
507.21703433068944
507.35959131802986
507.50351032256634
507.6489635570067
507.7961158858571
507.9451283995437
508.09615098588165
508.249327921018
508.4047969907807
508.5626755324303
508.7230791969915
508.8861124719001
509.0518658246949
509.22041942097593
509.3918293518964
509.56614430752467
509.743396108143
509.923597010804
510.10675010704745
510.2928378049958
510.4818279250596
510.67366896473516
510.8682963605959
511.06562567903757
511.265552424922
511.4679562783733
511.6726988191134
511.8796279138776
512.0885757369339
512.299361412881
512.5117983838113
512.7256823383921
512.9407945140715
513.1568984468327
513.3737387237819
513.5910550158558
513.8085788202341
514.0260236526967
514.2430837053519
514.4594386773348
514.6747584555691
514.8887078364661
515.1009446667688
515.3111223837013
515.5188905810096
515.7238979197438
515.9257951899722
516.1242276795277
516.318842853595
516.5092827111523
516.695187019942
516.8761986751521
517.0519624766914
517.2221393000835
517.3863766837961
517.5443405023588
517.6956895758474
517.8400917676012
517.9772269192816
518.1067833331475
518.228458639993
518.3419561515277
518.4470052876472
518.543342827007
518.6307183318044
518.7088950575378
518.7776418737534
518.8367469251111
518.886016085984
518.9252603863958
518.9543182060265
518.9730425699836
518.9813016305703
518.978992236586
518.9660185067753
518.9423031340525
518.9077898016037
518.862434572785
518.8062190232409
518.7391415054442
518.6612237890932
518.5724978719688
518.473023481285
518.3628793301095
518.2421542849947
518.110955948771
517.9694124919487
517.8176701185555
517.6559015305718
517.4842926217277
517.3030466347984
517.1123750036604
516.912512124183
516.7037104447987
516.4862356176053
516.260365887262
516.0263935796095
515.7846310270482
515.5354012400267
515.2790350557173
515.0158747651288
514.7462776557079
514.4706086795692
514.1892462662214
513.9025705017125
513.6109753938114
513.3148615158728
513.0146330990589
512.7106971401213
512.4034601514983
512.0933402570815
511.7807486398181
511.46610374252765
511.1498213879413
510.8323180639087
510.5140121598515
510.1953076935545
509.87660627910543
509.5583191934344
509.2408403109845
508.9245561894163
508.60984070152347
508.2970605711382
507.9865720755908
507.6787177684456
507.3738342136839
507.0722445285366
506.77425542975055
506.48015640065273
506.1902253579039
505.9047213282171
505.62388373013687
505.347931601068
505.07707157320516
504.8114885440033
504.5513474369209
504.29678830458136
504.04792790409266
503.8048612809029
503.56766783720275
503.33640443215387
503.11110744376043
502.8917927557346
502.67845143445527
502.47104542461824
502.2695207190958
502.07379872104264
501.88377642937104
501.6993333101467
501.5203185504119
501.3465689173956
501.1779005362356
501.01411401807144
500.8549822090554
500.70025303165147
500.5496698529856
500.40294826535666
500.25979440645955
500.1198950029313
499.98292050618534
499.8485325655193
499.7163850934593
499.5861212071799
499.45736793255054
499.329743932275
499.20286737425835
499.076346382709
498.9497826989274
498.82277303362144
498.69491253093946
498.5658027253972
498.4350332066215
498.30220466171465
498.1669235732384
498.0287882069119
497.88741157978757
497.74241606293816
497.5934280543669
497.4400944954231
497.2820622012065
497.1189964764995
496.95056899837226
496.7764697071729
496.59640774329955
496.4101036116616
496.21730767536883
496.0177970406426
495.8113660974142
495.59783244697627
495.37702077682155
495.14878142230623
494.9129889704068
494.6695540244346
494.4184000966946
494.1594686834612
493.89272388361366
493.6181566614409
493.33578019957315
493.04563379226903
492.74778438453023
492.4423281881451
492.1293902318445
491.80912169322704
491.48170391041316
491.14733500510073
490.80623387592976
490.45863958473024
490.10481269975025
489.74504759610454
489.37964772964636
489.0089446408506
488.63327959079805
488.25302232107384
487.8685526023093
487.4802635992296
487.0885584648969
486.69385985881445
486.29660648497975
485.89725201913643
485.4962463911979
485.09405417488387
484.69114674019994
484.2880097949051
483.8851336025184
483.48300542712445
483.08211500456514
482.68294888179764
482.28599118396846
481.8917309638876
481.50065217159755
481.1132323552871
480.72994791070016
480.3512663912311
479.9776520393736
479.60954720171526
479.24739084330736
478.891608676344
478.5426187145228
478.20082600166495
477.86662188216286
477.5403766779204
477.2224453658709
476.9131667142977
476.6128624411478
476.3218364433097
476.040376432702
475.76874684043025
475.50719476800685
475.25594949122893
475.0152199396471
474.78519676296946
474.56604565738036
474.3579115425899
474.16091837099543
473.97517351578824
473.8007614209054
473.63774809273144
473.48617693870017
473.3460712165566
473.21744309261567
473.10028330062556
472.99455959469896
472.90021718384514
472.8171878594455
472.7453817071347
472.6846963573515
472.6350109035338
472.59618646301846
472.56807561564943
472.55051660179146
472.54333858313146
472.54635603670414
472.55937863603606
472.5821970891451
472.61459286959234
472.6563480711552
472.70723350721806
472.7670121010358
472.8354488648923
472.9122967877947
472.9973133788563
473.09024879252604
473.19085580717604
473.2988822741611
473.4140742795332
473.536176936845
473.66492838045906
473.80005545478963
473.94128864088685
474.08835926005594
474.2410208566716
474.3990359701973
474.562158816602
474.7301460933541
474.90276989254556
475.07982237012317
475.2611099796502
475.4464436875294
475.6356490438996
475.82855663568654
476.0250012252286
476.2248206836569
476.42786119215623
476.63396679034116
476.8429882341182
477.05478724786326
477.2692429851499
477.4862476224363
477.70570202811075
477.9275046484131
478.1515752322153
478.37784358173747
478.6062537516887
478.83675734489634
479.0693133605169
479.3038968847482
479.54049256082715
479.7790858210868
480.0196691892153
480.2622352610849
480.50678923221426
480.75334611321995
481.0019258084655
481.25255028285983
481.50524714021265
481.7600554824701
482.0170210193365
482.27619345521964
482.53763266767004
482.80139523476055
483.06754501955805
483.33614405394906
483.60725206592383
483.8809346499767
484.15725611195904
484.4362877675275
484.7180988259273
485.0027603909244
485.2903407014813
485.5809068793038
485.87452671911836
486.1712661965353
486.4711913485208
486.77436796521226
487.08085039325545
487.3906898853275
487.7039428561875
488.02066184121543
488.3408953152215
488.66467872201036
488.9920472480642
489.32303110816036
489.65765751051526
489.9959460773622
490.3379042372564
490.68353999375125
491.0328573128316
491.38584501995376
491.742496252823
492.1027886565592
492.4666907109356
492.8341635586103
493.2051695207766
493.57966109494964
493.9575787792273
494.3388641381975
494.72344455137056
495.11123106523996
495.5021357635209
495.8960607193321
496.2929045230479
496.692549189556
497.0948688643346
497.4997340218915
497.9070048886828
498.31653586880327
498.7281733184095
499.1417490035868
499.5570932076847
499.9740214905971
500.39234770689194
500.8118751963358
501.23240120059415
501.65371476389646
502.07559910673854
502.4978274842602
502.92017217238424
503.34240052797384
503.76428666860306
504.18559715739326
504.60609649645704
505.0255283294267
505.4436333702528
505.860163036121
506.2748562160196
506.6874508318802
507.0976797710054
507.50526888849754
507.90994373884
508.3114231038734
508.7094298937441
509.10368465798064
509.4939145701102
509.8798449642417
510.26120415175296
510.6377261022503
511.0091509873574
511.37521488361125
511.73565463896495
512.0902126353844
512.4386438819512
512.7807057456167
513.1161541864452
513.444755148094
513.7662696308122
514.0804758937128
514.3871522562955
514.6860883708212
514.9770812550693
515.2599357759593
515.5344717221865
515.8005178247134
516.0579079413866
516.3064881076579
516.5461170003894
516.7766620528593
516.9980020613039
517.2100275311366
517.4126454255082
517.6057641999307
517.7893093457449
517.9632213081688
518.1274535297131
518.2819771825592
518.4267705626594
518.5618258657528
518.6871514667446
518.8027698504968
518.9087199445247
519.0050463506775
519.091810284368
519.1690894020803
519.2369777526035
519.2955791878809
519.3450093497675
519.3854086181404
519.4169333997708
519.4397452009393
519.4540192139286
519.459937460395
519.4577037846759
519.4475281865082
519.4296395155088
519.4042763031878
519.3716907878603
519.3321486786717
519.2859178966393
519.2332789134128
519.1745285429758
519.1099618701284
519.0398934774112
518.9646415433157
518.8845382119147
518.7999180009789
518.7111171671863
518.6184861680588
518.5223691771996
518.4231163906186
518.3210920298751
518.21665397737
518.1101639213867
518.0019732658373
517.8924461665475
517.7819476929016
517.6708298856834
517.5594483336317
517.4481524359846
517.3372777962882
517.227167004342
517.1181510829539
517.0105594766768
516.9047060262897
516.8008902152643
516.6994092159109
516.6005394157929
516.5045530144151
516.4117084324529
516.3222474062354
516.2363986232989
516.1543660240627
516.0763366802345
516.0024864237696
515.9329792010428
515.8679491672336
515.8075087374126
515.7517632042601
515.700788464653
515.6546349099378
515.6133355538575
515.5768990061648
515.5453157354524
515.5185468438465
515.4965325997715
515.47919223709
515.4664216845904
515.4580959401211
515.4540649038404
515.4541513253075
515.4581641415409
515.4658901606299
515.4770990488537
515.4915287047482
515.5089011934407
515.5289212565252
515.5512683865336
515.5756152348599
515.6016089532156
515.6288831931118
515.6570570036689
515.6857338523874
515.7145095184308
515.7429603143721
515.7706552926819
515.7971553382246
515.822014556428
515.8447750516706
515.864981345332
515.8821663922014
515.8958703497507
515.9056221287883
515.9109648183631
515.9114440244041
515.9066006351021
515.8959831716403
515.8791447096572
515.855652954776
515.8250851208472
515.7870249582403
515.741072765043
515.6868400297868
515.623977080699
515.5521486561759
515.4710424734485
515.3803690751279
515.2798552913258
515.169252852472
515.0483335159196
514.9168970627261
514.7747726725933
514.6218137269115
514.4578990193371
514.2829335627634
514.0968555556702
513.8996321498946
513.6912550023661
513.4717486809083
513.2411766491454
512.9996474052865
512.747296798616
512.484294352954
512.2108517619788
511.9272074462182
511.6336285903463
511.33041290831267
511.01788357205766
510.6963994797933
510.3663412824304
510.0281191155895
509.6821781205675
509.32897982601907
508.9690140900367
508.6027911855362
508.23085137718954
507.8537503749252
507.4720555263189
507.0863660296423
506.6972894978125
506.30544474538243
505.91147544316135
505.5160244278822
505.11974724322243
504.72329709759305
504.3273294320966
503.93251298098005
503.5395013883398
503.14896170726104
502.76154825600025
502.377911494244
501.99869160680373
501.6245142577045
501.2559972751456
500.8937508720541
500.53836260976607
500.19040425691736
499.8504367315876
499.51899125619565
499.1965721840838
498.8836707148147
498.58074838087543
498.2882293472712
498.00651659757517
497.735981936892
497.47696278256717
497.22977216047565
496.99468466477094
496.77194442742535
496.56177108004954
496.3643441656542
496.1798139866746
496.0082927457199
495.8498588959018
495.7045483944112
495.57237447666625
495.4533104098949
495.34730076026034
495.25426193594416
495.17406981381407
495.10657144106045
495.05157928665
495.00887638076176
494.97822373308026
494.95935485601234
494.95198150245193
494.9557908226075
494.97044915172336
494.99560158350107
495.0308848284345
495.0759096457446
495.13028062120657
495.19357651353096
495.26537868349976
495.3452514836164
495.43274665576337
495.52742079317807
495.6288266782871
495.7365178239054
495.8500485607228
495.9689740909418
496.09286144178077
496.2212784443259
496.35380006280855
496.48999009770745
496.62942159971317
496.7716727266118
496.91632656407006
497.0630036273382
497.21133995192366
497.36098738037157
497.5116093773696
497.6628854373064
497.8145220820857
497.9662620348749
498.1178764480605
498.2691531656127
498.4198981330064
498.56994772745014
498.71916149009263
498.86741252984643
499.01458401745526
499.16058272307123
499.3053347521469
499.4487743302644
499.5908584143105
499.73157894234015
499.8709402080154
500.0089668554159
500.14571172231973
500.28123972076
500.41563584831283
500.54899104581733
500.68141851770775
500.8130547739066
500.94404122282054
501.0745297829493
501.2046750778579
501.3346528015972
501.4646342457845
501.5948023683714
501.725350432104
501.8564696795982
501.9883632907759
502.12122765031813
502.25526646518944
502.3906919374483
502.52770419330983
502.66650794574275
502.8072962810802
502.9502605944596
503.0955918170704
503.24347089617066
503.3940791093684
503.5475952966517
503.70418662477425
503.8640081509993
504.0272022862133
504.19389805678014
504.3642301021813
504.5383185818785
504.7162643899318
504.8981617633993
505.08410675062925
505.27417747150054
505.4684341040258
505.66693854733063
505.8697391625296
506.0768666361226
506.28834728132335
506.5041833556377
506.72437935553154
506.9489203056403
507.1777850328919
507.41093972647633
507.6483447991639
507.88994859522296
508.135694248201
508.3855091062999
508.6393115315091
508.89701338972765
509.1585182793518
509.42372857498026
509.6925372690102
509.96482415328
510.24045619055966
510.51930520094527
510.8012262727673
511.08607113496356
511.3736882543845
511.6639097536991
511.95656885416395
512.2514932396945
512.5485138691658
512.847447614441
513.1481060820001
513.4503044602417
513.7538463243649
514.0585302937286
514.3641522358312
514.6705008783379
514.9773666192558
515.284528479611
515.5917650966271
515.8988570403922
516.2055872703177
516.5117440644573
516.8171088278623
517.1214746859621
517.4246167601003
517.7263081135058
518.0263268743975
518.3244481761618
518.620451451484
518.9141122555814
519.2051981623681
519.4934686326249
519.7786856621967
520.0606134750195
520.3390181450998
520.6136650026389
520.88432490563
521.150776342609
521.4127989865041
521.6701716749294
521.9226901796841
522.170152452863
522.4123460072526
522.6490679115898
522.8801229995742
523.1053088932598
523.3244359722125
523.5373168479696
523.7437734272772
523.9436330217807
524.1367067412959
524.3228288838103
524.5018373324384
524.6735870479946
524.8379263956207
524.9947214850563
525.143847770059
525.2851839620755
525.4186168119294
525.5440369704055
525.6613523319947
525.7704774408181
525.8713272028486
525.9638279823474
526.0479176903183
526.1235502801376
526.1906872960385
526.2492937300999
526.299349127769
526.3408455490285
526.373778850334
526.3981530285221
526.4139867369056
526.4213155092452
526.420191978987
526.410668630259
526.3928088792601
526.3666893929543
526.3324023978012
526.2900360502028
526.2396939812071
526.181503941443
526.1155916274856
526.0420871171841
525.96114432142
525.8729189024632
525.7775834224951
525.6753117962604
525.5663008710178
525.450752754616
525.328876914259
525.2008965807393
525.0670419547422
524.9275477677787
524.7826595230904
524.6326243490215
524.4777079839547
524.3181768772808
524.1543043287944
523.9863698863928
523.8146610508331
523.6394816622668
523.4611230619528
523.2798942480376
523.0961039183629
522.9100621271901
522.7220862919014
522.5324940977632
522.3416072195461
522.1497418436763
521.9572144843376
521.7643477789125
521.5714543845589
521.3788470616593
521.1868443642437
520.9957480202894
520.8058595808981
520.6174727921299
520.4308813710792
520.2463716067259
520.0642171421149
519.884691206525
519.7080460781744
519.534531981252
519.3643852587301
519.1978297316679
519.0350759834952
518.8763139492152
518.7217251670633
518.5714732248974
518.4257029855684
518.2845419814718
518.1481040317219
518.0164864827537
517.8897675898656
517.7680038954841
517.6512297971384
517.5394593089442
517.4326812183833
517.3308717579627
517.2339878483623
517.1419560823819
517.0546812711943
516.9720529246187
516.8939344024321
516.8201673590157
516.7505697034062
516.6849379656703
516.6230518820739
516.5646726459594
516.5095281612113
516.457350936812
516.4078461516038
516.3607036611237
516.3155903485041
516.2721644400918
516.2300548518868
516.188879607345
516.1482511111872
516.107772997806
516.0670350148026
516.0256122043116
515.983070466592
515.9389743721943
515.8928907513056
515.8443771146889
515.7929852824136
515.738264897165
515.6797647744894
515.6170472966957
515.5496766070847
515.4772223140817
515.3992632820921
515.315387026495
515.2251889818087
515.1282759604887
515.0242740411576
514.912836700597
514.7936379668864
514.6663723189587
514.5307592417403
514.3865347859487
514.233447043285
514.0712797551928
513.8998497559595
513.7190022184961
513.5286036540834
513.3285390324438
513.1187323165527
512.8991315357741
512.6697154755428
512.4305045704115
512.1815541609134
511.9229542707781
511.65483818202716
511.37737578155753
511.09077802628934
510.7952772172927
510.49115299168005
510.1787123840083
509.8582872553805
509.5302510284575
509.19500012704043
508.8529748037348
508.5046405887975
508.15049370916734
507.7910576600887
507.4268818218504
507.05854212468284
506.68663715166645
506.31179077243246
505.93465270990947
505.5558815819236
505.1761540846689
504.796160896478
504.41659572692504
504.0381771506723
503.66162466996155
503.2876652966266
502.9170246706404
502.55042903104845
502.1886093486054
501.8322791893864
501.4821540965854
501.1389359748754
500.80331266183964
500.4759618578548
500.15754212011166
499.84869489895146
499.55004002530313
499.2621712732613
498.98566299712786
498.7210550845199
498.4688532322129
498.2295312781378
498.00353141977007
497.79126023718635
497.5930871411647
497.4093473410884
497.2403341227184
497.0862933709491
496.9474311330615
496.823914881836
496.7158685304462
496.623369804252
496.54645434762085
496.48510906450167
496.43928313678094
496.40887738811415
496.39374466254804
496.39369017738585
496.40849839942865
496.4378902723365
496.481543807106
496.53909921690536
496.61016425172846
496.69430893381355
496.7910782286269
496.89998092715786
497.02048949291196
497.15203992740896
497.294047011411
497.4459044330902
497.60698521125903
497.7766466831199
497.9542202588464
498.1390275066562
498.33037224066123
498.5275610650227
498.7299044815325
498.93669850345367
499.1472345052991
499.3608154717272
499.57675044156906
499.7943621434884
500.01298364777494
500.2319592407124
500.45064498532895
500.6684000042458
500.88459457266345
501.09860874433906
501.30986325246636
501.51780896221345
501.7219363570383
501.9217588414128
502.1168177745595
502.30667843644926
502.49095877662546
502.66933906673177
502.84152629323455
503.00726682544854
503.1663502815418
503.3186067887307
503.4638909851242
503.60209847430224
503.7331511481954
503.8570060880068
503.97365523522586
504.0831335942273
504.1855052957526
504.2808778519745
504.3694034406021
504.4512626561031
504.526667737651
504.595863358611
504.65912066323654
504.7167465401856
504.7690731877884
504.8164608519607
504.85929390961866
504.8979659347454
504.9328863299096
504.9644756152092
504.99317374599707
505.0194397842375
505.04374079154076
505.06655615642654
505.08836220682764
505.1096496229331
505.1309016048778
505.1526070914989
505.1752521505372
505.19930923656847
505.225254903017
505.25355267286193
505.28466665930523
505.3190425915824
505.3571064245333
505.39927596181064
505.44595292554806
505.49751516635683
505.55432855824006
505.6167304956616
505.6850507295118
505.7595931647587
505.84064406031865
505.9284605381293
506.023272270848
506.12529187331506
506.2347034650968
506.3516754962857
506.47634979988845
506.608841678004
506.74923993200105
506.89761130870653
507.05399851860506
507.2184183860441
507.3908644542671
507.5713073790028
507.759697581419
507.9559659290615
508.1600223912987
508.3717413778664
508.59099511582264
508.81764147676745
509.05151204769936
509.2924196864283
509.54016153980217
509.79451990470795
510.05525868778955
510.32212421003663
510.5948634774209
510.87320759966593
511.1568749492659
511.4455720274626
511.73898979352083
512.036817379291
512.3387339990826
512.6444228570638
512.9535522510015
513.2657761293293
513.580754145971
513.898143472026
514.2175928433326
514.5387517703882
514.8612644268464
515.1847722826236
515.5089189187206
515.8333483733825
516.1577124876266
516.4816741788052
516.8049111266686
517.1270845291724
517.4478621956508
517.7669085196046
518.0838940467054
518.39850062698
518.7104179305758
519.0193332721279
519.324927326522
519.6268914460642
519.9249253532832
520.2187303727623
520.5080111758876
520.7924928942795
521.0719035233544
521.3459827251974
521.6144775972233
521.877147185484
522.1337539122011
522.3840746849108
522.6278879272958
522.8649824255698
523.0951573575148
523.3182246906549
523.533998484449
523.7423060028744
523.9429768285722
524.1358515471472
524.3207794682717
524.4976162712707
524.6662371370306
524.8265238952489
524.9783718867081
525.1216858623163
525.2563758097348
525.3823614603657
525.4995679748718
525.6079434384252
525.7074326773212
525.7979992398002
525.8796123032923
525.9522510191618
526.0159111292649
526.0705897391783
526.1163027982378
526.1530652738614
526.1809063206507
526.1998714599982
526.2100072959955
526.2113701403453
526.2040346290837
526.188078363911
526.163588474934
526.1306548504031
526.089385138708
526.039893586316
525.9823052811562
525.9167627736232
525.8434086728912
525.7623922054305
525.6738689567835
525.5780071218294
525.4749807700236
525.3649740431727
525.2481743565135
525.1247786687663
524.9949932276489
524.8590312645922
524.7171106280397
524.5694534937797
524.4162860129211
524.2578466474056
524.094383748883
523.9261422314177
523.7533674824101
523.576322383007
523.3952651258402
523.2104641584385
523.022188990369
522.8307120684653
522.6363172955811
522.4392800389492
522.2398776524205
522.0383868043898
521.8350894913165
521.6302703831062
521.4242076391612
521.2171833020499
521.0094738872575
520.8013540871827
520.5931049375498
520.3849957171261
520.1772920416428
519.9702551464266
519.7641432486853
519.5592063871476
519.3556922922849
519.1538369348401
518.9538703855565
518.7560139210236
518.5604792672444
518.3674589929333
518.1771453969816
517.9897166801849
517.8053384883061
517.6241698903063
517.4463453026366
517.2719913370529
517.1012196011646
516.9341239474629
516.770784262378
516.6112615325745
516.4556039327273
516.303837683788
516.1559687413763
516.0119822886105
515.871851074282
515.735530769689
515.6029554751411
515.4740442699558
515.3486881295805
515.2267652481947
515.1081323595364
514.9926248277725
514.8800545714477
514.770221137535
514.6629075834985
514.557876583061
514.4548775479202
514.3536363245427
514.2538668001962
514.1552606606743
514.0575013441786
513.9602561955435
513.8631796389941
513.7659164283104
513.6681006964213
513.5693551790855
513.4692836504571
513.3674894854374
513.2635702701947
513.1571146609356
513.0477079997396
512.9349268902515
512.8183600195059
512.6975874921412
512.5721930568992
512.4417654094034
512.3058929382984
512.1641760221944
512.0162219126712
511.8616373622187
511.7000407689921
511.53107214936455
511.3543836252624
511.169643088669
510.97653343448894
510.77476500814936
510.5640641176986
510.3441836024514
510.1149004511646
509.8760068366812
509.62732271488363
509.3686951821528
509.0999956311254
508.82112549650475
508.5319955854287
508.23254199456926
507.9227392294624
507.6025891881544
507.27212762179965
506.9314239478437
506.5805787343464
506.2197254607231
505.8490411212532
505.46873304545784
505.0790322641545
504.680208585363
504.27255278134515
503.8563869490962
503.43206385981813
502.9999596231242
502.5604793083616
502.1140581698274
501.6611541511982
501.2022489775267
500.73784028601835
500.26845552910976
499.79464170830875
499.3169660496434
498.83601673630875
498.35239266590827
497.8667040691726
497.3795796228403
496.89165823644527
496.4035829766089
495.91600584049456
495.4295815580107
494.9449679359478
494.46282181485964
493.98380148876714
493.50856033163626
493.03774929169117
492.5720128474347
492.1119827601435
491.6582828087867
491.2115181120572
490.772290764242
490.3411828179258
489.91875903086134
489.5055631290283
489.10212062031195
488.70893076053284
488.3264695062208
487.9551859554029
487.5955010319923
487.24781279248054
486.9124887149566
486.58986461270075
486.2802436587882
485.98389761019354
485.70107256750265
485.4319774398238
485.1767921591196
484.93566073597225
484.7087042615015
484.4959991071156
484.29759227403883
484.1134971545412
483.9436894435843
483.7881162273376
483.64668329027313
483.51927523687857
483.40574298563234
483.30589801384576
483.2195283680772
483.14638183820995
483.0861841647434
483.0386398630694
483.0034290358674
482.98020872344864
482.96860775009276
482.9682413684792
482.97870422955975
482.9995832960609
483.03043585282546
483.07080904189235
483.1202353838353
483.17823486555005
483.2443192172284
483.3179961880369
483.39876511585356
483.48612795460804
483.57958283922693
483.67862619207244
483.7827546639403
483.8914625764613
484.00424559880713
484.120595233768
484.2400059775716
484.36197996900927
484.486035820374
484.6117133048469
484.73855200303103
484.8661091327708
484.99395981062054
485.1216909184013
485.2489369448938
485.37535968805724
485.5006305446746
485.62444995332595
485.74653408492964
485.8666211503282
485.98446208110744
486.0998370653408
486.2125301214145
486.32235141940185
486.4291395785565
486.5327572703743
486.6330955450773
486.7300715201438
486.82362380985825
486.9137209646224
487.00035234325924
487.08353200252157
487.1633025281159
487.2397257826725
487.312899907668
487.382937045675
487.4499671768197
487.51413510732294
487.57560155285586
487.63454617947673
487.69117722623946
487.74571498974746
487.79839720524893
487.8494713193144
487.89920199920186
487.94786548680224
487.99575063875966
488.04316004156465
488.0903980277233
488.13777607883276
488.18561378928945
488.234228878464
488.2839490224381
488.33510403711244
488.388029096021
488.4430570077478
488.50051487114615
488.56072943742635
488.6240324802874
488.69074225911567
488.76117786471883
488.8356451408438
488.9144532595875
488.9978986553078
489.08626654426615
489.17983009539097
489.27885396929025
489.38358925039273
489.49428150574886
489.61115701702283
489.73443537145494
489.8643136173616
490.00097668467436
490.144590165025
490.2953107060459
490.453270261955
490.6185908873529
490.7913756240311
490.9717126246821
491.1596772479813
491.3553188987385
491.5586652321324
491.7697395926663
491.988534801393
492.21503950894754
492.44922089502796
492.6910270620301
492.94038724131804
493.1972163235818
493.4614151073735
493.73285969885865
494.0114148178306
494.29692292130903
494.58921528421985
494.8881034623773
495.19338822810744
495.50484887921033
495.82225876370165
496.14536575454383
496.47391429621194
496.8076281652042
497.1462305173836
497.4894202680758
497.836892270503
498.18833789251147
498.54343504263966
498.90185365637586
499.26326556033416
499.62733485223066
499.99371048291124
500.36203387496903
500.7319509900618
501.10309394218353
501.47508860040676
501.8475642166562
502.2201409606791
502.5924281265283
502.9640376297949
503.33456888478935
503.7036328814748
504.0708391759903
504.435807199088
504.7981447452479
505.15747459188304
505.5134263030948
505.86563687336945
506.21374494336226
506.5573938516315
506.8962236319077
507.2298935252586
507.55806076585424
507.8803922657112
508.1965608648234
508.50624802386244
508.80914654292496
509.1049500281413
509.3933662976608
509.6741155409834
509.9469351596693
510.2115782116068
510.46781197355574
510.715405485103
510.95414530800525
511.1838315160459
511.404280418437
511.61531850324394
511.8167871439672
512.0085407153199
512.1904445818685
512.3623861362097
512.5242618415884
512.6759860260304
512.817497459251
512.9487507823846
513.0697189455841
513.1803891011137
513.2807562295869
513.370840705603
513.4506795811878
513.5203156048137
513.5798145565008
513.6292562994993
513.6687434049275
513.6983856796371
513.7183086812026
513.7286643897374
513.7296091788971
513.7213189011078
513.7039929532635
513.6778300181817
513.6430517608302
513.5998870125799
513.548586604622
513.4894120643125
513.4226374083515
513.3485530439535
513.2674523352979
513.1796420095593
513.0854436348536
512.9851821413198
512.8791917178556
512.7678106923964
512.6514004523343
512.530316303216
512.4049309097317
512.2756182800654
512.1427574182517
512.0067315784493
511.8679319236662
511.726739286431
511.58354285842006
511.4387392226237
511.2927228176083
511.14588076451116
510.9985985236681
510.85126544383576
510.704262901115
510.55797883703167
510.412782962061
510.2690434813792
510.1271173728934
509.98736692807086
509.8501283168829
509.7157370002243
509.5845136758557
509.456758794864
509.33277111381307
509.2128489613483
509.09726333150616
508.98627252132303
508.88011924248605
508.77902776354165
508.68320312442177
508.59283923713
508.50811185855576
508.42917593230175
508.3561496497717
508.2891442055799
508.228245515046
508.1735290454416
508.12503968942383
508.08280883253514
508.0468431271721
508.01712888238825
507.9936277583066
507.97628326099976
507.965000994544
507.9596747729226
507.96017346205315
507.9663588134891
507.9780509525116
507.99504629416026
508.01712652927284
508.04405017829
508.0755617683799
508.1113793005626
508.15121027880826
508.19474160350745
508.2416471370958
508.29157783691295
508.34416936271947
508.39904085362906
508.45580262453166
508.5140508019576
508.57336192595733
508.6333072059448
508.6934492816232
508.7533412756379
508.81253464748846
508.8705762517703
508.9269988728993
508.9813466538468
509.03316997591793
509.08200962351253
509.1273983718972
509.1688708926645
509.2059690408891
509.2382495250636
509.26527420912333
509.2866112821567
509.3018474369572
509.31057828051314
509.3124162517946
509.30697884564967
509.29389642011694
509.2728307810651
509.2434499898554
509.2054646060639
509.15860298765415
509.1026129146772
509.03726770715923
508.96235038625053
508.8776810731766
508.78310046033033
508.6784730023574
508.5636767109735
508.43860978756624
508.3032210021747
508.15747460657536
508.0013544489254
507.8348830686414
507.6581101671669
507.47112753352076
507.2740402088514
507.06699890586157
506.850173544678
506.6237508475139
506.38794689566805
506.1430019816562
505.8891754098026
505.62676873943167
505.3560922950799
505.07747524429715
504.7912622133554
504.49783174962164
504.19757343415233
503.89088675242283
503.57819496791825
503.2599261679599
502.93653373681497
502.60848202271194
502.2762342531455
501.9402552891073
501.6010273353801
501.2590483793083
500.9148199782923
500.56885070949454
500.2216465020236
499.87369845452577
499.5255054912517
499.17755553578564
498.8303328856182
498.4843189268261
498.1399929077714
497.79783292465186
497.45830409476594
497.12185560394704
496.7889353366677
496.4599628734137
496.13535911797214
495.81552569753035
495.5008464363585
495.19169519045204
494.88842403520243
494.59137799694355
494.30089460681234
494.0172883749378
493.74085310122166
493.47185740920304
493.21055523194036
492.95717216024497
492.7119334312441
492.4750530937779
492.24672561809984
492.0271285000973
491.8164138781892
491.6147307287284
491.4221968810948
491.23892561825096
491.06500193722997
490.9005113451597
490.7455162652716
490.6000631385754
490.4641915255187
490.3379148201648
490.22124472331154
490.1141784677267
490.01670139948635
489.9287939715551
489.850414752245
489.7815205069777
489.72207989047223
489.6720438519413
489.63133341963925
489.59988176258696
489.5776262549102
489.56449450153787
489.56039900190086
489.5652489123993
489.57894843013975
489.60140392818596
489.6325135894068
489.67216574459377
489.7202412413717
489.77663530778807
489.8412469949883
489.913959917498
489.99465988982774
490.08321283122655
490.17947060931186
490.28327855994917
490.39449372191234
490.51298607597454
490.63860950394326
490.7712120297579
490.91065923210664
491.05682995005577
491.2096085005846
491.3688594951831
491.5344463299338
491.7062453774029
491.8841186996503
492.06792167390597
492.2574970124555
492.4526859170975
492.65331480443206
492.85921448955634
493.07022647813466
493.28618980406117
493.50694322287376
493.7323297341663
493.9621769306748
494.1963275634146
494.4346200762477
494.6768955876853
494.9229827901205
495.17272431426073
495.42596400187745
495.68253203262003
495.94226917616805
496.20500717475807
496.47057968856825
496.73884430571746
497.00966126301654
497.28289212479166
497.55838286418606
497.83597495257845
498.1155182456431
498.39686845192915
498.67988702588866
498.9644432788181
499.25042541199974
499.5377258057277
499.82623517019135
500.115845111132
500.4064371789992
500.6978978773965
500.99012919267
501.28304832279144
501.5765900761355
501.8706876246196
502.16527507333586
502.4603119480926
502.755728911477
503.0514824750566
503.34753507542956
503.64384176544644
503.94035635135555
504.23706597614694
504.5339495786927
504.830997626169
505.1282054622052
505.4255644424932
505.7230681159735
506.0207094875659
506.31849129517354
506.61642110947685
506.9144976740639
507.21273219709707
507.5111170813744
507.8096600938533
508.10835494054874
508.40721091890236
508.7062414009077
509.00544381813097
509.3048278394203
509.6043955286337
509.9041477775923
510.20408206305603
510.50418362192886
510.8044451055219
511.10484032840975
511.4053149695779
511.7058138189006
512.0063038402808
512.306718907042
512.6069874139295
512.9070444531909
513.2068205934585
513.5062397313277
513.8052191065348
514.1036497036595
514.4014245192794
514.6984363768053
514.9945674659568
515.2896764783486
515.5836225244923
515.8762629777503
516.1674363827276
516.4569803537847
516.7447409070121
517.0305603501985
517.314269542481
517.5956995920876
517.8746741070574
518.1510213837736
518.4245381146229
518.6950224121626
518.9622561559503
519.2260332682803
519.4861488297896
519.7423838838362
519.9945316193241
520.2423954572589
520.4857832504966
520.7245017714756
520.9583709310392
521.1872183470103
521.4108675380792
521.6291391356032
521.8418561152728
522.0488399703077
522.2499263654407
522.444949946509
522.6337662729842
522.8162390120731
522.9922448986272
523.1616611035552
523.3243808541405
523.4803139924396
523.6293745095487
523.7714985657022
523.9066408338232
524.0347379786137
524.1557480715138
524.2696460026593
524.3764237154209
524.4761104791463
524.5687475169037
524.6543890950079
524.7331036276039
524.80496361687
524.8700437292913
524.9284490376672
524.9802997344935
525.0257313418379
525.064910222158
525.0980187941109
525.1252538172563
525.1468220361247
525.1629530236388
525.1738836228641
525.1798731072026
525.1811851100052
525.1781375599245
525.1710481230034
525.1602384982402
525.1460493327263
525.1288463616347
525.1090000669268
525.0869135350443
525.0629959260107
525.0376708591807
525.0113781933945
524.9845692482161
524.9577151066836
524.9312885681434
524.9057699724567
524.8816550144954
524.8594580818939
524.8397269250008
524.8230054076957
524.8098509544376
524.8008100844315
524.7964371656226
524.7972955743686
524.8039391715835
524.8169217330839
524.836795001831
524.8641130609418
524.8994323808615
524.9433097225714
524.9963134055928
525.0590243704078
525.1320115274275
525.215804624415
525.3109388311865
525.417944497551
525.5373193340205
525.6695573580905
525.8151208885384
525.9744494755703
526.1479972206232
526.3361634373198
526.5393280909939
526.7578584610211
526.9920988661921
527.2423561421479
527.5089023620396
527.7919865033153
528.0918200621555
528.4085821746385
528.7424181975456
529.0934363305578
529.4616953756839
529.8472253595456
530.2500046462471
530.6699898158914
531.1070713702708
531.5611015668209
532.0318825578449
532.5191785375223
533.0227217642453
533.5421861562527
534.0771892777283
534.627309390761
535.1920896770395
535.7710209767027
536.3635266652675
536.968999840103
537.5867992298696
538.2162457933329
538.8566351744348
539.5072135071368
540.167184054004
540.8357113693579
541.5119167225928
542.1948933219772
542.883693203419
543.5773490329628
544.2748675681738
544.9752367388903
545.6774108883706
546.3803176782438
547.0829023609238
547.7840785352676
548.4827466378196
549.1778188486111
549.868178495692
550.5527004458986
551.2302601669901
551.8997449187283
552.5600608387595
553.2101273538723
553.8488627308637
554.4752152499716
555.0881464504624
555.6866448491194
556.2697418206146
556.8364864104982
557.385965988555
557.9172892951265
558.4296066052168
558.9221144874804
559.3940407715863
559.8446595398547
560.2732927206293
560.6793427236468
561.0622578019398
561.4215413721444
561.7567434365556
562.0674625506366
562.3533429709096
562.6141040797019
562.8495280455098
563.0594542963698
563.2437714588287
563.4024393870147
563.5354848458762
563.6429993424877
563.7251125055526
563.7820038672911
563.8139206224614
563.8211581965274
563.8040953628323
563.7631486048539
563.6987964888724
563.61158658118
563.5021209868306
563.3710617944577
563.2191038339334
563.0469866167728
562.8554794911677
562.6453771211303
562.4174963508514
562.172679086339
561.9118191508063
561.635843305943
561.3456813022746
561.0422861265226
560.7266451792987
560.3997788559191
560.0627270848142
559.7164876899186
559.3621053458191
559.0006142323442
558.6330310191948
558.260373684495
557.8836322414219
557.5037917342964
557.1218288021503
556.7387239848705
556.3554373729055
555.9729022121157
555.5920230022957
555.2136582646949
554.8386247409085
554.4677252218911
554.1017131424019
553.7413319810186
553.3873115720077
553.040328149049
552.7010192785864
552.3699591161562
552.0476860830812
551.7347153412301
551.4315035479153
551.1384770281288
550.8560076519552
550.5844374561492
550.3240616592293
550.0751268539354
549.8378554595381
549.6124069178843
549.3989200223697
549.1974987301711
549.0081895333859
548.8310286473868
548.6660128614908
548.5131278977072
548.3723025956659
548.2434437099552
548.1264311210183
548.0211307771308
547.9273904957225
547.8450158756873
547.7737852811093
547.7134600247073
547.6637915243764
547.6245396785281
547.5954594211295
547.5763161031431
547.5668618131614
547.56684457981
547.5760174806658
547.5941370603498
547.620959409845
547.6562449445212
547.6997431894895
547.7512027728171
547.8104073149811
547.8771437715218
547.9512124217274
548.0324367816386
548.1206580730665
548.2157540273084
548.3175921744368
548.4260635679074
548.5410346942979
548.6624166151091
548.7901158841981
548.9240488299628
549.064148688766
549.2103902484388
549.3627424445806
549.5211775477459
549.6857085930072
549.8563771785884
550.0332355465331
550.2163267366806
550.4057015666266
550.6014333235532
550.8036000057762
551.0122774965247
551.22755900702
551.449504246726
551.6781778612677
551.9136392679325
552.1559494895151
552.4051605353399
552.6612937519893
552.9244009335844
553.1945231687233
553.4716876535575
553.7559220947807
554.0472540476628
554.3457240932471
554.651349320786
554.9641152013784
555.2840196881641
555.6110652823259
555.9451922141028
556.2863330515797
556.6343878968289
556.9892897734618
557.350945634625
557.7192585952597
558.094126558733
558.4754212105893
558.8630348894078
559.2568511748694
559.6567440053094
560.0625523049721
560.4741019083594
560.8912270229516
561.3137656911848
561.7415867041564
562.1745738038466
562.6126037075442
563.0555680161757
563.5033513789302
563.9558111030578
564.4128239808298
564.8742672027151
565.3400539728029
565.8101236136546
566.2844100141818
566.7628604112831
567.2454141479737
567.7320464692297
568.2227491509194
568.7175352192804
569.2164261866673
569.7194300068726
570.2266035778948
570.7380147075327
571.2537503235137
571.7739361192046
572.2986819647095
572.8281033632563
573.3623115060013
573.90143796832
574.4456329957147
574.9950441012378
575.5498208298786
576.1101279482408
576.6761349473057
577.2480697374451
577.8261554092412
578.4105647992616
579.0014435186561
579.5989557224228
580.2032377682945
580.8144089002386
581.4325597046916
582.0577705116668
582.6901056445562
583.3296100739404
583.9763348813287
584.6303135172577
585.291551917944
585.9600293153403
586.6356905098133
587.3184451825848
588.0081648154924
588.7046880217722
589.4078214178843
590.117317096551
590.8328784743999
591.5542051171261
592.2809437330279
593.0127250403507
593.749155729007
594.4898023190731
595.2342011373441
595.9818510596613
596.7322243788587
597.4847378719554
598.2387538293152
598.9935958216073
599.7485863486262
600.5030106807436
601.2561332799065
602.0071836444323
602.7553839087764
603.4999306122616
604.2400252448651
604.9748816019957
605.7036989962072
606.425655370965
607.1399352295746
607.8457297190554
608.5421752035285
609.2284129151134
609.9036152705978
610.5669621750156
611.2176458104182
611.8548662988779
612.477857946605
613.0859008462653
613.6782781413303
614.254294004406
614.813318054275
615.3547296016108
615.8779667354391
616.3824832329101
616.8677508240725
617.3332868618057
617.7786617846617
618.2035222590864
618.6075600752627
618.9905073942315
619.3521601837158
619.6923865797066
620.0111139620765
620.30831364994
620.5840003302982
620.8382371240758
621.0711332604992
621.2828609597716
621.4736413968423
621.6437632883326
621.7935951642103
621.9235610420754
622.0341534011296
622.1259065909114
622.1993631044865
622.2551262559077
622.2938730129166
622.3163324066921
622.3232771125753
622.3155388974808
622.2939848364787
622.2595375470155
622.2131696900312
622.1558522713855
622.0885695891204
622.0123265478593
621.9281310378005
621.8370305371162
621.7401095493727
621.638485513786
621.5332901115526
621.4256461713519
621.3166881191524
621.2075540777575
621.099366830554
620.9932497029514
620.890263000034
620.7914664170501
620.6979385060413
620.6107648424482
620.5309609985342
620.459502295996
620.3973620000627
620.345497802857
620.3048129225125
620.276174041109
620.2603941664604
620.2582062982389
620.2703063813169
620.2973350796287
620.3398441793461
620.3983258980483
620.4732333495073
620.5649665550271
620.6738524953026
620.800138300957
620.94406391407
621.1058009997626
621.2854362891989
621.4829523382385
621.6982666792759
621.9312246470686
622.1816299604786
622.4491751729292
622.7334946638583
623.0341563364337
623.350649349251
623.6824181514045
624.0288555019241
624.3892828615085
624.7629836877787
625.1491607435154
625.5469745985396
625.9555251374699
626.3738527439566
626.8009458266666
627.2357214069665
627.6770642727216
628.12382248633
628.5747942263584
629.0287648567509
629.4845188103337
629.9408393945582
630.3964782063076
630.8501794679419
631.300667329825
631.746652765601
632.1868246436061
632.6198640911605
633.0444695010159
633.4593423844724
633.8631839245669
634.2547220491797
634.6326902917572
634.9958480269697
635.3430054671485
635.6730053235126
635.9847241766442
636.2770494944734
636.5489063809421
636.7992667202963
637.0271210214921
637.2314954036902
637.4114592197271
637.5661303232152
637.6946892109933
637.7963670307935
637.8704534499113
637.9162651672347
637.9331839747523
637.9206265867545
637.8780467371471
637.8049585587086
637.7009072041889
637.5654850688194
637.3983943134058
637.1993836460698
636.9682356542501
636.7047778553384
636.4088693532549
636.080401954975
635.7193006434176
635.3255345543374
634.8991189708706
634.4401266909376
633.948676161326
633.4249243442488
632.8690773172327
632.2813637830551
631.6620233762345
631.0113224630078
630.3295739229065
629.6171159157756
628.8743194049471
628.1015759113229
627.2993071744972
626.4679573428717
625.6080030993538
624.7199332461793
623.8042453390402
622.8614263992928
621.8920011859302
620.8965306689529
619.8755690001832
618.829670314404
617.759419488078
616.6654062849976
615.5482282526758
614.4085158434144
613.2468986986077
612.0640268098264
610.8605793718758
609.6372549130066
608.3947286863399
607.1336748914986
605.8547729778926
604.5586898260493
603.2460672899023
601.9175853449192
600.5739166400707
599.2157849195869
597.8438971845715
596.4589677385427
595.0616738043785
593.652713767306
592.2327845108898
590.8025826683009
589.3628280969901
587.9142177863225
586.4574275070405
584.9931389802176
583.5220054464306
582.0446961058477
580.561864286166
579.0741484384749
577.5821884633241
576.0866138144781
574.5880581861129
573.0871351068131
571.5844376530057
570.0805600577141
568.5760623629772
567.0715136760592
565.5674303543332
564.064310117215
562.5626174414405
561.062812532718
559.5653368558811
558.0706364256733
556.5791244561681
555.0911769100644
553.6071429568296
552.1273596539176
550.6521427588096
549.1817888798266
547.7165801178918
546.2567691739569
544.8025819195261
543.3542088409109
541.9118315033348
540.475592290516
539.0456208907632
537.622050148906
536.2049956231102
534.7945465363151
533.3907697699397
531.9937134775467
530.603397288866
529.2198284808051
527.843018398892
526.4729664021073
525.1096658722886
523.7531062262084
522.4032638148205
521.0601169078691
519.7236433857995
518.3937892466047
517.0705019416434
515.7537308581308
514.4434213801059
513.1395352286098
511.842035803204
510.55090215628223
509.26612106386955
507.98766801709036
506.71553161643
505.44971596259643
504.19024121562
502.9371421107253
501.6904798869914
500.45034614481716
499.21683864769494
497.9900366263958
496.7700299942976
495.55692157615874
494.35083551871907
493.15190160170806
491.9602611472549
490.7760814989905
489.5995334738899
488.4308191087699
487.27016920279027
486.1178196170237
484.9740091611026
483.8389902327623
482.71303293184434
481.5963962099754
480.4893510506994
479.3921948285048
478.30520897073256
477.22867753294764
476.16286575723814
475.1080417092466
474.0644800283348
473.0324860235602
472.01235513551484
471.0043742358416
470.008851600549
469.0260883029206
468.05634041697317
467.09987029789136
466.15690778494894
465.22769213221926
464.3124441947797
463.4113938277018
462.5247663317569
461.6527561463629
460.7955265346753
459.9532192551261
459.1259816259021
458.31395732390854
457.5172534487814
456.735962171227
455.97015372616414
455.2198781401867
454.4851715620465
453.76605163037186
453.0625151027411
452.3745332171068
451.70205134306997
451.0450149937425
450.40334347700735
449.7769476455368
449.16569716206806
448.5694708862021
447.9881335450381
447.4215282414393
446.8694709316814
446.33177069470287
445.8081907602717
445.29849677980627
444.8024485287103
444.31980967511424
443.85032713369355
443.3937280403039
442.9497341004316
442.51804075256763
442.09833543457154
441.69029806488425
441.2936082008597
440.9079325672657
440.5329433716347
440.16829291582326
439.8136116315725
439.4685252568004
439.13266990951195
438.80568794532115
438.48721538369443
438.1768936197723
437.8743571387712
437.5792386045224
437.2911606413244
437.00975155205623
436.734637085656
436.4654431113785
436.2018026373816
435.9433542462902
435.68973195117616
435.44056800889234
435.19549979385937
434.95418784302404
434.7162970893894
434.48150459021747
434.24949432508623
434.0199453376004
433.7925592744357
433.56702887374166
433.3430541202511
433.1203448584039
432.8986122979832
432.6775667125427
432.45691898665865
432.2363928141135
432.01574161951066
431.79475960439714
431.57324753110026
431.35100499753145
431.12784870878943
430.9036131379588
430.67814232638193
430.45130812512923
430.222960646811
429.99295880926474
429.761193796952
429.52757350721265
429.29202038482225
429.05447572786295
428.8149064812772
428.57328169703595
428.329565900929
428.08376889411903
427.83591727801405
427.5860704231942
427.334297298929
427.0806595183934
426.82522183466386
426.568077453074
426.3093387773137
426.0491303836021
425.787592823566
425.52489775204765
425.26123052544136
424.99678826168787
424.73176666648396
424.46637695135735
424.20083406901875
423.9353599230194
423.6702151737008
423.4056904227772
423.14206076249616
422.8795921144731
422.61855093430876
422.3592180285305
422.10189375343066
421.8468771416933
421.594488968371
421.3450579524002
421.0989116175656
420.85637594669146
420.6177770742674
420.3834604887155
420.15375127234836
419.928968758217
419.7094385725695
419.49549162061766
419.28743912690146
419.0855889195381
418.8902662079327
418.70178027784914
418.5204194550608
418.34648955808143
418.1802803779865
418.02208037001776
417.8721540792286
417.73075211397986
417.5981232834658
417.47449617740875
417.3601046239877
417.25517189481826
417.1599169577054
417.0745303202595
416.99918480688984
416.9340394026979
416.8792519277308
416.83496807363207
416.8013238022378
416.7784214296901
416.7663446885462
416.765162496678
416.7749305801355
416.79569318445
416.82747403130577
416.8702782982828
416.92409224496396
416.98889375947425
417.06464562799886
417.151299869077
417.2487847380628
417.3570116950338
417.475884538492
417.60528883056577
417.7450965711704
417.89515116303033
418.05528070167907
418.22528041647934
418.40492994795807
418.5939971268278
418.7922442107001
418.99941484394554
419.2152362488406
419.4394302312365
419.67170709138804
419.9117664577777
420.1593026116906
420.41399466654656
420.6754789713601
420.94338215722723
421.2173367082498
421.4969597637442
421.78185382964693
422.07159628454775
422.3657547251071
422.66391571523417
422.9656640350689
423.27057076150953
423.57819008457074
423.88806695053853
424.1997267442517
424.5126886297322
424.82649205183606
425.14068458139025
425.45479899892854
425.76836297602756
426.08089555441796
426.3919209010552
426.70098237947735
427.00762859273436
427.31139944349286
427.61184269224265
427.9085062646911
428.20094355007353
428.48871194490425
428.77137119980165
429.0484992648972
429.31968644351815
429.58452739054
429.84263263039594
430.09362030547624
430.3371075401969
430.5727231386623
430.80014035755215
431.0190560028727
431.2291897920914
431.43027952192875
431.62206081060674
431.80429238407976
431.9767437194828
432.1391998914798
432.2914729282064
432.433406846005
432.5648567723816
432.6856961136727
432.7958322780799
432.89520753520856
432.98377581735485
433.06150544144845
433.1283859762281
433.1844369695241
433.22969436794585
433.2642387196343
433.2881736640476
433.30162835558616
433.30475528043354
433.2977171494431
433.2807106519163
433.2539573552756
433.2177011807647
433.17221896605395
433.1178091547074
433.0547848133289
432.9834531220892
432.9041599516432
432.81728415830537
432.7232278343234
432.62240007174665
432.51523993458113
432.4022000700823
432.2837701178664
432.1604524511815
432.0327598721845
431.90121304275965
431.76632875750676
431.62864496041226
431.4887172682972
431.3471156949439
431.2044170045056
431.06120139909723
430.91804235655917
430.77552243958127
430.63424926862393
430.4948214887717
430.35783633107076
430.2238792535835
430.09354628552643
429.967418423053
429.8460974758166
429.7301833840762
429.62025830672286
429.5168923598382
429.4206448594747
429.3320610288063
429.25166840465147
429.1799884112404
429.1175371947187
429.06479602891886
429.0222296628955
428.990295976358
428.9694340675807
428.9600500217924
428.96253974476406
428.977277009379
429.0046282266685
429.0449281591185
429.0984882838149
429.16558972246526
429.2464739664874
429.34137291883707
429.45050858702126
429.57407381587234
429.7122461278329
429.8651640676338
430.03294059241324
430.21564573170264
430.4133261922074
430.62602480941564
430.85376319280925
431.09654006808137
431.3543187578757
431.62705188183696
431.91466460729566
432.2170664105169
432.53415415175357
432.8658000954511
433.21187285752364
433.57221693890233
433.9466695573383
434.3350601273947
434.73720775285886
435.1529297592884
435.5820351612848
436.0243137061736
436.47954177473986
436.9474943915873
437.4279462788112
437.9206598036662
438.42541455737637
438.9419866648215
439.47014768067226
440.0096719236051
440.5603259816543
441.1218774188421
441.69412311212926
442.2768523207095
442.8698643117959
443.4729594274108
444.08595638543676
444.7086792653464
445.3409929353811
445.9827600686376
446.6338398840546
447.29409505070055
447.96340929289744
448.64165906264975
449.3287308284877
450.0245296338851
450.72895705124023
451.4419216422806
452.16334041285
452.89313131816056
453.6312142778769
454.37752751746405
455.13202493160276
455.89465627452773
456.66536654520917
457.44409941567193
458.2308072994746
459.02542421591176
459.82787987961876
460.6380871499026
461.4559533161925
462.2813892190699
463.1143055723412
463.9546187212366
464.8022239804908
465.656999419858
466.51880714314177
467.3874944077827
468.26289702782077
469.14483208844666
470.03311254951166
470.92752670751554
471.827839800763
472.7338110480519
473.6451670515125
474.561616646302
475.48286567656874
476.4085861453931
477.3384290897501
478.27201563907204
479.2089739300228
480.148915210936
481.09142595615117
482.03608394655936
482.98244147943313
483.93001722189996
484.8783251430838
485.82686637774793
486.77513433597346
487.7226113206124
488.66877643603584
489.6130895782606
490.5549950609627
491.49392716945897
492.429315645972
493.3605758317075
494.28711831376967
495.20836533790236
496.12373022043573
497.0326073878192
497.9344169413118
498.828572908914
499.7144822846469
500.5915657015586
501.4592674605808
502.3170487944089
503.1643591967064
504.00064449513224
504.82536093718255
505.6379848421872
506.4379983235836
507.2249165173895
507.9982582077025
508.75755134507415
509.50234705525196
510.2321941045821
510.94666989192996
511.64536533265033
512.3278893680274
512.9938646050335
513.642924874454
514.2747300694592
514.8889725022593
515.4853486210762
516.0635720201825
516.6233663348299
517.1644910269952
517.686712694063
518.1898179720312
518.6736155783706
519.1379319263547
519.5826244354954
520.0075710767435
520.4126555057434
520.7977828501112
521.1628560995823
521.5078000813146
521.8325456133018
522.1370596156698
522.4212897580294
522.6852071289724
522.928811871871
523.1521130228155
523.3551280007488
523.5378864867514
523.7004277559282
523.8428131422891
523.9651191750603
524.0674355052826
524.1498606165951
524.2124997001832
524.255460221947
524.2788535860519
524.2828163155186
524.2674966919797
524.2330504126293
524.1796427295794
524.1074351910125
524.0166007401755
523.907316799567
523.7797888965305
523.634228744469
523.4708434121372
523.2898502480726
523.0914785198295
522.8759736209443
522.6435907626599
522.3945799912242
522.1292014685863
521.8477251696431
521.5504439819891
521.2376431712206
520.9096067160017
520.5666476313274
520.2090750092556
519.8372226354682
519.4514231252333
519.0519969996511
518.6392850468276
518.2136369956785
517.7754357619208
517.3250386250445
516.8628098251917
516.3891421458211
515.9044108961709
515.408997688079
514.9033118575996
514.3877663695777
513.8627801595991
513.3287649501825
512.7861380153754
512.2353171864321
511.6767289774873
511.1108103875058
510.5379911522723
509.9587086107416
509.3734093905047
508.7825447750332
508.1865617432532
507.58591360073706
506.98105768400535
506.37244411946887
505.76052398112375
505.14576436470327
504.5286132467181
503.9095186032698
503.28891874492007
502.66725453359896
502.0449752857408
501.42251638220716
500.8003094973411
500.17878835007974
499.55835929361086
498.9394351450535
498.3224232034374
497.70772871373265
497.095758707796
496.4869064330983
495.8815553572684
495.2800809719629
494.6828504986291
494.0902227385059
493.50253688552857
492.92011193704053
492.3432701785869
491.7723193571608
491.20755466152934
490.64924739828933
490.0976619363247
489.5530465226722
489.01563506809805
488.48564454057356
487.9632634446643
487.44865301858033
486.9419568211749
486.4433124879464
485.9528685333099
485.47074727385615
484.99705397575474
484.5318572982734
484.0752177643661
483.6271681449747
483.18771104977816
482.7568360113929
482.3345126021849
481.9206991649901
481.51533871667334
481.11833949081256
480.72960123240875
480.3490001258878
479.97638700530723
479.61159860099286
479.2544601946555
478.9047753094537
478.5623238677935
478.2268711510774
477.8981616511784
477.5759260068723
477.2598903319088
476.9497751032382
476.6452900753001
476.3461071745821
476.051902919587
475.7623464477742
475.4770855592354
475.1957497731131
474.9179617390871
474.643342076301
474.3715234434151
474.10212784011605
473.834772279175
473.5690719962428
473.3046459643635
473.0411183926713
472.7781025812553
472.5152195382539
472.25209471570975
471.98835488506467
471.7236492654557
471.4576202662884
471.1899133454649
470.9201753561218
470.64807682699563
470.37331053082715
470.0955615583119
469.81454963323523
469.53001050048294
469.24167496051774
468.94930213350295
468.65266680006505
468.35157768870914
468.04585888316217
467.735353225765
467.41991902966527
467.0994375562506
466.77382061882713
466.44299643875746
466.10690832090273
465.7655261047145
465.4188400617556
465.0668590218785
464.709619194796
464.34717092089625
463.97958914967944
463.6069683108563
463.22944349241266
462.847161544947
462.46030901880107
462.0690921616222
461.67373898912007
461.2744992138086
460.87164417291393
460.4654555220009
460.05624665440126
459.6443446973387
459.2300964361107
458.81385868518134
458.3960037352142
457.9769224696452
457.55702087200126
457.13671429727697
456.7164369081586
456.29663584114707
455.8777677533569
455.46030197652476
455.0447191890965
454.63150142942726
454.2211353316886
453.81411088649395
453.41092005615917
453.0120597232608
452.6180216217615
452.2292953610566
451.84637365949123
451.46975561803555
451.0999436677267
450.73742092358987
450.38264997535384
450.0360822799598
449.69815225435934
449.36929093238274
449.0499156320842
448.7404285567391
448.4412242854454
448.15267766638493
447.87514056110297
447.6089385448733
447.3543695575445
447.1117177853078
446.8812259400598
446.6631199176537
446.4576139814641
446.2648902063555
446.0851087237512
445.9184072018134
445.76488310128667
445.62460426046414
445.4976151442944
445.3839235963891
445.2835028557926
445.1962912370768
445.1222005625712
445.0611206673464
445.0128933764937
444.97733874790333
444.9542509862388
444.94339913558997
444.94452131502055
444.9573277130887
444.9814992125565
445.0166993457243
445.06256909907864
445.1187108837007
445.1847051312816
445.26011585458053
445.3444877039234
445.4373409807025
445.53817743309315
445.6464993131101
445.7617893777933
445.883530495638
446.0112081676811
446.14429809891425
446.2822647276085
446.42456156299215
446.57065102847787
446.7199936809064
446.8720592081763
447.0263376649348
447.18231359450976
447.339490146642
447.4973647734369
447.6554483309422
447.8132619327414
447.9703532078611
448.1262883337019
448.28065716423856
448.43307402719677
448.5831764092661
448.7306277794272
448.8751312965758
449.0164220134307
449.15426804584575
449.288476275977
449.4188894603081
449.54538120730115
449.66783977781904
449.7861973991156
449.9003934629787
450.01040054791133
450.1162215224888
450.21790402113015
450.3155222174007
450.40919362327696
450.49906085776314
450.58530397912654
450.66812874146626
450.7477679805253
450.82448724008617
450.898575010808
450.97033947474716
451.04011823479937
451.1082659880897
451.1751508381335
451.2411592595647
451.30669431414987
451.3721604672477
451.437974496997
451.504569786895
451.57239416038385
451.6418926146403
451.71350962245975
451.787695696322
451.8649053437073
451.9455973618362
452.0302156014022
452.11917825321024
452.2129039084545
452.31180040405314
452.4162714496314
452.52671935727716
452.64352189983174
452.76704202969086
452.8976289434235
453.03559960679735
453.1812441542407
453.33484208771836
453.49665695355975
453.66693152570974
453.84588091305096
454.0337077111905
454.23058460350984
454.4366499123205
454.65202276304075
454.8767876368513
455.1110049460539
455.35472395724844
455.6079699105754
455.870737899731
456.1429955480918
456.4246943776722
456.7157571958062
457.0160829643158
457.3255537791169
457.644037785811
457.9713834989699
458.3074185961335
458.651953180332
459.0047807924241
459.36567940420906
459.73441457272475
460.1107294822137
460.4943523480425
460.8850148105158
461.28243785172697
461.68632431427187
462.09637313388544
462.5122739599547
462.93371487960735
463.360368035913
463.79190574407176
464.2279858394271
464.6682607497
465.11238855319976
465.5600290593034
466.0108444988709
466.46449801068826
466.92064997327367
467.37896078518696
467.8390846795654
468.30068540238204
468.7634124449673
469.2269318637924
469.6909157202698
470.1550493672356
470.6190103961299
471.08248235564037
471.5451486005728
472.0067014312903
472.4668491756702
472.92529501716683
473.3817352149583
473.8358808983279
474.2874492357861
474.73615475997025
475.1817092052443
475.623827622038
476.0622433535988
476.49669035530354
476.92691640677236
477.3526747113992
477.77372859703763
478.18983864053604
478.6007782619172
479.0063186663156
479.4062421592748
479.80032257428263
480.18834923939795
480.5701182020218
480.9454257147127
481.31407248251867
481.67587886718087
482.0306674347752
482.3782608776058
482.71849520781626
483.0512177372913
483.37627859175416
483.6935375858986
484.00287337987777
484.30416209676576
484.5972819868393
484.8821266823875
485.1585988951993
485.4266172236598
485.68610548538726
485.9369884904495
486.17921175532683
486.41274413150325
486.6375653879513
486.8536647060957
487.06103034749583
487.2596563513392
487.4495598955373
487.63077038417833
487.8033164143206
487.9672564168828
488.1226635648987
488.269610747456
488.4081835560481
488.5384887607587
488.66063893037165
488.77475665572337
488.8809829611413
488.9794683719548
489.0703858712151
489.1539243745474
489.23027366563844
489.29962421781073
489.36217966541363
489.418156165485
489.46779077600996
489.51132364657593
489.54901309667247
489.581124560881
489.60792602511077
489.6296985598426
489.64672048158883
489.65928426696155
489.66769157245983
489.67225052749586
489.6732708270002
489.6710673660331
489.6659661017287
489.65829483881737
489.64838042257423
489.6365435885967
489.62311344770336
489.60841779879564
489.592795463883
489.5765803232616
489.5601095117696
489.5437163461813
489.52773647935237
489.5125031679778
489.49833578507514
489.4855522600097
489.4744661140981
489.4653856451046
489.4586175977545
489.4544556296094
489.4531862434208
489.45508802118655
489.46043539869476
489.46948719212827
489.4824967742033
489.4997047651197
489.5213472553681
489.54764008056475
489.5787935993394
489.615005564137
489.6564561514847
489.70331842842444
489.755753824499
489.81389430310594
489.8778568816965
489.94775161353795
490.0236746249932
490.10571012646653
490.193919321054
490.28834455629834
490.3890134549436
490.49594093791035
490.6091115890718
490.72849905037816
490.85405909677206
490.9857272688689
491.12341648956675
491.2670344061587
491.4164592972844
491.57155748714706
491.7321812039158
491.8981689115327
492.06933469217347
492.2454728866061
492.42636506545887
492.61177391911406
492.80144365995744
492.9951048493687
493.1924728104035
493.39324156709273
493.5970974773327
493.8037134261
494.01275182416504
494.22386989923683
494.4367054013448
494.65088638160057
494.8660344642266
495.08175713766826
495.2976508434795
495.5133016833584
495.7282904037504
495.9422129392291
496.1546533079056
496.365182699063
496.5733646630126
496.7787800219681
496.9809993926679
497.1795950561748
497.3741529351681
497.56425846817416
497.7494932714267
497.9294557584739
498.1037491231057
498.27198237752947
498.43378886565336
498.58880113276945
498.7366673241004
498.8770590334114
499.0096751740747
499.1342198454713
499.25041297227904
499.3579896629632
499.4567059419404
499.5463378279467
499.6266890736938
499.69758593642314
499.7588674338734
499.81040589492375
499.85209674210944
499.88385246044277
499.90561810327654
499.9173735720014
499.91912067451875
499.9108940902357
499.89275923877693
499.86480803567946
499.82717222156214
499.78001055242936
499.7235112212856
499.65787877984667
499.5833403656304
499.5001514905504
499.4085950212997
499.30898885948454
499.2016717835164
499.0870112057868
498.9654043005147
498.8372637979863
498.70302548959927
498.56313801131427
498.41807881162106
498.268348319533
498.11445549218024
497.95692955406287
497.79632078964335
497.6331838829215
497.46808304525837
497.30158388415356
497.1342692670791
496.9667201178241
496.7995179418632
496.6332405985439
496.4684623192036
496.30576459294383
496.14572545828565
495.9889089427192
495.8358629669705
495.6871214472437
495.54320408946086
495.40461840800856
495.2718554236237
495.14538770070857
495.0256586943687
494.91310071087895
494.80810929110993
494.7110503050476
494.622267046562
494.54207669498277
494.4707625661457
494.40857533853955
494.3557277986205
494.31240260476005
494.2787427425402
494.2548508813275
494.24079534963835
494.23660751657064
494.24227714533873
494.2577543731538
494.2829582683539
494.31777038228125
494.36203298527903
494.4155517375958
494.47810070471155
494.5494166362195
494.62919548307957
494.71710208826585
494.81277569073217
494.91582477226103
495.025837496842
495.1423772062965
495.2649782342078
495.3931504901004
495.5263706327831
495.66411477009206
495.80584356850693
495.9510074439274
496.0990472657982
496.2493929542306
496.4014753768933
496.5547140958866
496.70853565473504
496.86237659978
497.0156822149079
497.16790975940637
497.3185317730189
497.4670172117838
497.6128493269492
497.75553427577233
497.8945941295211
498.02956170970316
498.1599991075029
498.2855051524896
498.4057097171006
498.5202746245311
498.6288944748819
498.731288518205
498.8272273631305
498.91652936329336
498.9990486478692
499.07467845938174
499.1433633321981
499.2050806820375
499.25984178633604
499.3076946593473
499.34871774142647
499.38302618961313
499.4107647201111
499.4321218168248
499.4473196135738
499.456612473696
499.46029860146484
499.45871868926946
499.45225250481246
499.4413003081968
499.42629024089916
499.40767451095826
499.385925580686
499.3615275535166
499.3349956963343
499.30685439928845
499.2776501660233
499.2479360517076
499.2182646587625
499.18920944450315
499.1613445880725
499.135233601322
499.11144395026514
499.0905354354562
499.07307281012856
499.0596035213991
499.0506704968649
499.04680538636035
499.0485242946612
499.05633028979565
499.07069837921574
499.0920845797485
499.12092209108977
499.1576220323598
499.20257437116453
499.2561381099278
499.31863808765354
499.39037486365856
499.47161720142674
499.5626079807834
499.6635483818116
499.774612749542
499.89594824119814
500.02767024220117
500.1698601594715
500.32256111105994
500.48579338551156
500.65955043142935
500.84378407291257
501.0384247412773
501.2433691390819
501.4584877401972
501.6836235276626
501.9185953378796
502.1632057548339
502.41721625507734
502.68037035039214
502.9523904305384
503.232981265706
503.5218269335727
503.818596526874
504.12294341673703
504.43450895381994
504.7529173230196
505.07778128431687
505.4086968131381
505.74525507356856
506.08704580715704
506.4336500412112
506.7846481183772
507.13960122423947
507.498078607835
507.8596498847111
508.22386638574955
508.5902946987672
508.9584998642604
509.3280550459893
509.6985337184611
510.06950605236415
510.4405393491435
510.81121132432725
511.1811014793699
511.5498089441746
511.91694666970295
512.2821226183117
512.6449579841966
513.005083627505
513.3621475997094
513.715807316542
514.0657217537604
514.411561030827
514.753000474478
515.0897343268632
515.4214563979414
515.7478687788224
516.0686816709581
516.3836153200447
516.6923995288647
516.9947775094869
517.2904989561094
517.5793328682921
517.8610564654023
518.1354573371451
518.4023466426991
518.6615351758468
518.9128443481004
519.1561084304639
519.3911745663569
519.6178961770742
519.8361217958878
520.0457231348685
520.2465684492247
520.4385439266312
520.6215555189622
520.7955290133799
520.9603884516358
521.1160695349713
521.2625175940557
521.3996854889867
521.5275469534635
521.6460705368769
521.7552370856943
521.8550419385499
521.9454862114407
522.0265898926496
522.0983765237374
522.1608863510158
522.2141632007273
522.2582564996175
522.2932275503805
522.3191513584213
522.3361075934521
522.3441890775385
522.343494980032
522.3341393500308
522.3162377425233
522.2899179337489
522.2553219578767
522.2125907151798
522.1618680995767
522.1033049060507
522.0370693303366
521.9633468064966
521.882318195183
521.7941663006858
521.6990799409333
521.5972536828326
521.488891847921
521.3741992868361
521.2533876640457
521.1266641377159
520.9942527578191
520.8563744923866
520.713251321782
520.5651168000774
520.4121894257722
520.2547050911033
520.0928992659522
519.927011167976
519.7572791908187
519.5839406701771
519.4072337514142
519.2273970825825
519.0446695207493
518.8592898021535
518.671500651234
518.4815420630747
518.2896511138491
518.0960572594303
517.9009951484519
517.7046890027199
517.5073742014318
517.3092751161082
517.1106135339495
516.9116216615672
516.7125158512665
516.5135072786252
516.3148102867721
516.1166311402203
515.9191788069712
515.7226605252773
515.5272751837945
515.3332197314926
515.1406802241563
514.9498358488779
514.7608673718134
514.5739459918443
514.3892462585604
514.2069327815761
514.0271512119082
513.8500497001684
513.675771906919
513.5044567695072
513.3362361249192
513.171232278993
513.0095555234541
512.8513124905353
512.6966058022659
512.545527202415
512.3981528738718
512.2545584454393
512.1147989913792
511.97892836438933
511.8469945634402
511.7190286411111
511.59505107095214
511.4750737486316
511.3590976295775
511.2471102818206
511.13908559305025
511.03499458436704
510.9347900400206
510.8384196542377
510.7458195158324
510.656907475538
510.5715763476011
510.4897132010538
510.41119904313047
510.33589774562455
510.263660370043
510.19432281463565
510.1277144854068
510.06365407316133
510.0019520290706
509.9424045250536
509.88478735592196
509.82886932781867
509.774408138064
509.7211529628963
509.66884505230524
509.6172184221314
509.5659917445619
509.51487779206883
509.46357975440037
509.4118029205662
509.359231502792
509.3055556818901
509.25045712990527
509.19359895394086
509.1346482037662
509.0732721155397
509.0091432433177
508.9419314950727
508.8712960949731
508.79690376911265
508.7184230254384
508.6355250048464
508.54789969954845
508.45522418390465
508.3571810113759
508.25346988696606
508.14380211672
508.02789299549545
507.9054826598148
507.77633329000423
507.6402069368404
507.49688941281545
507.3461725378385
507.18786450902337
507.02179567846423
506.84781775126044
506.66580744339427
506.4756504339889
506.27725563639
506.07055155442976
505.8555020645829
505.63208279293013
505.4002967443472
505.16017209207087
504.91177742266575
504.65520872728797
504.3906029257936
504.118112130023
503.8379171077611
503.55022519589653
503.25526797217213
502.95330971753157
502.6446471209255
502.32959569616867
502.0085022874481
501.68173776167305
501.34970046403896
501.01281959241544
500.67154108315987
500.3263374770013
499.9777067072475
499.62616433464507
499.2722510597584
498.9165182219435
498.55952624486764
498.20186483401125
497.8441294440758
497.48692821375755
497.1308844181579
496.77662151744744
496.42476780773
496.0759631331761
495.73084812847117
495.39005345584144
495.05420630375124
494.72393247976777
494.39984540747867
494.0825614218982
493.77267151287964
493.47075446134147
493.17737021964876
492.8930621906233
492.6183551420971
492.35374668129367
492.09970527999644
491.8566770007653
491.6250770169755
491.4052966164627
491.19769735467685
491.0026032075076
490.8202993857654
490.65104885939223
490.49507856608034
490.3525680322002
490.22366209414344
490.1084706318793
490.0070597462887
489.9194539270343
489.8456381740947
489.785557934068
489.7391280361175
489.70623331918347
489.68672084805365
489.6803988320263
489.687044380688
489.7064048754082
489.73819518725617
489.7820950606856
489.8377662472524
489.9048413456557
489.9829214822919
490.07160251191306
490.170451111111
490.27901811937807
490.396867483921
490.5235467056762
490.6585947470184
490.8015409507982
490.95191902880845
491.1092659237767
491.2731230340916
491.4430395900922
491.61858468509087
491.7993262795493
491.9848670175936
492.17483207116334
492.3688568839197
492.566598519848
492.7677356436088
492.97196129111705
493.17898133637743
493.38854299181634
493.60043468517415
493.8144861236152
494.030564144073
494.24856621901415
494.46842243975135
494.6900972087198
494.91361066419864
495.1390342281172
495.3664756877011
495.59605983232007
495.82796337965516
496.06239744099406
496.29959870178334
496.5398199875004
496.78334191176947
497.03046206084684
497.2815122966563
497.5368497429617
497.7968542898194
498.0619282088539
498.33249133518257
498.6089761633616
498.89182730547725
499.18150095943497
499.47846222442223
499.78317377597796
500.096084381697
500.41764344021243
500.7482913963568
501.0884478854577
501.4385260219029
501.79890950267276
502.1699646959258
502.55204849872
502.9454836860357
503.3505694923453
503.76756826912157
504.19670304051937
504.63817268092436
505.0921413137862
505.55872362217485
506.0379941747754
506.52999044001155
507.0347008403976
507.5520726094397
508.08201110890707
508.6243618535033
509.1789408273326
509.7455060298446
510.3237795419269
510.91343920253485
511.5141149438856
512.1254006656826
512.7468533446505
513.3779880715223
514.0182798453075
514.6671654003832
515.3240450529061
515.9882847006459
516.6592289496642
517.3361859197064
518.0184316964472
518.7052279484692
519.3958156452591
520.0894176270651
520.785247871119
521.48251227137
522.1804073808045
522.8781191417877
523.5748323814581
524.2697270399572
524.9619852824017
525.6508007287349
526.3353723846257
527.0149072283127
527.6886248276545
528.3557751145996
529.0156124715884
529.6674155774555
530.3104896562488
530.9441532612121
531.567755386022
532.1806727757299
532.7822980241089
533.372060071001
533.9494294556976
534.5139039967448
535.0649963810762
535.6022539460243
536.1252650033376
536.63366308855
537.1271050688985
537.6052929773449
538.0679476367359
538.5148191607936
538.9456884930436
539.3603775953558
539.7587422403034
540.1406738237187
540.5061014123436
540.8549829065495
541.1872937399427
541.5030415253311
541.8022587266523
542.0850019635277
542.3513556274945
542.6014245100612
542.8353305224449
543.0531979525945
543.2551755973236
543.4414350087008
543.612151273776
543.7675163047484
543.907747893632
544.0330796156651
544.1437488408487
544.2400109545645
544.3221273815244
544.3903624723022
544.444989106464
544.4862876989008
544.5145365705788
544.5300154132387
544.5330086699635
544.5238001765897
544.5026677614602
544.4698909754431
544.4257546425434
544.3705416633942
544.3045302344858
544.2280065180921
544.1412446254229
544.0445282986107
543.9381334358569
543.8223236195859
543.6973629210592
543.563513456365
543.4210331042641
543.2701820851036
543.111201054603
542.9443305232866
542.7698127727544
542.5878830275105
542.3987737464547
542.202719052254
541.9999396062807
541.7906491510523
541.5750697904172
541.3534102089094
541.1258811684673
540.8926891105407
540.6540296941096
540.410098823395
540.161088248057
539.9071833386496
539.6485630374559
539.3854041732292
539.1178813396713
538.8461646262283
538.5704240531334
538.290818683938
538.007505374456
537.7206454310511
537.4303873518671
537.1368801033929
536.8402644760326
536.5406709647682
536.2382327301142
535.9330745560297
535.625326039061
535.315108540208
535.0025440850877
534.6877512570817
534.3708388764828
534.0519126847036
533.7310798193109
533.408440289969
533.084078285212
532.7580882664498
532.4305552923064
532.101559434907
531.7711845453839
531.43950963745
531.1066156563759
530.7725791892796
530.437472707778
530.1013623898647
529.7643147049286
529.4264055441319
529.0877120562836
528.7483065823192
528.4082525375698
528.0676155152609
527.7264546014635
527.3848355671311
527.0428267500054
526.7005060668871
526.3579418124706
526.0152083073793
525.6723752818598
525.3295190777554
524.9867162352094
524.644050291509
524.3016010106993
523.9594531369465
523.6176942863717
523.2764128153859
522.9357043662616
522.5956586950795
522.2563704891454
521.9179368787967
521.5804571048678
521.2440432889617
520.908805061239
520.5748428036819
520.2422602984003
519.9111708722261
519.5816817219142
519.2539043555877
518.9279542041733
518.6039437794143
518.281975646771
517.9621571440729
517.6445954265075
517.3293925317856
517.0166447447557
516.7064463137632
516.3988866318094
516.0940517753543
515.7920217025094
515.4928697285359
515.1966553331152
514.9034321833052
514.613242933743
514.3261271613078
514.0421164310327
513.7612272392911
513.4834669564767
513.208831093618
512.937296223779
512.6688435696746
512.4034347468802
512.1410138093827
511.8815135758681
511.6248466496844
511.3709094795226
511.11959523757866
510.8707785726487
510.6243156524396
510.38004850879025
510.1378116978925
509.8974171603365
509.65867640581837
509.4213791705803
509.18530268940094
508.95021215147597
508.7158635275795
508.4820043418965
508.248363537156
508.0146609636499
507.7806036704121
507.54589097182253
507.31021734484483
507.073257786111
506.8346990702969
506.59421426837594
506.3514790229233
506.10617268750264
505.8579620366735
505.60652646472505
505.35154610001143
505.09270543701535
504.8296970652914
504.5622342905303
504.29003803425115
504.0128350072303
503.7303534360362
503.4423404121472
503.1485617806934
502.84879317260084
502.54283276065195
502.230489989648
501.91158926331264
501.5859775466081
501.2535295119741
500.9141439044025
500.5677464799946
500.21428836907495
499.853755316957
499.48616606061694
499.1115707695515
498.7300494912258
498.3417062166321
497.94667586309254
497.54512442710353
497.1372468248209
496.72327111385425
496.30345596085357
495.8780881103849
495.44748183951043
495.01199133334217
494.57199465543925
494.12789724562435
493.68013739105965
493.2291763653982
492.775501580392
492.31962743627525
491.8620874593116
491.4034371753101
490.94425693573186
490.48514396393495
490.026697660828
489.569539503796
489.114291121588
488.66158723036784
488.2120732681908
487.76639654028463
487.3252059538176
486.889151702473
486.4588717867073
486.03500456563523
485.61817509060864
485.2090034663336
484.8080979099596
484.41604569889694
484.0334150992048
483.66075511183436
483.2985887740062
482.94741310661567
482.60769249380394
482.27985863470207
481.9643127526465
481.6614214201763
481.37151913800494
481.09489793775026
480.83180579722847
480.5824538257927
480.3470149711572
480.12560769012913
479.91831247448886
479.7251689257463
479.54616208427893
479.3812351103107
479.2302848085454
479.09315954037424
478.96966827608753
478.85957249321996
478.7625847396794
478.67837828565575
478.6065795681074
478.5467782825827
478.4985200619766
478.46131470431266
478.4346313518133
478.41791353117947
478.41056829923957
478.411972996443
478.4214820964756
478.43842548929433
478.4621136519666
478.49184084775743
478.52689067084714
478.56653970020585
478.6100482148714
478.6566882351735
478.70571470247177
478.7563890837354
478.80798100143187
478.85976542891467
478.91104179209157
478.9611114151799
479.00929176180495
479.0549171318816
479.0973389205433
479.1359141270675
479.17003474247747
479.1991329401895
479.2226821248557
479.24019371040885
479.25122044075187
479.25534663791126
479.25219573956593
479.2414618197636
479.2228848207299
479.1962524306174
479.16139076726176
479.11817668948504
479.06653902096883
479.0064531188979
478.9379352116261
478.86104496992976
478.77587881979434
478.68257802498107
478.5813408586277
478.472408542123
478.35606414884785
478.2326378253213
478.10249870346246
477.9660465973822
477.823729755801
477.676029763253
477.52345502951334
477.3665537248225
477.2059005301098
477.0420876520137
476.87572872302667
476.7074515368203
476.53790360125316
476.3677489898642
476.1976565040248
476.02830078879583
475.8603678101803
475.6945585373955
475.5315601122616
475.37206074789344
475.2167361685289
475.0662556858023
474.9212818145521
474.78245697148725
474.65040769685777
474.5257511911315
474.4090692162722
474.3009323082602
474.20188474990255
474.11243844086414
474.03308431925353
473.96428434035414
473.90646584267336
473.8600269537693
473.8253355813555
473.8027286513375
473.79250726560434
473.7949385194439
473.8102596012794
473.83866895645497
473.8803307175392
473.935383646289
474.0039240021835
474.0860125055364
474.1816879858106
474.2909506641301
474.41377170152106
474.55008753594024
474.6998030187658
474.86279891775564
475.03892209826427
475.2279975084974
475.42982272644235
475.6441714137471
475.87079234187695
476.1094194459101
476.35976445450586
476.6215204808541
476.89436786448556
477.1779647534109
477.47195503901037
477.77597404370795
478.08964558921787
478.41257899166095
478.7443746288234
479.0846273314119
479.4329210279417
479.78882975419276
480.1519184071567
480.5217587503077
480.8979082039612
481.2799301300662
481.6673857431452
482.05983031394663
482.4568267414633
482.85793064513274
483.2627083373403
483.67072870407276
484.08157056863314
484.494821528031
484.91007931135334
485.3269444854728
485.7450194881891
486.16391186178373
486.5832329456851
487.00259636390376
487.42163401754755
487.83998816902624
488.2572900181348
488.67318374779416
489.0873242863042
489.49937514131614
489.909010583668
490.3159001531552
490.7197235193034
491.12017646095296
491.51696388268397
491.90980621812827
492.2984350515319
492.6825821329561
493.0619945527534
493.4364259493659
493.80564084312454
494.1694057884208
494.527506872123
494.87973438242
495.2258915807928
495.56579266785616
495.8992497426908
496.22608798708075
496.5461411867535
496.85926269330065
497.16531473103134
497.4641664814832
497.75570079688885
498.0398101493771
498.3163970332862
498.5853654467593
498.8466229952177
499.10009600251976
499.34572068287383
499.58344756758646
499.8132306454358
500.0350315997586
500.2488261632055
500.4546039871851
500.65235317550605
500.8420886050979
501.02382343991184
501.19758870916047
501.36342238483525
501.5213672426804
501.67147288445733
501.8137999336296
501.9484176535071
502.07539931431086
502.1948261989265
502.3067960199234
502.4114140172552
502.508786279509
502.59903045670615
502.68227338465545
502.7586420865026
502.82827440708314
502.8913166111403
502.9479165486631
502.9982321284858
503.04242009434756
503.0806444865485
503.1130763473422
503.139886809152
503.16126215766025
503.1773817472828
503.1884374351069
503.1946181062988
503.1961204541362
503.1931443466053
503.1858882446038
503.17455551256
503.1593453174196
503.14046759772816
503.1181362063775
503.0925621552579
503.0639578020078
503.032536614436
502.99850851328125
502.9620882465988
502.92348636258123
502.882917737263
502.8405991650084
502.79674038753103
502.7515525786439
502.7052458418702
502.65803108509016
502.6101242324386
502.56173298309426
502.513065450245
502.4643321883257
502.4157351940952
502.36747436381154
502.31974500325947
502.2727441421954
502.22666163560007
502.18168434543855
502.13799585044086
502.0957761589355
502.0551992864232
502.0164329243113
501.9796423363553
501.94498997801713
501.91263297589677
501.88271399032874
501.85537166511307
501.8307312321024
501.8089301657478
501.7900982322126
501.77435299624744
501.76180178742993
501.75254798843326
501.74667981691897
501.7442897862775
501.74544613168877
501.7502166983518
501.75864892799126
501.77078923527847
501.78666952482945
501.806313359539
501.8297312005692
501.8569200348924
501.88787181678816
501.9225644707163
501.96097046440065
502.0030435221628
502.04872723852463
502.09794840028184
502.1506167001153
502.2066309420914
502.265872196894
502.3282166764234
502.3935312838779
502.4616627805614
502.5324443900933
502.6056979630383
502.6812341398503
502.75885046474536
502.8383404316483
502.91947204357575
503.0020124153695
503.08570414399355
503.17028976561465
503.25548589485635
503.341007640098
503.4265581144937
503.511835601984
503.5965298860337
503.68032524397296
503.7628970288714
503.8439170551798
503.92304138424385
503.99992202834756
504.0742142767232
504.1455644742457
504.21361962111024
504.27802602109455
504.33843020070964
504.3944776187335
504.44581353647686
504.49208599314437
504.53294879133824
504.5680690107185
504.5971127884075
504.619759583385
504.6356923107628
504.6446072476527
504.6462064122289
504.64022497064883
504.6264109243507
504.60452475145485
504.57434786440143
504.53567139359615
504.48831109748295
504.43210021897397
504.366895246986
504.29257295192554
504.20902520796756
504.1161643321911
504.0139280501294
503.9022753818556
503.7811998942706
503.65072107682715
503.5108887384596
503.36178306187645
503.2035212951666
503.03624481788324
502.8601302331466
502.6753719195366
502.4821972484156
502.2808641397997
502.0716497032913
501.8548693903734
501.6308633527494
501.3999980381949
501.1626566678485
500.9192579253751
500.6702396056428
500.41606843423756
500.15722792463805
499.89423031979834
499.62760881322174
499.3579141206485
499.08570660665254
498.8115590895537
498.53606605489307
498.259837654225
497.9834982398636
497.7076650818549
497.43296386569364
497.16002220535506
496.8894740990638
496.6219489830703
496.35807612315205
496.09846696104694
495.8437454875954
495.59451979200276
495.3513888282171
495.11493602839346
494.8857337431073
494.66433027571065
494.45125442899996
494.24702007117617
494.0521133763614
493.86699546893016
493.69209845367124
493.5278215034956
493.37453576369825
493.23258500216735
493.10227778612807
492.9838885463713
492.87766320862283
492.783803143084
492.7024665717847
492.63377873583363
492.57782909508086
492.5346643137062
492.50429672319785
492.4867042448639
492.4818129203456
492.48951898382626
492.5096804607917
492.5421265241442
492.586638708729
492.64296728244204
492.7108279746917
492.78990103649784
492.8798348154712
492.9802428016801
493.09070507738693
493.21078291425664
493.34000076190034
493.4778764722249
493.62390586980626
493.77756073307336
493.93830654374756
494.10558982510634
494.27884528548054
494.4574985945064
494.64097139859894
494.82868429224175
495.0200576887757
495.21451053474516
495.41146103765436
495.6103425754135
495.8105868425933
496.011637374639
496.21295186882577
496.4140043777058
496.61426075807634
496.8132036360504
497.01034157630994
497.2052050647481
497.3973557321334
497.5863846796295
497.7719086389039
497.95355947529885
498.1310041132406
498.3039580718473
498.4721733073394
498.63543740581935
498.79356851760963
498.946418969511
499.09387001146575
499.23582636179657
499.37222563114585
499.50302758173575
499.628227090944
499.7478426957446
499.86193338626623
499.9705869218256
500.0739167260808
500.1720673734319
500.2652111252087
500.3535465648321
500.43729506633605
500.51670823585727
500.59205555932397
500.66363388884884
500.7317463204289
500.79671810206145
500.8588795710293
500.9185728669658
500.9761452843321
501.0319623372693
501.08640125948097
501.1398468235731
501.19267630760976
501.24527498565317
501.29803426202835
501.35133697973646
501.4055668055275
501.4610957514123
501.5182891698779
501.5775085850612
501.63911042364174
501.70342946048504
501.77079059003876
501.84151640359534
501.91591321866565
501.99426156893486
502.07683502574343
502.1638907153315
502.25565773673316
502.35235391109427
502.45418292565193
502.5613251468094
502.6739504931006
502.7922074199045
502.91621635783036
503.0460805819886
503.18187955298015
503.32367093056956
503.4715013543052
503.62540445479726
503.7853969811342
503.9514728428452
504.12360814252537
504.30176397015657
504.4858760164556
504.675868295716
504.87165378008206
505.07312412906197
505.28015242810693
505.49260027893564
505.7103206339152
505.9331518455642
506.1609249545424
506.39345358090435
506.6305478367477
506.8720064606819
507.11761979137117
507.3671794000981
507.6204549477087
507.8772122550375
508.1372138571413
508.40021073867894
508.665951451641
508.93417812979294
509.2046333637123
509.4770517276004
509.75117096047245
510.0267169018732
510.3034190651027
510.5809999114001
510.8591771072902
511.13767672499574
511.4162226273457
511.69453903497185
511.9723509144797
512.2493956183683
512.5254129662918
512.8001396354397
513.0733165709221
513.3446898306371
513.6140026336577
513.8809938855691
514.1454163159676
514.4070239620129
514.6655659466664
514.9207952537841
515.1724643042725
515.4203226466199
515.6641230745996
515.9036253771101
516.1386047247455
516.3688340571184
516.5941037187695
516.8142040525445
517.0289322098812
517.2380879217446
517.4414757812001
517.6389119472836
517.8302156772212
518.0152073662622
518.1937108063546
518.365561998075
518.5306027331129
518.6886720228102
518.8396147644853
518.9832860127799
519.119546626723
519.2482721201112
519.369341995777
519.4826510360491
519.5881009806358
519.6855921850737
519.7750281403022
519.8563352402888
519.9294367849923
519.9942618739213
520.0507542343045
520.0988614424343
520.1385460599149
520.1697749781885
520.1925217814786
520.2067667648953
520.2124991329669
520.2097169536479
520.1984181546316
520.1786176153938
520.1503426651846
520.1136243405065
520.0684994201188
520.0150278613136
519.9532754146376
519.8833050271882
519.8051921526098
519.7190180224252
519.6248672815638
519.5228432138673
519.4130524740317
519.2956183511724
519.1706722440983
519.0383429426275
518.8987652980032
518.7520820771014
518.5984436725848
518.4380144687949
518.2709573202684
518.0974486519467
517.9176717207115
517.7318163808873
517.5400810761803
517.3426705932775
517.1398004172888
516.9316901860705
516.7185548971955
516.5006199246436
516.278118522514
516.0512850416591
515.8203655887386
515.5856024191015
515.3472466111854
515.1055598865911
514.8607991109529
514.6132334495913
514.3631331149589
514.1107735633977
513.8564353513091
513.600395226786
513.3429368020048
513.0843370494588
512.8248812311527
512.5648494248583
512.3045292463937
512.0442067350606
511.7841637464249
511.52469055398524
511.2660745256861
511.00860202058374
510.7525602304604
510.4982325033234
510.2458958533819
509.9958270250751
509.7482974692244
509.50357274391166
509.2619251910144
509.0236138942983
508.7888973590052
508.55801988960656
508.3312153249187
508.10871495349147
507.8907534914652
507.6775490561634
507.4693114382642
507.2662370044931
507.06852772213523
506.87635782784486
506.6898951005197
506.5093023499966
506.3347281217679
506.16631719919224
506.00419053337424
505.84845800233416
505.69921358094
505.55654146665285
505.4205024827455
505.2911444185914
505.16850154939857
505.0525942273448
504.94342849722256
504.84099588716424
504.7452688514349
504.6562072331032
504.5737450698383
504.4977991173942
504.4282730368183
504.3650552089926
504.30800550532985
504.25697482414216
504.21179638092144
504.1722792853601
504.13821738530424
504.1093827487067
504.0855388901505
504.06643232166834
504.0517930600986
504.04133742966866
504.0347687370943
504.0317737335784
504.03202118132566
504.03517127689327
504.0408699742166
504.0487565517248
504.05845140682413
504.06956340897307
504.08170397969997
504.09447080227784
504.1074489956325
504.12022313715397
504.1323673618255
504.14345952876465
504.15306480170847
504.16074969980866
504.1660918540781
504.1686638320854
504.1680409495586
504.16380462037756
504.15553477329655
504.14282409670346
504.1252748212696
504.1024999617502
504.0741158335912
504.0397519434325
503.99905646687864
503.9516908911273
503.89733569426227
503.8357072553022
503.7665379584523
503.68957836613583
503.60459938556846
503.51139199710514
503.4097755880161
503.29959520413837
503.1807142350689
503.0530266997568
502.9164384634719
502.77088724921134
502.6163469893665
502.4528212321052
502.28034757106974
502.09899101253575
501.9088503395267
501.7100621987299
501.5028053372182
501.28728320161594
501.06372835551605
500.83241106025446
500.59361919767593
500.34767730682074
500.0949370544151
499.8357785176301
499.57061352421965
499.2998825450588
499.0240514549599
498.7436036873194
498.45904757326645
498.1709168381134
497.8797646042176
497.58616174260516
497.2906995272771
496.99399023279375
496.69665235713796
496.3993131475621
496.1026175971791
495.80721567865834
495.51376701068847
495.2229212493423
494.9353334376913
494.651664003688
494.37256113144514
494.0986781262882
493.830640455529
493.56907395961883
493.31458932469627
493.0677863763863
492.82924528904704
492.5995288883124
492.37917626791653
492.16871398685123
491.96862812198526
491.77937998120086
491.60139761277287
491.43508051197495
491.2807912769929
491.1388649506649
491.0095988601366
490.89325135345183
490.79004715096767
490.7001720117624
490.62376542107984
490.56092199307653
490.51170830349656
490.4761428917468
490.4542093471552
490.4458453966201
490.45094091181016
490.4693491113095
490.50088475030805
490.5453159583588
490.6023824908264
490.6717792283981
490.75316384503554
490.8461601962959
490.950357521905
491.06531197106256
491.19054611844496
491.32554845344316
491.4697860609414
491.6227023403863
491.78371929763574
491.95224435284666
492.1276620657164
492.30935015315873
492.4966672342868
492.6889579459911
492.8855711955915
493.08584803340824
493.28912926202804
493.4947652723066
493.7021106951324
493.91052121633635
494.11936328812766
494.32802374975313
494.53590199324634
494.7424040569627
494.94695588930927
495.14900085965894
495.34798796172026
495.54338773174146
495.73470994696885
495.9214973662841
496.1033283540894
496.27981513779287
496.45059762879396
496.6153590927427
496.77383327024853
496.92580547235167
497.07109889624553
497.2095630225317
497.34109010661865
497.4656096474929
497.58308933505543
497.6935335874999
497.7969750676147
497.8934743059881
497.983138578111
498.0661189208443
498.1425896246659
498.21277122744976
498.2769139331599
498.33530501705
498.38825866031306
498.4361165219284
498.4792547356187
498.5180690029747
498.55298593135075
498.5844569224686
498.6129322405467
498.6388894154736
498.6628133110827
498.68520897014093
498.706579419741
498.7274427850214
498.74832750765097
498.7697611397438
498.79227892512944
498.81640180408255
498.84265157430434
498.87156174354584
498.9036493210633
498.93942184344485
498.97936235870566
499.02395815970937
499.073675113155
499.1289671427899
499.19026612350893
499.2579783957284
499.33249874302453
499.4141938990727
499.5034013312969
499.60044777583084
499.7056353117564
499.81924077136586
499.9415108835535
500.07267055378526
500.21292031187033
500.36242958835425
500.52134983444137
500.6897948746477
500.86785412719485
501.05559060458376
501.25304785721687
501.46023502762216
501.67714699544354
501.9037431800862
502.13995471182295
502.3857047018467
502.6408893941339
502.90538130572634
503.1790324223651
503.461668544517
503.7530988456514
504.05311890672664
504.36150945737484
504.67803091629975
505.0024244659913
505.334426170882
505.6737571381268
506.02012248402275
506.3732233270694
506.7327447566396
507.09835676774884
507.46972154325726
507.84649842388427
508.2283424309675
508.61489857431417
509.0058046214181
509.40069590852625
509.79920582342106
510.2009618061246
510.6055878521673
511.01270928787346
511.42194882683526
511.83292251013995
512.2452508953797
512.6585573507505
513.0724708619151
513.4866223686872
513.9006545791688
514.314214542246
514.7269439087954
515.1384973737557
515.5485283445421
515.956689929296
516.3626444924358
516.7660555806833
517.1665860429899
517.5638979203025
517.9576609655822
518.347550299823
518.733246181223
519.114435834891
519.4908153992528
519.8620897979533
520.2279749610228
520.588195880448
520.9424736872905
521.290536457204
521.6321322590455
521.967009635292
522.2949286638548
522.6156501389993
522.9289488139023
523.2346113696093
523.5324235334493
523.8221812024707
524.103683950339
524.3767393074633
524.6411803966212
524.8968401367409
525.1435604321512
525.3811880157631
525.6095877751444
525.828634327937
526.0382056653897
526.238192040028
526.4284916037964
526.6090280507229
526.7797380023154
526.9405451433914
527.0913929629573
527.2322359033769
527.3630460510052
527.4837978759643
527.5944791050406
527.6950840180385
527.7856197972416
527.8661130008998
527.9365919943322
527.9971043622426
528.0477081900952
528.0884720731758
528.1194641138546
528.1407713786989
528.1524953169416
528.1547451688479
528.1476334431228
528.1312932051792
528.1058582022837
528.0714736515818
528.028289509426
527.9764755064309
527.9162034500986
527.8476492563016
527.7709924841854
527.6864289374059
527.5941682360167
527.4944138744271
527.387375889138
527.2732724768327
527.1523382641288
527.0248153605125
526.8909512132623
526.7509941683484
526.6051910166931
526.4537954276634
526.2970764305976
526.1352919896211
525.9687061899439
525.7975888247267
525.6222083716184
525.4428424747052
525.2597667478321
525.0732676478375
524.8836202457757
524.6911096600058
524.4960307614541
524.2986728639189
524.0993240601824
523.8982753661626
523.6958116958868
523.4922181100133
523.2877815961704
523.0827885291046
522.8775222357185
522.6722648420657
522.4673056885534
522.2629258303504
522.0594022319482
521.8570074894898
521.6560116439975
521.4566883725115
521.2592970141066
521.0640973136635
520.8713468068704
520.6812960610723
520.4942035513383
520.3103113455709
520.129857976211
519.9530736522956
519.7801821268409
519.6113959436823
519.4469202310053
519.2869564381043
519.1316930353236
518.9813071441997
518.8359682468122
518.695846410403
518.561096635432
518.431864976738
518.308283769427
518.1904646641759
518.0785177191177
517.9725355368896
517.8725861069332
517.7787361342531
517.6910351412574
517.6095194677765
517.5342031053547
517.465079237683
517.4021348260768
517.3453414938849
517.2946510069465
517.2500016208678
517.2113047687503
517.1784623666047
517.1513579546958
517.1298501716399
517.1137703568625
517.1029329859371
517.0971485962301
517.0961976850366
517.0998461393567
517.107838800977
517.1198997115405
517.1357367532227
517.1550463610696
517.1775031923794
517.202765137784
517.2304717973435
517.2602451749043
517.2916968676174
517.324417882164
517.3579993102112
517.3920093748968
517.4260053646442
517.4595367938593
517.4921444119963
517.5233482460741
517.5526704201775
517.5796275071594
517.6037363136586
517.6244998774927
517.6414261817756
517.654025228903
517.6618040601629
517.664272544603
517.6609424761883
517.6513311590868
517.6349759871053
517.6114163506318
517.580192986514
517.5408600888345
517.4929930649329
517.4361833739409
517.3700533082773
517.2942492903176
517.2084309844131
517.1122868044066
517.0055254469383
516.8878825378861
516.7591118140995
516.6190022136875
516.4673817903927
516.3040867211104
516.1289888903541
515.9419856340951
515.7430042464331
515.5320172100343
515.3090400427083
515.0741204509249
514.8273471733772
514.5688544381527
514.2988111348611
514.0174253246987
513.7249465791416
513.4216507783253
513.1078463016081
512.7838776389968
512.4501267662803
512.1070187932903
511.75501671577274
511.39460740782073
511.0263136136639
510.65068385570186
510.2683084424183
509.8798027523733
509.4857946944647
509.0869490181765
508.683947922765
508.27748908335377
507.8682988134649
507.4571212381425
507.04471630653296
506.63184452793826
506.219279963336
505.8078012620179
505.3981935251545
504.9912390303013
504.5877254203265
504.1884254223403
503.7941115074
503.40555100444305
503.02349247277573
502.64866945219427
502.2818109617338
501.9236127643422
501.5747457886761
501.23585791262116
500.90757807059276
500.59050320477434
500.28518304061686
499.9921374556482
499.71185423899186
499.4447761008227
499.191314133959
498.9518242367004
498.72662502003186
498.51599410264464
498.320169252473
498.13933225347137
497.9736124488196
497.8230947482416
497.6878147482976
497.5677562332276
497.46285990808445
497.3730170605625
497.29805899216257
497.23777279869
497.1918953643557
497.1601207223103
497.1420989484485
497.1374286234099
497.1456691629269
497.1663357661547
497.1989055171314
497.2428193180319
497.2974817363168
497.3622655199222
497.43652962305424
497.51958291131075
497.61071561640637
497.70919570186373
497.8142764253402
497.9251909235926
498.04116001594974
498.16140232693283
498.2851248405511
498.411535298967
498.5398525181166
498.66928830494555
498.79906869039013
498.9284355914999
499.0566396822497
499.18294385454425
499.3066240777394
499.42696311421247
499.54326312428765
499.65485122555236
499.7610892136669
499.8613788605185
499.95514978202584
500.0418867349274
500.1210934881385
500.1923132348362
500.25516221425596
500.30930944755613
500.3544657825056
500.39039045506684
500.4168820576027
500.4337822639566
500.4409770538038
500.4383998708549
500.4260167851355
500.4038373278362
500.37191605051305
500.3303559042591
500.2793204067194
500.2190109976185
500.14967488603247
500.0716104866821
499.9851443045112
499.89064029553737
499.78850900012327
499.6791904579396
499.5631610936303
499.4409183448925
499.31299565618286
499.1799491754164
499.0423508263447
498.9007941844177
498.75590257562436
498.6083044021264
498.45863900495476
498.3075492162799
498.1556913897704
498.003732385389
497.85234902989805
497.70221479562764
497.5539997139119
497.4083571299561
497.26593664137965
497.12737952007194
496.99331427623343
496.86435679654767
496.74110407399536
496.6241279000433
496.5139795127657
496.4111966515119
496.316288904507
496.2297340216123
496.1519851444502
496.0834783626101
496.0246187174273
495.97577722474153
495.9372967296801
495.9094890900583
495.8926413896089
495.88700045082334
495.8927813441384
495.9101649339246
495.9393065348483
495.9803317561975
496.0333347463001
496.0983699830609
496.1754680889544
496.2646276310552
496.3658092046979
496.4789536243106
496.6039739927926
496.74075446194166
496.8891512029552
497.04899985663974
497.220110013358
497.40227078244936
497.59524755384166
497.7987963484156
498.0126455281015
498.2364971711589
498.4700391064021
498.7129303539155
498.96483698586525
499.2254026874474
499.49426082055487
499.7710266732654
500.05530494526244
500.34669714658327
500.6447914985163
500.9491791385445
501.2594376016016
501.5751338359302
501.89582482176525
502.22106677900626
502.55041769453237
502.8834335635939
503.21967137340613
503.55869003097877
503.90005376634804
504.2433268818502
504.5880794494911
504.933884225419
505.2803112545078
505.6269421516094
505.9733514089604
506.3191314136665
506.66387381591693
507.0071634937202
507.3485872037367
507.68774438385526
508.0242383251901
508.35768261904633
508.687692295884
509.0138946109869
509.33592670530635
509.65343570247444
509.9660855673779
510.2735465609409
510.5754934475055
510.8715968406544
511.1615493544866
511.4450525165461
511.72180804879326
511.9915375307766
512.2539694292498
512.5088348143901
512.7558826511275
512.9948733415571
513.2255723958978
513.4477526856062
513.6612054266152
513.865733934494
514.0611540703019
514.2472814393424
514.4239490520545
514.5910053740716
514.7483126068001
514.8957472397417
515.03318512575
515.1605124522295
515.2776255618954
515.3844307589566
515.4808572760751
515.5668485434628
515.6423556772476
515.7073462146836
515.761793188349
515.805686059252
515.8390241265207
515.8618231437871
515.8741065503687
515.875916323351
515.8673065044868
515.8483368068174
515.8190790818022
515.7796170549028
515.7300483286574
515.6704864150892
515.6010518576356
515.52187864727
515.4331141034712
515.3349232102112
515.2274711534844
515.110934135196
514.9854946064951
514.8513473730574
514.7087058300991
514.5577864476331
514.398810640052
514.2320175557776
514.0576528304153
513.8759704481181
513.6872346336592
513.4917240137622
513.289713882908
513.0814934111534
512.8673543952209
512.647599637637
512.4225249093464
512.192433618674
511.9576450026945
511.71848495142405
511.4752813947571
511.2283595795916
510.97805687877656
510.7247071083826
510.46864676554094
510.2102190234638
509.94976449611903
509.6876316909369
509.42415682802954
509.15968075219575
508.8945461028699
508.62910343388273
508.36369997979847
508.09867046386216
507.8343518274996
507.57107603457575
507.3091716804029
507.04896784194807
506.79079146812967
506.5349648757721
506.2817988282451
506.0315986517674
505.78466364932734
505.54128433737
505.30174620739473
505.066333547594
504.8353159704012
504.60895449398765
