525.1121182406238
525.1081994831321
525.1042805062547
525.1003613103918
525.0964418959437
525.0925222633106
525.0886024128928
525.0846823450905
525.0807620603038
525.0768415589324
525.0729208413769
525.0689999080374
525.0650787593144
525.0611573956081
525.0572358173187
525.0533140248459
525.0493920185901
525.0454697989513
525.0415473663298
525.0376247211262
525.0337018637416
525.029778794577
525.0258555140337
525.0219320225125
525.0180083204147
525.0140844081412
525.0101602860933
525.0062359546722
525.0023114142795
524.9983866653168
524.9944617081863
524.9905365432902
524.9866111710311
524.9826855918119
524.9787598060358
524.9748338141061
524.9709076164264
524.9669812134003
524.9630546054319
524.9591277929252
524.9552007762842
524.951273555913
524.9473461322153
524.9434185055956
524.9394906764579
524.9355626452067
524.9316344122464
524.9277059779812
524.9237773428155
524.9198485071537
524.9159194714003
524.9119902359599
524.9080608012372
524.904131167637
524.9002013355642
524.8962713054235
524.8923410776193
524.8884106525558
524.8844800306366
524.8805492122657
524.876618197847
524.8726869877847
524.8687555824828
524.8648239823452
524.8608921877759
524.8569601991791
524.853028016959
524.8490956415202
524.8451630732676
524.8412303126062
524.8372973599411
524.8333642156775
524.8294308802207
524.8254973539762
524.8215636373499
524.8176297307474
524.8136956345742
524.809761349236
524.8058268751385
524.8018922126868
524.7979573622866
524.7940223243437
524.7900870992636
524.7861516874524
524.7822160893166
524.7782803052634
524.7743443356991
524.7704081810306
524.7664718416646
524.762535318008
524.7585986104674
524.7546617194502
524.7507246453639
524.7467873886168
524.7428499496174
524.7389123287745
524.734974526497
524.7310365431937
524.7270983792738
524.7231600351471
524.7192215112233
524.7152828079121
524.7113439256233
524.7074048647672
524.703465625755
524.6995262089978
524.6955866149066
524.6916468438923
524.6877068963664
524.6837667727406
524.6798264734265
524.6758859988364
524.6719453493823
524.6680045254767
524.6640635275322
524.6601223559616
524.6561810111779
524.6522394935943
524.6482978036239
524.6443559416799
524.6404139081757
524.6364717035241
524.6325293281376
524.6285867824282
524.624644066808
524.6207011816888
524.6167581274832
524.6128149046036
524.608871513463
524.6049279544742
524.6009842280504
524.5970403346047
524.5930962745502
524.5891520483004
524.5852076562691
524.5812630988702
524.5773183765178
524.5733734896265
524.569428438611
524.5654832238862
524.5615378458666
524.5575923049665
524.5536466016002
524.5497007361818
524.5457547091252
524.5418085208445
524.5378621717533
524.5339156622653
524.5299689927944
524.5260221637546
524.5220751755602
524.5181280286248
524.5141807233623
524.510233260187
524.5062856395131
524.5023378617549
524.4983899273265
524.4944418366423
524.4904935901167
524.4865451881639
524.4825966311986
524.478647919636
524.4746990538912
524.470750034379
524.4668008615146
524.4628515357132
524.45890205739
524.4549524269606
524.4510026448407
524.4470527114457
524.4431026271908
524.4391523924911
524.4352020077619
524.431251473418
524.4273007898747
524.4233499575472
524.4193989768509
524.4154478482016
524.4114965720154
524.4075451487084
524.403593578697
524.3996418623973
524.395690000225
524.3917379925964
524.387785839927
524.3838335426325
524.379881101129
524.3759285158327
524.3719757871601
524.3680229155276
524.3640699013521
524.3601167450505
524.3561634470399
524.352210007737
524.3482564275583
524.3443027069205
524.3403488462396
524.336394845932
524.3324407064136
524.328486428101
524.3245320114103
524.3205774567579
524.3166227645601
524.3126679352332
524.3087129691936
524.3047578668576
524.3008026286415
524.2968472549616
524.2928917462342
524.2889361028755
524.2849803253017
524.2810244139299
524.2770683691771
524.2731121914604
524.2691558811972
524.2651994388051
524.2612428647018
524.2572861593054
524.2533293230341
524.2493723563063
524.2454152595407
524.2414580331562
524.2375006775716
524.2335431932057
524.2295855804774
524.225627839806
524.2216699716101
524.2177119763088
524.2137538543212
524.2097956060667
524.2058372319647
524.2018787324342
524.1979201078947
524.1939613587653
524.1900024854655
524.1860434884146
524.1820843680322
524.1781251247379
524.1741657589515
524.170206271093
524.1662466615822
524.1622869308393
524.158327079284
524.1543671073365
524.1504070154166
524.1464468039445
524.1424864733405
524.1385260240246
524.1345654564171
524.1306047709382
524.1266439680079
524.122683048046
524.1187220114729
524.1147608587092
524.1107995901758
524.1068382062932
524.1028767074819
524.0989150941624
524.0949533667557
524.0909915256826
524.0870295713643
524.0830675042222
524.0791053246777
524.0751430331526
524.0711806300684
524.0672181158467
524.063255490909
524.0592927556769
524.0553299105719
524.0513669560161
524.0474038924314
524.0434407202403
524.0394774398652
524.0355140517287
524.0315505562531
524.027586953861
524.0236232449744
524.0196594300152
524.0156955094054
524.0117314835669
524.0077673529216
524.0038031178921
523.9998387789007
523.9958743363696
523.991909790721
523.987945142377
523.9839803917599
523.9800155392917
523.9760505853941
523.9720855304892
523.9681203749989
523.9641551193455
523.9601897639512
523.9562243092388
523.9522587556313
523.9482931035519
523.944327353424
523.9403615056711
523.9363955607172
523.9324295189859
523.9284633809012
523.9244971468871
523.9205308173676
523.9165643927669
523.9125978735091
523.9086312600185
523.9046645527193
523.9006977520354
523.8967308583907
523.892763872209
523.8887967939141
523.8848296239302
523.8808623626816
523.8768950105929
523.8729275680884
523.8689600355923
523.864992413529
523.8610247023227
523.8570569023974
523.8530890141773
523.8491210380863
523.8451529745486
523.8411848239881
523.8372165868287
523.8332482634947
523.8292798544104
523.82531136
523.821342780688
523.817374116899
523.8134053690582
523.8094365375911
523.8054676229236
523.8014986254824
523.7975295456935
523.7935603839827
523.789591140776
523.7856218164992
523.7816524115784
523.77768292644
523.7737133615102
523.7697437172156
523.7657739939824
523.7618041922368
523.7578343124052
523.7538643549138
523.7498943201891
523.7459242086576
523.7419540207458
523.7379837568802
523.7340134174877
523.7300430029953
523.7260725138298
523.7221019504183
523.7181313131881
523.7141606025667
523.7101898189818
523.706218962861
523.7022480346324
523.6982770347237
523.6943059635629
523.690334821578
523.6863636091967
523.682392326847
523.6784209749563
523.6744495539525
523.6704780642632
523.6665065063163
523.6625348805397
523.6585631873614
523.6545914272098
523.6506196005126
523.6466477076984
523.642675749196
523.6387037254341
523.6347316368411
523.6307594838453
523.626787266874
523.6228149863547
523.6188426427146
523.6148702363818
523.6108977677837
523.6069252373483
523.6029526455033
523.5989799926764
523.5950072792949
523.5910345057861
523.5870616725771
523.5830887800954
523.579115828769
523.5751428190259
523.5711697512944
523.5671966260026
523.5632234435785
523.5592502044504
523.5552769090465
523.5513035577945
523.5473301511225
523.5433566894582
523.5393831732296
523.5354096028651
523.5314359787939
523.5274623014453
523.523488571249
523.5195147886344
523.515540954031
523.511567067868
523.5075931305745
523.5036191425799
523.4996451043136
523.4956710162052
523.4916968786844
523.4877226921811
523.4837484571259
523.4797741739491
523.4757998430808
523.4718254649518
523.4678510399928
523.4638765686342
523.459902051307
523.4559274884429
523.4519528804734
523.4479782278305
523.4440035309459
523.4400287902512
523.4360540061779
523.4320791791578
523.4281043096227
523.4241293980041
523.4201544447338
523.4161794502439
523.4122044149664
523.4082293393329
523.4042542237754
523.400279068726
523.3963038746168
523.3923286418798
523.3883533709471
523.3843780622514
523.3804027162251
523.3764273333014
523.3724519139126
523.368476458491
523.3645009674693
523.36052544128
523.3565498803551
523.3525742851274
523.3485986560296
523.3446229934949
523.3406472979565
523.3366715698472
523.3326958096001
523.3287200176479
523.3247441944237
523.3207683403604
523.316792455891
523.3128165414493
523.3088405974687
523.3048646243827
523.3008886226247
523.296912592628
523.2929365348265
523.2889604496537
523.284984337543
523.2810081989279
523.2770320342412
523.273055843916
523.2690796283856
523.265103388083
523.2611271234413
523.2571508348934
523.2531745228727
523.2491981878126
523.2452218301468
523.2412454503088
523.2372690487329
523.2332926258529
523.2293161821032
523.2253397179185
523.2213632337331
523.2173867299813
523.2134102070974
523.2094336655156
523.2054571056702
523.2014805279956
523.1975039329255
523.1935273208943
523.1895506923362
523.1855740476855
523.1815973873769
523.1776207118447
523.1736440215235
523.1696673168482
523.1656905982535
523.161713866174
523.1577371210439
523.1537603632975
523.1497835933695
523.1458068116946
523.1418300187071
523.1378532148411
523.1338764005305
523.1298995762089
523.1259227423094
523.1219458992651
523.1179690475093
523.1139921874752
523.1100153195963
523.1060384443059
523.1020615620379
523.098084673226
523.0941077783042
523.0901308777062
523.0861539718661
523.0821770612177
523.0782001461954
523.0742232272336
523.070246304767
523.0662693792302
523.0622924510577
523.0583155206845
523.0543385885454
523.0503616550751
523.046384720708
523.0424077858787
523.0384308510212
523.0344539165698
523.0304769829594
523.0265000506248
523.0225231200008
523.0185461915218
523.0145692656221
523.0105923427362
523.0066154232992
523.0026385077459
522.9986615965109
522.9946846900287
522.9907077887339
522.9867308930606
522.9827540034431
522.9787771203161
522.9748002441144
522.9708233752727
522.966846514226
522.9628696614092
522.9588928172581
522.9549159822083
522.9509391566954
522.9469623411554
522.9429855360241
522.9390087417372
522.9350319587303
522.9310551874393
522.9270784283
522.9231016817486
522.9191249482211
522.9151482281535
522.9111715219816
522.9071948301413
522.9032181530685
522.899241491199
522.8952648449687
522.891288214813
522.887311601167
522.8833350044657
522.8793584251449
522.8753818636402
522.8714053203868
522.8674287958203
522.8634522903766
522.8594758044914
522.8554993385998
522.851522893137
522.8475464685383
522.8435700652386
522.8395936836729
522.8356173242765
522.8316409874852
522.8276646737346
522.8236883834608
522.8197121171
522.8157358750888
522.8117596578635
522.8077834658608
522.8038072995174
522.7998311592702
522.7958550455561
522.7918789588124
522.7879028994763
522.7839268679851
522.7799508647755
522.7759748902846
522.7719989449494
522.768023029207
522.7640471434951
522.7600712882514
522.7560954639142
522.7521196709218
522.7481439097129
522.744168180726
522.7401924843999
522.7362168211731
522.7322411914844
522.7282655957725
522.7242900344764
522.7203145080347
522.7163390168859
522.712363561469
522.7083881422233
522.7044127595874
522.7004374140002
522.6964621059004
522.6924868357261
522.6885116039153
522.6845364109059
522.6805612571358
522.676586143043
522.6726110690655
522.668636035641
522.664661043207
522.6606860922014
522.6567111830624
522.6527363162276
522.6487614921347
522.6447867112216
522.6408119739264
522.636837280687
522.632862631942
522.6288880281298
522.6249134696892
522.6209389570587
522.6169644906767
522.6129900709817
522.6090156984125
522.6050413734071
522.6010670964039
522.5970928678411
522.5931186881566
522.589144557788
522.5851704771736
522.5811964467513
522.5772224669591
522.5732485382354
522.5692746610181
522.565300835745
522.561327062854
522.5573533427831
522.55337967597
522.5494060628522
522.5454325038678
522.5414589994549
522.5374855500519
522.5335121560973
522.5295388180303
522.52556553629
522.5215923113152
522.517619143545
522.513646033418
522.509672981373
522.505699987849
522.501727053285
522.4977541781201
522.4937813627936
522.4898086077447
522.4858359134129
522.4818632802372
522.4778907086571
522.4739181991118
522.4699457520409
522.4659733678842
522.4620010470818
522.4580287900736
522.4540565972997
522.4500844691999
522.4461124062142
522.4421404087826
522.4381684773454
522.4341966123419
522.430224814212
522.4262530833954
522.4222814203318
522.4183098254613
522.4143382992235
522.4103668420588
522.4063954544075
522.4024241367102
522.3984528894076
522.3944817129408
522.3905106077506
522.3865395742779
522.3825686129641
522.3785977242502
522.3746269085769
522.370656166385
522.3666854981149
522.3627149042073
522.358744385103
522.3547739412426
522.3508035730666
522.3468332810158
522.3428630655313
522.3388929270546
522.3349228660269
522.3309528828892
522.3269829780826
522.3230131520478
522.3190434052254
522.3150737380562
522.3111041509807
522.3071346444395
522.3031652188735
522.2991958747235
522.2952266124304
522.2912574324345
522.2872883351762
522.283319321096
522.2793503906342
522.2753815442317
522.2714127823284
522.2674441053651
522.2634755137827
522.2595070080221
522.255538588524
522.2515702557295
522.2476020100795
522.2436338520153
522.2396657819774
522.2356978004065
522.231729907743
522.2277621044276
522.2237943909007
522.2198267676027
522.2158592349743
522.2118917934564
522.2079244434896
522.2039571855145
522.1999900199722
522.1960229473035
522.1920559679494
522.1880890823508
522.1841222909485
522.1801555941835
522.1761889924966
522.1722224863285
522.1682560761193
522.1642897623095
522.1603235453396
522.1563574256498
522.1523914036806
522.1484254798717
522.1444596546631
522.1404939284945
522.136528301805
522.132562775034
522.1285973486207
522.1246320230047
522.1206667986254
522.1167016759224
522.1127366553347
522.1087717373015
522.1048069222619
522.1008422106553
522.0968776029214
522.0929130994997
522.0889487008295
522.0849844073501
522.0810202195008
522.0770561377213
522.0730921624514
522.0691282941303
522.0651645331974
522.0612008800914
522.0572373352512
522.0532738991154
522.0493105721226
522.0453473547112
522.0413842473196
522.0374212503863
522.0334583643493
522.0294955896462
522.0255329267148
522.0215703759928
522.0176079379177
522.0136456129263
522.0096834014558
522.0057213039428
522.0017593208237
521.9977974525351
521.9938356995136
521.9898740621958
521.9859125410186
521.9819511364191
521.9779898488342
521.9740286787011
521.9700676264566
521.9661066925379
521.9621458773823
521.9581851814274
521.9542246051107
521.9502641488695
521.9463038131413
521.9423435983637
521.938383504974
521.9344235334098
521.9304636841085
521.9265039575076
521.9225443540441
521.9185848741555
521.9146255182792
521.9106662868527
521.9067071803134
521.9027481990989
521.8987893436466
521.8948306143944
521.8908720117803
521.8869135362419
521.8829551882169
521.878996968143
521.875038876458
521.8710809135997
521.8671230800061
521.8631653761148
521.8592078023636
521.8552503591897
521.85129304703
521.8473358663215
521.8433788175008
521.8394219010053
521.8354651172718
521.8315084667375
521.8275519498392
521.823595567014
521.8196393186992
521.815683205332
521.8117272273495
521.8077713851884
521.8038156792855
521.7998601100777
521.7959046780016
521.7919493834939
521.7879942269914
521.7840392089307
521.7800843297485
521.7761295898819
521.7721749897679
521.7682205298439
521.7642662105474
521.7603120323157
521.7563579955864
521.752404100797
521.7484503483853
521.744496738789
521.7405432724462
521.7365899497944
521.7326367712711
521.7286837373136
521.7247308483594
521.7207781048456
521.7168255072094
521.7128730558876
521.7089207513178
521.7049685939375
521.701016584184
521.6970647224949
521.6931130093077
521.68916144506
521.6852100301895
521.6812587651335
521.6773076503295
521.673356686215
521.6694058732274
521.665455211804
521.6615047023816
521.6575543453974
521.6536041412884
521.6496540904915
521.6457041934437
521.6417544505822
521.6378048623441
521.633855429167
521.6299061514884
521.6259570297449
521.6220080643728
521.6180592558081
521.6141106044869
521.610162110845
521.6062137753185
521.6022655983433
521.5983175803548
521.5943697217882
521.5904220230785
521.5864744846607
521.5825271069695
521.5785798904395
521.5746328355059
521.5706859426037
521.5667392121678
521.5627926446324
521.5588462404318
521.5549
521.5509539237709
521.5470080121783
521.5430622656555
521.5391166846358
521.5351712695523
521.5312260208376
521.5272809389243
521.5233360242447
521.5193912772316
521.5154466983178
521.5115022879355
521.5075580465178
521.5036139744976
521.4996700723078
521.4957263403809
521.4917827791493
521.4878393890452
521.4838961705015
521.4799531239508
521.4760102498259
521.4720675485588
521.4681250205814
521.4641826663252
521.4602404862218
521.4562984807025
521.4523566501981
521.4484149951398
521.4444735159583
521.4405322130843
521.4365910869486
521.432650137982
521.4287093666159
521.424768773281
521.4208283584084
521.4168881224288
521.4129480657731
521.4090081888718
521.405068492155
521.401128976053
521.3971896409961
521.3932504874148
521.3893115157395
521.3853727264005
521.3814341198282
521.3774956964527
521.3735574567037
521.3696194010109
521.3656815298037
521.3617438435114
521.3578063425631
521.3538690273882
521.349931898416
521.3459949560757
521.3420582007969
521.3381216330087
521.3341852531399
521.3302490616203
521.326313058879
521.3223772453454
521.3184416214489
521.3145061876186
521.3105709442833
521.3066358918715
521.3027010308116
521.2987663615319
521.2948318844607
521.2908976000268
521.2869635086596
521.2830296107885
521.2790959068428
521.2751623972518
521.2712290824451
521.2672959628518
521.2633630389008
521.259430311021
521.2554977796414
521.2515654451907
521.2476333080982
521.2437013687924
521.2397696277018
521.2358380852548
521.2319067418799
521.2279755980059
521.2240446540615
521.2201139104758
521.2161833676779
521.2122530260973
521.2083228861633
521.2043929483049
521.2004632129511
521.1965336805312
521.1926043514737
521.1886752262077
521.1847463051623
521.1808175887669
521.1768890774505
521.1729607716426
521.1690326717727
521.1651047782703
521.1611770915646
521.1572496120845
521.153322340259
521.1493952765173
521.1454684212889
521.1415417750032
521.1376153380899
521.1336891109783
521.1297630940979
521.1258372878784
521.1219116927492
521.1179863091398
521.1140611374793
521.1101361781967
521.1062114317207
521.1022868984793
521.0983625789005
521.0944384734122
521.0905145824423
521.0865909064188
521.0826674457695
521.078744200922
521.0748211723036
521.0708983603414
521.0669757654624
521.0630533880932
521.05913122866
521.0552092875893
521.0512875653075
521.0473660622414
521.0434447788181
521.0395237154645
521.0356028726077
521.0316822506744
521.0277618500919
521.0238416712872
521.0199217146868
521.0160019807171
521.0120824698039
521.0081631823731
521.0042441188501
521.0003252796606
520.9964066652307
520.9924882759864
520.9885701123541
520.9846521747605
520.9807344636325
520.9768169793964
520.972899722478
520.9689826933032
520.965065892298
520.9611493198882
520.9572329765004
520.9533168625609
520.9494009784959
520.9454853247317
520.9415699016946
520.9376547098101
520.9337397495038
520.9298250212015
520.925910525329
520.9219962623116
520.9180822325744
520.9141684365424
520.9102548746401
520.9063415472925
520.9024284549238
520.8985155979582
520.8946029768202
520.8906905919342
520.8867784437249
520.882866532617
520.8789548590354
520.8750434234049
520.87113222615
520.8672212676955
520.8633105484656
520.8594000688851
520.8554898293784
520.8515798303698
520.8476700722837
520.8437605555442
520.8398512805755
520.8359422478019
520.8320334576475
520.8281249105363
520.8242166068918
520.8203085471376
520.8164007316974
520.8124931609942
520.8085858354513
520.8046787554921
520.8007719215401
520.7968653340187
520.7929589933507
520.7890528999588
520.7851470542658
520.7812414566944
520.7773361076671
520.7734310076067
520.7695261569362
520.7656215560788
520.761717205458
520.7578131054971
520.7539092566193
520.7500056592477
520.7461023138054
520.7421992207156
520.7382963804015
520.7343937932864
520.7304914597936
520.7265893803461
520.7226875553671
520.7187859852799
520.7148846705078
520.7109836114738
520.7070828086008
520.7031822623118
520.6992819730298
520.695381941178
520.6914821671793
520.6875826514566
520.6836833944327
520.6797843965302
520.6758856581715
520.6719871797792
520.6680889617754
520.6641910045824
520.6602933086225
520.6563958743178
520.6524987020908
520.6486017923636
520.6447051455581
520.6408087620965
520.6369126424012
520.6330167868938
520.6291211959962
520.6252258701298
520.6213308097164
520.6174360151773
520.6135414869342
520.6096472254086
520.6057532310225
520.6018595041979
520.5979660453564
520.5940728549195
520.5901799333091
520.5862872809467
520.5823948982544
520.578502785654
520.5746109435673
520.570719372416
520.5668280726214
520.5629370446055
520.5590462887898
520.5551558055957
520.5512655954454
520.5473756587604
520.5434859959627
520.539596607474
520.5357074937161
520.5318186551109
520.5279300920803
520.5240418050461
520.5201537944303
520.5162660606549
520.5123786041416
520.5084914253122
520.504604524588
520.5007179023906
520.4968315591415
520.4929454952618
520.4890597111731
520.4851742072968
520.481288984054
520.4774040418653
520.4735193811513
520.4696350023324
520.4657509058289
520.4618670920614
520.4579835614503
520.454100314416
520.4502173513789
520.4463346727599
520.4424522789799
520.4385701704592
520.4346883476186
520.4308068108786
520.4269255606595
520.4230445973814
520.4191639214645
520.415283533329
520.4114034333949
520.4075236220821
520.4036440998103
520.3997648669994
520.3958859240689
520.3920072714387
520.3881289095285
520.3842508387576
520.3803730595449
520.3764955723096
520.3726183774712
520.3687414754492
520.3648648666627
520.3609885515317
520.3571125304755
520.3532368039142
520.3493613722675
520.345486235955
520.3416113953964
520.3377368510106
520.333862603217
520.3299886524345
520.3261149990823
520.3222416435796
520.3183685863452
520.3144958277982
520.3106233683576
520.3067512084427
520.3028793484733
520.2990077888688
520.2951365300488
520.2912655724327
520.2873949164397
520.2835245624884
520.2796545109976
520.2757847623853
520.2719153170693
520.2680461754672
520.264177337997
520.2603088050765
520.2564405771237
520.2525726545565
520.2487050377928
520.2448377272505
520.2409707233477
520.2371040265028
520.2332376371343
520.2293715556601
520.2255057824983
520.2216403180665
520.2177751627825
520.2139103170636
520.2100457813273
520.2061815559911
520.2023176414729
520.198454038191
520.1945907465639
520.1907277670099
520.1868650999471
520.1830027457933
520.1791407049656
520.1752789778817
520.1714175649591
520.1675564666153
520.1636956832677
520.1598352153343
520.1559750632329
520.1521152273814
520.1482557081978
520.1443965060995
520.140537621504
520.1366790548287
520.1328208064916
520.1289628769106
520.1251052665028
520.1212479756856
520.1173910048761
520.1135343544917
520.109678024949
520.1058220166648
520.1019663300559
520.0981109655391
520.0942559235313
520.0904012044488
520.0865468087082
520.0826927367262
520.0788389889191
520.0749855657028
520.0711324674936
520.0672796947073
520.0634272477597
520.0595751270672
520.0557233330463
520.0518718661134
520.0480207266847
520.0441699151764
520.0403194320044
520.0364692775844
520.0326194523324
520.0287699566642
520.0249207909957
520.0210719557423
520.0172234513192
520.0133752781416
520.0095274366246
520.0056799271835
520.0018327502336
519.9979859061906
519.9941393954701
519.9902932184879
519.9864473756596
519.9826018674013
519.9787566941287
519.974911856258
519.971067354205
519.9672231883852
519.9633793592137
519.959535867106
519.9556927124773
519.9518498957428
519.9480074173176
519.9441652776169
519.9403234770558
519.9364820160494
519.932640895012
519.9288001143583
519.9249596745027
519.9211195758597
519.9172798188439
519.9134404038697
519.9096013313512
519.9057626017021
519.9019242153364
519.8980861726674
519.8942484741084
519.8904111200728
519.886574110974
519.8827374472254
519.8789011292403
519.875065157432
519.871229532214
519.8673942539996
519.8635593232021
519.859724740235
519.8558905055119
519.8520566194462
519.8482230824512
519.84438989494
519.8405570573258
519.8367245700218
519.8328924334415
519.8290606479981
519.8252292141043
519.8213981321729
519.8175674026166
519.8137370258484
519.8099070022812
519.8060773323283
519.8022480164028
519.7984190549176
519.7945904482859
519.7907621969206
519.7869343012345
519.7831067616404
519.7792795785509
519.775452752379
519.771626283538
519.7678001724413
519.7639744195022
519.7601490251344
519.7563239897516
519.7524993137673
519.7486749975945
519.7448510416463
519.7410274463351
519.7372042120734
519.7333813392735
519.7295588283483
519.7257366797106
519.7219148937728
519.7180934709471
519.7142724116458
519.7104517162812
519.7066313852664
519.702811419014
519.6989918179366
519.6951725824468
519.691353712957
519.6875352098797
519.6837170736268
519.6798993046106
519.6760819032435
519.672264869938
519.6684482051065
519.6646319091616
519.6608159825156
519.6570004255815
519.6531852387722
519.649370422501
519.6455559771813
519.6417419032267
519.6379282010508
519.6341148710673
519.6303019136896
519.6264893293311
519.6226771184052
519.6188652813249
519.615053818503
519.611242730352
519.6074320172839
519.6036216797107
519.599811718044
519.5960021326952
519.5921929240761
519.5883840925984
519.5845756386735
519.5807675627128
519.5769598651276
519.573152546329
519.569345606728
519.565539046736
519.5617328667641
519.5579270672237
519.5541216485257
519.5503166110808
519.5465119552997
519.542707681593
519.5389037903711
519.5351002820445
519.5312971570235
519.5274944157183
519.5236920585386
519.5198900858937
519.516088498193
519.5122872958453
519.5084864792599
519.5046860488457
519.5008860050117
519.4970863481666
519.4932870787185
519.4894881970755
519.4856897036458
519.4818915988375
519.4780938830587
519.4742965567176
519.4704996202225
519.4667030739819
519.4629069184042
519.4591111538981
519.4553157808722
519.4515207997348
519.4477262108945
519.44393201476
519.4401382117397
519.4363448022424
519.4325517866765
519.4287591654512
519.4249669389752
519.4211751076574
519.4173836719068
519.4135926321322
519.4098019887427
519.4060117421474
519.4022218927554
519.3984324409763
519.3946433872194
519.3908547318941
519.38706647541
519.3832786181762
519.3794911606016
519.375704103095
519.3719174460658
519.3681311899232
519.3643453350766
519.3605598819355
519.3567748309098
519.3529901824091
519.3492059368433
519.345422094622
519.3416386561547
519.3378556218505
519.3340729921184
519.330290767367
519.3265089480047
519.3227275344399
519.3189465270804
519.3151659263336
519.3113857326076
519.30760594631
519.3038265678482
519.3000475976297
519.296269036062
519.2924908835522
519.2887131405076
519.2849358073355
519.281158884443
519.2773823722374
519.2736062711257
519.2698305815151
519.2660553038128
519.262280438426
519.2585059857626
519.2547319462298
519.2509583202351
519.2471851081863
519.243412310491
519.2396399275564
519.2358679597891
519.2320964075953
519.2283252713816
519.2245545515535
519.2207842485169
519.2170143626776
519.2132448944413
519.2094758442141
519.205707212402
519.2019389994108
519.1981712056464
519.1944038315147
519.1906368774215
519.1868703437721
519.1831042309715
519.1793385394245
519.1755732695357
519.1718084217092
519.1680439963492
519.1642799938596
519.1605164146446
519.1567532591083
519.1529905276549
519.1492282206888
519.145466338614
519.1417048818349
519.1379438507557
519.1341832457807
519.1304230673142
519.1266633157601
519.1229039915225
519.1191450950054
519.1153866266119
519.1116285867457
519.1078709758104
519.1041137942094
519.1003570423462
519.0966007206245
519.0928448294477
519.0890893692191
519.0853343403418
519.0815797432189
519.0778255782535
519.0740718458486
519.0703185464073
519.0665656803322
519.0628132480261
519.0590612498919
519.0553096863324
519.0515585577504
519.047807864548
519.0440576071279
519.0403077858924
519.0365584012437
519.032809453584
519.0290609433156
519.0253128708406
519.0215652365615
519.0178180408808
519.0140712842009
519.0103249669243
519.0065790894529
519.0028336521888
518.9990886555339
518.9953440998903
518.9915999856604
518.9878563132467
518.9841130830513
518.9803702954765
518.9766279509246
518.9728860497975
518.969144592497
518.9654035794248
518.9616630109825
518.957922887572
518.9541832095946
518.950443977452
518.9467051915452
518.9429668522756
518.9392289600443
518.935491515252
518.9317545182997
518.9280179695878
518.9242818695167
518.9205462184867
518.9168110168986
518.9130762651531
518.9093419636512
518.9056081127939
518.9018747129822
518.8981417646174
518.894409268101
518.8906772238344
518.8869456322192
518.883214493657
518.879483808549
518.8757535772967
518.8720238003012
518.868294477964
518.8645656106866
518.8608371988704
518.8571092429171
518.8533817432282
518.8496547002052
518.8459281142497
518.8422019857632
518.8384763151472
518.8347511028031
518.831026349132
518.8273020545349
518.8235782194125
518.8198548441652
518.8161319291936
518.8124094748983
518.8086874816801
518.8049659499394
518.8012448800765
518.7975242724916
518.7938041275848
518.7900844457564
518.7863652274067
518.7826464729363
518.778928182746
518.7752103572362
518.771492996808
518.7677761018618
518.7640596727985
518.7603437100184
518.756628213922
518.7529131849091
518.7491986233794
518.7454845297326
518.7417709043685
518.7380577476871
518.7343450600882
518.7306328419717
518.7269210937374
518.723209815785
518.7194990085146
518.7157886723263
518.7120788076201
518.708369414796
518.7046604942544
518.7009520463952
518.697244071618
518.6935365703226
518.6898295429081
518.6861229897737
518.6824169113189
518.6787113079432
518.6750061800459
518.6713015280262
518.6675973522835
518.6638936532171
518.6601904312266
518.6564876867111
518.6527854200696
518.6490836317008
518.6453823220037
518.641681491377
518.637981140219
518.6342812689282
518.6305818779025
518.6268829675397
518.623184538238
518.6194865903955
518.6157891244098
518.6120921406783
518.6083956395984
518.604699621567
518.6010040869809
518.5973090362369
518.5936144697315
518.5899203878613
518.586226791023
518.5825336796134
518.5788410540293
518.5751489146672
518.5714572619239
518.5677660961959
518.5640754178795
518.5603852273708
518.5566955250662
518.5530063113623
518.549317586656
518.545629351344
518.5419416058231
518.5382543504899
518.5345675857408
518.5308813119726
518.5271955295826
518.523510238968
518.5198254405253
518.5161411346513
518.5124573217432
518.5087740021983
518.5050911764137
518.5014088447866
518.4977270077144
518.494045665594
518.4903648188223
518.4866844677964
518.4830046129133
518.47932525457
518.4756463931632
518.4719680290897
518.4682901627463
518.4646127945294
518.4609359248353
518.45725955406
518.4535836825997
518.4499083108514
518.4462334392111
518.4425590680754
518.4388851978402
518.4352118289017
518.431538961656
518.4278665964988
518.4241947338261
518.4205233740337
518.4168525175174
518.4131821646732
518.4095123158969
518.4058429715841
518.4021741321304
518.3985057979313
518.3948379693819
518.3911706468772
518.3875038308121
518.3838375215815
518.3801717195805
518.3765064252035
518.372841638845
518.3691773608992
518.3655135917603
518.3618503318224
518.3581875814795
518.3545253411249
518.3508636111525
518.3472023919559
518.3435416839285
518.3398814874637
518.3362218029548
518.3325626307952
518.3289039713783
518.3252458250973
518.3215881923458
518.3179310735169
518.3142744690039
518.3106183791998
518.3069628044979
518.3033077452909
518.2996532019716
518.2959991749323
518.2923456645648
518.288692671261
518.2850401954125
518.2813882374115
518.2777367976502
518.2740858765206
518.2704354744147
518.266785591724
518.2631362288399
518.2594873861541
518.255839064058
518.252191262943
518.2485439832002
518.2448972252201
518.2412509893935
518.2376052761102
518.23396008576
518.2303154187331
518.2266712754196
518.2230276562096
518.2193845614939
518.2157419916631
518.2120999471077
518.2084584282185
518.204817435386
518.2011769690008
518.1975370294537
518.1938976171349
518.1902587324352
518.1866203757451
518.1829825474557
518.1793452479584
518.1757084776444
518.1720722369049
518.1684365261309
518.1648013457135
518.161166696044
518.1575325775135
518.1538989905131
518.1502659354334
518.146633412665
518.1430014225981
518.1393699656229
518.1357390421296
518.132108652508
518.1284787971482
518.1248494764401
518.1212206907734
518.117592440538
518.113964726124
518.1103375479212
518.1067109063193
518.1030848017082
518.0994592344772
518.0958342050156
518.0922097137128
518.0885857609577
518.0849623471394
518.0813394726468
518.0777171378692
518.0740953431954
518.070474089014
518.0668533757135
518.0632332036824
518.0596135733091
518.0559944849821
518.0523759390895
518.0487579360198
518.0451404761615
518.0415235599027
518.0379071876315
518.0342913597361
518.0306760766044
518.0270613386243
518.0234471461839
518.0198334996713
518.0162203994745
518.0126078459808
518.0089958395776
518.0053843806517
518.0017734695904
517.9981631067809
517.9945532926102
517.9909440274652
517.9873353117326
517.9837271458001
517.9801195300548
517.9765124648837
517.9729059506739
517.9692999878117
517.9656945766834
517.9620897176752
517.9584854111737
517.9548816575654
517.9512784572368
517.9476758105742
517.944073717964
517.9404721797924
517.9368711964458
517.9332707683105
517.9296708957728
517.9260715792192
517.9224728190355
517.9188746156075
517.9152769693202
517.9116798805586
517.9080833497072
517.9044873771501
517.9008919632712
517.8972971084542
517.8937028130823
517.890109077539
517.8865159022072
517.8829232874695
517.8793312337087
517.8757397413079
517.8721488106495
517.8685584421156
517.8649686360887
517.8613793929516
517.8577907130867
517.8542025968769
517.8506150447048
517.847028056953
517.8434416340041
517.8398557762404
517.8362704840439
517.8326857577966
517.8291015978808
517.8255180046784
517.8219349785714
517.8183525199416
517.8147706291703
517.811189306639
517.8076085527292
517.8040283678223
517.8004487522995
517.7968697065418
517.7932912309299
517.7897133258449
517.786135991668
517.7825592287799
517.7789830375615
517.7754074183937
517.7718323716573
517.7682578977332
517.7646839970022
517.7611106698454
517.7575379166439
517.7539657377787
517.750394133631
517.7468231045817
517.7432526510116
517.7396827733011
517.7361134718304
517.7325447469799
517.7289765991292
517.7254090286577
517.7218420359451
517.7182756213709
517.714709785315
517.711144528157
517.7075798502766
517.7040157520536
517.7004522338672
517.6968892960966
517.693326939121
517.6897651633193
517.6862039690708
517.6826433567545
517.6790833267493
517.6755238794341
517.6719650151878
517.6684067343896
517.6648490374188
517.6612919246546
517.6577353964764
517.6541794532633
517.6506240953942
517.6470693232478
517.6435151372033
517.6399615376396
517.6364085249357
517.6328560994708
517.6293042616236
517.6257530117729
517.622202350297
517.6186522775744
517.6151027939828
517.6115538998996
517.6080055957024
517.6044578817683
517.6009107584747
517.5973642261985
517.5938182853162
517.5902729362039
517.5867281792376
517.5831840147933
517.5796404432468
517.5760974649739
517.5725550803505
517.5690132897527
517.565472093556
517.5619314921358
517.5583914858674
517.5548520751262
517.5513132602874
517.5477750417266
517.5442374198193
517.5407003949409
517.5371639674669
517.5336281377723
517.5300929062324
517.5265582732219
517.5230242391159
517.5194908042896
517.5159579691182
517.5124257339766
517.5088940992401
517.5053630652848
517.5018326324863
517.4983028012201
517.4947735718616
517.4912449447864
517.4877169203697
517.4841894989869
517.4806626810133
517.4771364668244
517.4736108567955
517.4700858513021
517.4665614507197
517.4630376554238
517.4595144657898
517.455991882193
517.4524699050086
517.4489485346113
517.4454277713759
517.4419076156768
517.4383880678885
517.4348691283855
517.4313507975422
517.427833075733
517.4243159633321
517.4207994607137
517.4172835682522
517.4137682863217
517.410253615296
517.4067395555486
517.4032261074527
517.3997132713815
517.3962010477077
517.3926894368038
517.389178439042
517.3856680547943
517.3821582844326
517.3786491283284
517.375140586853
517.3716326603775
517.3681253492724
517.3646186539082
517.3611125746551
517.3576071118831
517.3541022659628
517.3505980372644
517.3470944261582
517.3435914330145
517.340089058203
517.3365873020933
517.3330861650544
517.3295856474548
517.3260857496626
517.3225864720458
517.319087814972
517.3155897788089
517.3120923639236
517.3085955706835
517.3050993994558
517.3016038506081
517.2981089245078
517.2946146215219
517.2911209420168
517.2876278863592
517.2841354549156
517.2806436480524
517.2771524661363
517.2736619095336
517.2701719786106
517.2666826737328
517.2631939952659
517.2597059435753
517.2562185190269
517.2527317219862
517.2492455528187
517.2457600118897
517.2422750995644
517.2387908162074
517.235307162183
517.2318241378554
517.2283417435889
517.2248599797477
517.2213788466958
517.2178983447967
517.2144184744144
517.2109392359126
517.2074606296554
517.2039826560068
517.200505315331
517.1970286079919
517.1935525343528
517.1900770947769
517.186602289628
517.1831281192691
517.1796545840631
517.1761816843724
517.1727094205595
517.1692377929872
517.1657668020185
517.1622964480163
517.1588267313433
517.1553576523621
517.1518892114346
517.1484214089227
517.1449542451877
517.1414877205915
517.1380218354958
517.1345565902626
517.1310919852539
517.1276280208314
517.1241646973564
517.1207020151902
517.1172399746944
517.1137785762304
517.1103178201598
517.1068577068437
517.1033982366426
517.0999394099175
517.0964812270294
517.093023688339
517.0895667942071
517.0861105449945
517.0826549410618
517.0791999827699
517.0757456704799
517.0722920045536
517.0688389853518
517.0653866132358
517.0619348885665
517.0584838117048
517.0550333830118
517.0515836028484
517.0481344715755
517.0446859895543
517.0412381571458
517.0377909747111
517.0343444426113
517.0308985612074
517.0274533308603
517.0240087519306
517.020564824779
517.0171215497659
517.0136789272516
517.0102369575962
517.0067956411596
517.0033549783012
516.9999149693807
516.9964756147575
516.9930369147916
516.989598869843
516.9861614802718
516.9827247464378
516.9792886687011
516.9758532474217
516.9724184829594
516.9689843756738
516.9655509259247
516.962118134072
516.9586860004757
516.9552545254952
516.9518237094895
516.9483935528175
516.9449640558379
516.941535218909
516.9381070423893
516.9346795266371
516.9312526720104
516.9278264788671
516.9244009475652
516.9209760784626
516.9175518719172
516.9141283282876
516.910705447932
516.9072832312087
516.9038616784759
516.9004407900917
516.8970205664137
516.8936010077997
516.890182114607
516.8867638871931
516.8833463259153
516.8799294311308
516.8765132031962
516.873097642468
516.8696827493028
516.8662685240571
516.8628549670872
516.8594420787489
516.8560298593978
516.8526183093894
516.8492074290788
516.8457972188213
516.8423876789722
516.8389788098865
516.8355706119193
516.8321630854253
516.82875623076
516.825350048278
516.8219445383344
516.8185397012836
516.8151355374802
516.8117320472785
516.8083292310336
516.8049270890998
516.8015256218313
516.7981248295822
516.7947247127073
516.7913252715613
516.7879265064988
516.7845284178749
516.7811310060446
516.7777342713631
516.7743382141856
516.7709428348672
516.7675481337634
516.7641541112297
516.7607607676215
516.7573681032942
516.7539761186032
516.7505848139034
516.7471941895495
516.7438042458958
516.7404149832961
516.7370264021041
516.7336385026739
516.7302512853593
516.726864750514
516.7234788984921
516.7200937296476
516.7167092443343
516.7133254429056
516.7099423257147
516.706559893115
516.7031781454599
516.6997970831027
516.6964167063967
516.6930370156953
516.6896580113518
516.6862796937195
516.6829020631518
516.679525120002
516.6761488646238
516.6727732973701
516.6693984185941
516.666024228649
516.6626507278876
516.6592779166625
516.655905795326
516.6525343642303
516.6491636237278
516.6457935741704
516.6424242159102
516.6390555492991
516.6356875746891
516.6323202924319
516.6289537028794
516.6255878063827
516.6222226032934
516.618858093963
516.6154942787433
516.6121311579856
516.6087687320411
516.6054070012614
516.6020459659977
516.598685626601
516.5953259834217
516.5919670368104
516.5886087871171
516.585251234692
516.5818943798851
516.5785382230459
516.5751827645244
516.57182800467
516.5684739438326
516.5651205823616
516.5617679206063
516.5584159589158
516.5550646976398
516.5517141371271
516.5483642777268
516.545015119788
516.5416666636594
516.5383189096898
516.534971858228
516.5316255096228
516.5282798642226
516.5249349223753
516.5215906844293
516.5182471507322
516.5149043216321
516.5115621974768
516.5082207786141
516.5048800653923
516.5015400581593
516.4982007572631
516.4948621630521
516.4915242758744
516.4881870960786
516.4848506240129
516.4815148600254
516.4781798044643
516.4748454576776
516.471511820013
516.468178891818
516.4648466734399
516.4615151652257
516.458184367522
516.4548542806748
516.4515249050302
516.4481962409342
516.4448682887324
516.4415410487705
516.4382145213941
516.4348887069488
516.4315636057801
516.4282392182337
516.4249155446547
516.4215925853883
516.4182703407795
516.4149488111733
516.411627996915
516.4083078983491
516.4049885158207
516.4016698496745
516.3983519002549
516.3950346679061
516.3917181529724
516.3884023557979
516.3850872767267
516.3817729161029
516.3784592742701
516.3751463515717
516.3718341483512
516.3685226649519
516.3652119017175
516.3619018589922
516.3585925371193
516.3552839364428
516.3519760573062
516.348668900053
516.345362465027
516.3420567525719
516.3387517630314
516.3354474967492
516.3321439540692
516.3288411353352
516.3255390408905
516.3222376710786
516.3189370262427
516.3156371067256
516.3123379128698
516.3090394450177
516.3057417035119
516.3024446886949
516.2991484009086
516.2958528404953
516.2925580077969
516.2892639031551
516.2859705269117
516.282677879408
516.2793859609852
516.2760947719845
516.2728043127466
516.2695145836125
516.2662255849228
516.2629373170186
516.2596497802402
516.2563629749287
516.2530769014244
516.2497915600676
516.2465069511987
516.243223075158
516.2399399322854
516.2366575229213
516.2333758474057
516.2300949060783
516.2268146992789
516.223535227347
516.2202564906225
516.2169784894451
516.2137012241545
516.2104246950904
516.2071489025917
516.2038738469977
516.2005995286478
516.1973259478813
516.1940531050371
516.1907810004542
516.1875096344714
516.1842390074281
516.1809691196632
516.1776999715154
516.1744315633231
516.1711638954251
516.1678969681599
516.1646307818659
516.1613653368814
516.1581006335447
516.1548366721937
516.1515734531664
516.1483109768004
516.1450492434329
516.1417882534009
516.1385280070409
516.1352685046892
516.132009746682
516.1287517333554
516.1254944650456
516.1222379420886
516.118982164821
516.1157271335784
516.1124728486965
516.1092193105106
516.1059665193558
516.1027144755668
516.0994631794789
516.0962126314272
516.0929628317466
516.0897137807716
516.0864654788367
516.0832179262762
516.0799711234243
516.0767250706145
516.0734797681799
516.0702352164532
516.0669914157669
516.0637483664538
516.0605060688459
516.0572645232754
516.0540237300739
516.0507836895737
516.0475444021062
516.0443058680027
516.0410680875945
516.0378310612133
516.0345947891907
516.0313592718579
516.028124509546
516.0248905025859
516.0216572513083
516.0184247560438
516.0151930171231
516.0119620348765
516.0087318096345
516.005502341727
516.0022736314842
515.9990456792353
515.99581848531
515.9925920500378
515.989366373749
515.9861414567735
515.982917299441
515.9796939020813
515.9764712650239
515.9732493885984
515.9700282731347
515.9668079189624
515.9635883264112
515.9603694958106
515.9571514274902
515.9539341217798
515.9507175790089
515.9475017995072
515.9442867836038
515.9410725316283
515.9378590439095
515.9346463207761
515.9314343625564
515.9282231695785
515.9250127421705
515.9218030806602
515.9185941853754
515.9153860566436
515.9121786947923
515.9089721001491
515.9057662730414
515.902561213797
515.8993569227433
515.8961534002079
515.892950646518
515.8897486620004
515.8865474469823
515.88334700179
515.88014732675
515.8769484221892
515.8737502884347
515.8705529258137
515.8673563346534
515.8641605152806
515.8609654680221
515.8577711932045
515.8545776911543
515.8513849621983
515.8481930066629
515.8450018248742
515.8418114171576
515.838621783838
515.8354329252403
515.8322448416894
515.8290575335101
515.8258710010269
515.8226852445642
515.819500264446
515.8163160609962
515.8131326345389
515.809949985398
515.8067681138974
515.8035870203609
515.8004067051116
515.7972271684727
515.7940484107668
515.7908704323166
515.7876932334449
515.7845168144739
515.7813411757257
515.7781663175223
515.7749922401853
515.7718189440362
515.7686464293967
515.7654746965878
515.7623037459308
515.7591335777469
515.7559641923568
515.7527955900815
515.7496277712415
515.7464607361577
515.7432944851508
515.7401290185418
515.7369643366513
515.7338004398003
515.7306373283096
515.7274750025
515.7243134626921
515.7211527092064
515.7179927423637
515.7148335624842
515.7116751698883
515.7085175648962
515.705360747828
515.7022047190036
515.6990494787434
515.6958950273676
515.6927413651962
515.6895884925492
515.6864364097465
515.6832851171081
515.6801346149535
515.6769849036024
515.6738359833736
515.6706878545866
515.667540517561
515.6643939726156
515.6612482200693
515.6581032602406
515.6549590934482
515.6518157200104
515.6486731402457
515.6455313544722
515.6423903630076
515.6392501661695
515.6361107642748
515.6329721576404
515.6298343465834
515.6266973314201
515.6235611124672
515.6204256900411
515.6172910644583
515.6141572360349
515.6110242050869
515.6078919719306
515.6047605368818
515.6016299002562
515.5985000623692
515.5953710235364
515.5922427840732
515.589115344295
515.5859887045173
515.5828628650553
515.5797378262249
515.576613588342
515.5734901517222
515.5703675166816
515.5672456835356
515.5641246525994
515.5610044241881
515.5578849986169
515.554766376201
515.5516485572554
515.548531542095
515.5454153310349
515.5422999243898
515.5391853224752
515.5360715256062
515.5329585340977
515.5298463482646
515.5267349684217
515.5236243948835
515.5205146279646
515.5174056679795
515.5142975152427
515.5111901700692
515.508083632774
515.5049779036718
515.5018729830775
515.4987688713055
515.4956655686702
515.4925630754861
515.4894613920679
515.4863605187301
515.483260455787
515.4801612035527
515.4770627623408
515.4739651324645
515.4708683142372
515.4677723079723
515.4646771139829
515.461582732583
515.458489164086
515.4553964088055
515.4523044670547
515.4492133391467
515.4461230253947
515.4430335261123
515.439944841613
515.4368569722106
515.4337699182194
515.4306836799536
515.4275982577279
515.4245136518567
515.4214298626545
515.4183468904358
515.415264735515
515.4121833982064
515.409102878824
515.4060231776822
515.4029442950952
515.3998662313774
515.3967889868433
515.3937125618075
515.3906369565851
515.3875621714911
515.3844882068407
515.3814150629486
515.3783427401291
515.3752712386973
515.3722005589681
515.3691307012558
515.3660616658752
515.3629934531415
515.3599260633697
515.3568594968755
515.3537937539742
515.3507288349807
515.34766474021
515.344601469977
515.3415390245965
515.3384774043833
515.335416609652
515.3323566407176
515.3292974978953
515.3262391815002
515.3231816918475
515.3201250292517
515.3170691940278
515.3140141864907
515.310960006955
515.3079066557353
515.304854133146
515.3018024395016
515.2987515751166
515.2957015403059
515.2926523353839
515.2896039606654
515.2865564164655
515.2835097030994
515.2804638208828
515.277418770131
515.2743745511594
515.2713311642834
515.2682886098186
515.2652468880802
515.2622059993838
515.2591659440449
515.256126722379
515.2530883347018
515.2500507813292
515.247014062577
515.2439781787615
515.2409431301982
515.2379089172028
515.2348755400918
515.2318429991816
515.2288112947884
515.2257804272282
515.2227503968169
515.219721203871
515.2166928487071
515.2136653316417
515.210638652991
515.2076128130713
515.2045878121984
515.2015636506882
515.1985403288564
515.1955178470188
515.1924962054906
515.1894754045874
515.1864554446248
515.1834363259183
515.1804180487828
515.1774006135339
515.1743840204869
515.1713682699568
515.1683533622589
515.1653392977079
515.1623260766186
515.1593136993062
515.156302166086
515.1532914772732
515.1502816331828
515.1472726341295
515.1442644804284
515.1412571723941
515.1382507103414
515.1352450945848
515.132240325439
515.1292364032189
515.126233328239
515.1232311008142
515.1202297212595
515.1172291898894
515.1142295070182
515.1112306729607
515.1082326880315
515.1052355525454
515.1022392668173
515.0992438311615
515.0962492458926
515.0932555113251
515.0902626277735
515.0872705955529
515.0842794149779
515.0812890863627
515.0782996100221
515.0753109862709
515.072323215424
515.0693362977967
515.0663502337037
515.06336502346
515.0603806673804
515.0573971657797
515.054414518973
515.051432727275
515.0484517910003
515.0454717104634
515.0424924859786
515.0395141178602
515.0365366064226
515.0335599519807
515.0305841548494
515.0276092153437
515.0246351337779
515.0216619104664
515.0186895457233
515.0157180398625
515.0127473931976
515.009777606043
515.0068086787127
515.0038406115206
515.0008734047807
514.9979070588071
514.9949415739139
514.9919769504157
514.9890131886269
514.9860502888615
514.983088251434
514.9801270766585
514.9771667648494
514.9742073163205
514.971248731386
514.9682910103603
514.9653341535576
514.9623781612919
514.9594230338768
514.9564687716257
514.9535153748528
514.9505628438716
514.9476111789955
514.9446603805385
514.941710448814
514.9387613841351
514.9358131868149
514.9328658571659
514.9299193955004
514.9269738021309
514.9240290773702
514.9210852215311
514.9181422349267
514.9152001178696
514.9122588706731
514.9093184936497
514.9063789871126
514.9034403513748
514.9005025867497
514.8975656935501
514.8946296720893
514.8916945226807
514.8887602456381
514.8858268412756
514.8828943099076
514.8799626518481
514.8770318674116
514.8741019569126
514.8711729206658
514.868244758986
514.8653174721882
514.8623910605878
514.8594655245003
514.8565408642409
514.853617080125
514.8506941724683
514.8477721415862
514.8448509877945
514.8419307114087
514.839011312744
514.8360927921154
514.8331751498382
514.8302583862277
514.8273425015992
514.8244274962682
514.8215133705495
514.8186001247583
514.8156877592097
514.8127762742191
514.8098656701021
514.8069559471743
514.8040471057512
514.8011391461488
514.7982320686832
514.7953258736708
514.7924205614278
514.7895161322707
514.7866125865163
514.7837099244813
514.7808081464824
514.7779072528361
514.7750072438592
514.7721081198687
514.7692098811816
514.766312528115
514.7634160609861
514.7605204801117
514.7576257858092
514.7547319783954
514.7518390581876
514.7489470255024
514.7460558806564
514.7431656239656
514.7402762557457
514.7373877763117
514.7345001859788
514.7316134850622
514.7287276738767
514.7258427527373
514.7229587219587
514.7200755818559
514.7171933327442
514.7143119749386
514.7114315087543
514.7085519345068
514.7056732525112
514.7027954630831
514.6999185665378
514.6970425631906
514.694167453357
514.6912932373517
514.6884199154898
514.6855474880862
514.6826759554555
514.6798053179124
514.6769355757716
514.6740667293476
514.6711987789546
514.6683317249068
514.6654655675189
514.6626003071061
514.6597359439837
514.6568724784676
514.6540099108737
514.651148241518
514.6482874707159
514.6454275987827
514.6425686260335
514.6397105527832
514.6368533793467
514.6339971060389
514.6311417331746
514.6282872610681
514.6254336900339
514.6225810203865
514.6197292524399
514.6168783865083
514.614028422906
514.6111793619472
514.608331203946
514.6054839492166
514.6026375980729
514.5997921508289
514.5969476077986
514.5941039692963
514.5912612356361
514.5884194071324
514.5855784840988
514.582738466849
514.5798993556967
514.5770611509557
514.5742238529398
514.5713874619629
514.5685519783389
514.565717402381
514.5628837344033
514.5600509747195
514.5572191236434
514.5543881814893
514.5515581485712
514.5487290252028
514.5459008116976
514.5430735083695
514.5402471155322
514.5374216334995
514.5345970625855
514.531773403104
514.5289506553694
514.5261288196958
514.5233078963976
514.5204878857888
514.5176687881841
514.5148506038976
514.5120333332433
514.5092169765354
514.5064015340882
514.503587006216
514.5007733932329
514.4979606954529
514.4951489131903
514.4923380467593
514.4895280964744
514.4867190626502
514.4839109456017
514.4811037456437
514.4782974630908
514.4754920982579
514.4726876514598
514.4698841230116
514.4670815132282
514.4642798224241
514.4614790509141
514.4586791990129
514.4558802670355
514.4530822552971
514.4502851641129
514.447488993798
514.4446937446675
514.4418994170368
514.4391060112208
514.4363135275352
514.4335219662954
514.4307313278169
514.4279416124147
514.4251528204032
514.4223649520974
514.4195780078122
514.4167919878624
514.4140068925627
514.4112227222275
514.4084394771713
514.405657157709
514.4028757641555
514.400095296826
514.3973157560357
514.3945371421001
514.3917594553351
514.3889826960564
514.3862068645798
514.3834319612214
514.3806579862975
514.3778849401243
514.3751128230182
514.3723416352956
514.3695713772732
514.3668020492679
514.3640336515963
514.3612661845751
514.3584996485212
514.3557340437509
514.352969370581
514.3502056293279
514.3474428203077
514.344680943837
514.3419200002323
514.3391599898099
514.336400912886
514.3336427697769
514.3308855607987
514.3281292862677
514.3253739465002
514.3226195418132
514.3198660725235
514.3171135389483
514.3143619414051
514.3116112802107
514.308861555682
514.3061127681359
514.3033649178893
514.3006180052597
514.2978720305647
514.2951269941215
514.2923828962472
514.2896397372591
514.2868975174744
514.2841562372097
514.2814158967818
514.2786764965077
514.2759380367041
514.273200517688
514.2704639397763
514.2677283032864
514.2649936085357
514.262259855842
514.2595270455228
514.2567951778957
514.2540642532787
514.2513342719891
514.2486052343448
514.245877140664
514.2431499912649
514.2404237864658
514.2376985265847
514.2349742119392
514.2322508428471
514.2295284196263
514.2268069425946
514.2240864120705
514.2213668283722
514.218648191818
514.2159305027263
514.2132137614154
514.2104979682036
514.2077831234091
514.2050692273498
514.2023562803439
514.1996442827093
514.1969332347641
514.1942231368263
514.1915139892143
514.1888057922464
514.1860985462409
514.1833922515162
514.1806869083908
514.1779825171831
514.1752790782112
514.1725765917932
514.1698750582469
514.1671744778902
514.1644748510408
514.1617761780163
514.1590784591336
514.1563816947097
514.1536858850619
514.1509910305077
514.1482971313645
514.1456041879495
514.1429122005799
514.1402211695723
514.1375310952436
514.1348419779102
514.1321538178887
514.1294666154955
514.1267803710472
514.1240950848602
514.121410757251
514.1187273885358
514.1160449790306
514.1133635290513
514.1106830389141
514.108003508935
514.1053249394298
514.1026473307144
514.0999706831047
514.097294996917
514.0946202724675
514.0919465100727
514.0892737100486
514.0866018727112
514.0839309983766
514.0812610873612
514.0785921399817
514.0759241565544
514.0732571373961
514.0705910828236
514.0679259931541
514.0652618687051
514.0625987097943
514.0599365167396
514.0572752898585
514.0546150294682
514.0519557358865
514.049297409431
514.0466400504193
514.0439836591694
514.0413282359995
514.0386737812281
514.0360202951741
514.0333677781565
514.0307162304945
514.0280656525075
514.0254160445148
514.0227674068357
514.0201197397897
514.0174730436971
514.014827318878
514.0121825656523
514.00953878434
514.0068959752608
514.0042541387351
514.0016132750831
513.9989733846252
513.9963344676813
513.9936965245714
513.9910595556149
513.9884235611311
513.9857885414391
513.9831544968582
513.9805214277075
513.9778893343058
513.9752582169725
513.972628076027
513.9699989117888
513.9673707245771
513.9647435147111
513.9621172825103
513.9594920282944
513.9568677523831
513.9542444550958
513.9516221367518
513.9490007976705
513.9463804381711
513.9437610585727
513.9411426591947
513.9385252403564
513.9359088023772
513.9332933455768
513.9306788702751
513.928065376792
513.9254528654477
513.9228413365626
513.9202307904567
513.9176212274502
513.9150126478631
513.9124050520151
513.9097984402255
513.9071928128136
513.9045881700987
513.9019845123997
513.8993818400353
513.8967801533234
513.8941794525821
513.8915797381293
513.8889810102831
513.886383269362
513.8837865156839
513.881190749567
513.8785959713297
513.8760021812901
513.8734093797667
513.8708175670776
513.8682267435407
513.8656369094743
513.8630480651967
513.8604602110264
513.8578733472824
513.8552874742835
513.8527025923487
513.8501187017972
513.8475358029483
513.8449538961214
513.8423729816362
513.8397930598127
513.8372141309707
513.8346361954301
513.8320592535107
513.8294833055321
513.8269083518145
513.8243343926785
513.8217614284446
513.8191894594332
513.816618485965
513.814048508361
513.8114795269424
513.8089115420304
513.8063445539457
513.8037785630091
513.8012135695418
513.7986495738645
513.7960865762981
513.7935245771633
513.7909635767809
513.7884035754715
513.7858445735559
513.7832865713546
513.7807295691883
513.7781735673785
513.7756185662466
513.7730645661146
513.7705115673044
513.7679595701385
513.7654085749397
513.7628585820308
513.7603095917349
513.7577616043747
513.755214620273
513.7526686397529
513.7501236631371
513.7475796907485
513.74503672291
513.7424947599444
513.7399538021747
513.7374138499239
513.7348749035153
513.7323369632724
513.7298000295181
513.7272641025758
513.724729182769
513.7221952704216
513.7196623658575
513.7171304694008
513.7145995813754
513.7120697021056
513.7095408319157
513.7070129711302
513.704486120074
513.7019602790716
513.6994354484483
513.6969116285292
513.6943888196394
513.691867022104
513.6893462362488
513.6868264623994
513.6843077008815
513.6817899520207
513.6792732161422
513.6767574935712
513.6742427846335
513.6717290896548
513.6692164089612
513.6667047428788
513.664194091734
513.6616844558536
513.659175835564
513.6566682311924
513.654161643066
513.6516560715123
513.6491515168588
513.6466479794325
513.6441454595612
513.6416439575725
513.639143473794
513.6366440085536
513.6341455621795
513.6316481350001
513.6291517273445
513.6266563395421
513.6241619719227
513.6216686248159
513.6191762985515
513.6166849934594
513.6141947098705
513.6117054481157
513.609217208526
513.6067299914326
513.6042437971668
513.6017586260597
513.5992744784431
513.5967913546489
513.5943092550089
513.5918281798553
513.5893481295203
513.5868691043362
513.5843911046355
513.581914130751
513.5794381830157
513.5769632617622
513.5744893673233
513.5720165000315
513.56954466022
513.5670738482225
513.5646040643732
513.5621353090061
513.5596675824555
513.557200885056
513.5547352171421
513.5522705790487
513.5498069711103
513.5473443936618
513.5448828470377
513.542422331573
513.5399628476026
513.537504395461
513.5350469754827
513.5325905880023
513.5301352333546
513.5276809118744
513.525227623897
513.5227753697571
513.5203241497899
513.5178739643303
513.515424813714
513.5129766982765
513.5105296183532
513.5080835742802
513.5056385663939
513.5031945950305
513.5007516605266
513.498309763219
513.4958689034448
513.493429081541
513.490990297844
513.4885525526903
513.4861158464165
513.4836801793591
513.4812455518546
513.4788119642398
513.4763794168515
513.4739479100266
513.471517444102
513.4690880194144
513.4666596363002
513.4642322950956
513.4618059961367
513.4593807397594
513.4569565262987
513.4545333560889
513.4521112294638
513.4496901467567
513.4472701083002
513.4448511144267
513.4424331654682
513.4400162617569
513.4376004036246
513.4351855914031
513.4327718254235
513.4303591060172
513.4279474335151
513.4255368082479
513.4231272305462
513.4207187007403
513.4183112191597
513.4159047861342
513.413499401993
513.4110950670654
513.4086917816803
513.4062895461664
513.4038883608516
513.4014882260642
513.3990891421317
513.3966911093814
513.3942941281405
513.391898198736
513.3895033214951
513.3871094967449
513.384716724812
513.3823250060234
513.3799343407054
513.3775447291841
513.3751561717852
513.3727686688337
513.3703822206546
513.3679968275726
513.3656124899119
513.3632292079963
513.360846982149
513.3584658126931
513.3560856999509
513.3537066442445
513.3513286458958
513.348951705226
513.3465758225559
513.3442009982064
513.3418272324982
513.339454525752
513.3370828782881
513.334712290427
513.3323427624885
513.3299742947922
513.3276068876578
513.3252405414044
513.3228752563507
513.3205110328151
513.318147871116
513.3157857715712
513.3134247344976
513.3110647602123
513.3087058490316
513.3063480012722
513.3039912172501
513.3016354972813
513.2992808416816
513.2969272507664
513.2945747248511
513.2922232642507
513.2898728692796
513.2875235402523
513.2851752774825
513.2828280812839
513.2804819519704
513.2781368898552
513.2757928952512
513.2734499684711
513.2711081098275
513.2687673196326
513.2664275981981
513.2640889458355
513.2617513628554
513.259414849568
513.2570794062829
513.2547450333093
513.252411730956
513.2500794995312
513.2477483393425
513.245418250697
513.2430892339014
513.2407612892621
513.2384344170848
513.2361086176752
513.2337838913379
513.2314602383774
513.2291376590977
513.2268161538025
513.2244957227947
513.2221763663767
513.2198580848506
513.2175408785176
513.215224747679
513.2129096926353
513.2105957136866
513.2082828111327
513.2059709852729
513.203660236406
513.2013505648304
513.1990419708438
513.1967344547436
513.1944280168266
513.1921226573895
513.1898183767282
513.1875151751381
513.1852130529139
513.18291201035
513.1806120477404
513.1783131653788
513.1760153635585
513.1737186425723
513.171423002713
513.1691284442729
513.166834967544
513.1645425728177
513.1622512603851
513.159961030537
513.157671883564
513.1553838197558
513.153096839402
513.1508109427921
513.1485261302148
513.1462424019587
513.1439597583119
513.1416781995617
513.1393977259952
513.1371183378988
513.1348400355589
513.1325628192619
513.1302866892936
513.1280116459393
513.1257376894841
513.1234648202133
513.1211930384118
513.1189223443646
513.1166527383564
513.1143842206716
513.112116791594
513.1098504514073
513.1075852003953
513.1053210388416
513.1030579670289
513.1007959852398
513.098535093756
513.096275292859
513.0940165828299
513.0917589639498
513.0895024364988
513.0872470007571
513.084992657004
513.0827394055189
513.0804872465808
513.0782361804693
513.0759862074635
513.0737373278421
513.0714895418832
513.0692428498648
513.0669972520645
513.0647527487599
513.062509340228
513.0602670267456
513.0580258085893
513.0557856860348
513.0535466593576
513.0513087288327
513.0490718947349
513.0468361573385
513.0446015169175
513.0423679737457
513.0401355280967
513.0379041802437
513.0356739304596
513.0334447790171
513.0312167261893
513.0289897722485
513.0267639174665
513.0245391621145
513.022315506463
513.0200929507821
513.0178714953415
513.0156511404107
513.0134318862581
513.0112137331525
513.0089966813623
513.0067807311555
513.0045658828001
513.0023521365638
513.0001394927135
512.9979279515162
512.9957175132388
512.9935081781477
512.9912999465093
512.9890928185894
512.9868867946536
512.9846818749675
512.9824780597955
512.9802753494023
512.9780737440515
512.9758732440062
512.9736738495287
512.9714755608809
512.9692783783241
512.9670823021193
512.9648873325266
512.962693469806
512.9605007142166
512.9583090660162
512.9561185254631
512.9539290928151
512.95174076833
512.9495535522653
512.9473674448784
512.9451824464261
512.9429985571649
512.940815777351
512.9386341072397
512.9364535470861
512.934274097144
512.932095757667
512.9299185289085
512.9277424111222
512.925567404561
512.9233935094778
512.9212207261251
512.9190490547551
512.91687849562
512.9147090489716
512.9125407150611
512.9103734941391
512.9082073864554
512.9060423922599
512.9038785118021
512.9017157453306
512.8995540930937
512.8973935553388
512.8952341323134
512.8930758242645
512.8909186314393
512.8887625540842
512.8866075924457
512.8844537467692
512.8823010173003
512.8801494042843
512.8779989079658
512.8758495285886
512.8737012663962
512.8715541216318
512.8694080945377
512.867263185356
512.8651193943285
512.862976721696
512.8608351676987
512.8586947325764
512.8565554165682
512.8544172199131
512.8522801428501
512.8501441856176
512.8480093484543
512.8458756315986
512.8437430352888
512.8416115597631
512.8394812052597
512.8373519720164
512.8352238602704
512.8330968702583
512.8309710022165
512.828846256381
512.8267226329865
512.824600132267
512.8224787544566
512.8203584997889
512.8182393684972
512.8161213608143
512.8140044769727
512.8118887172043
512.8097740817404
512.8076605708122
512.8055481846502
512.8034369234845
512.8013267875444
512.7992177770598
512.7971098922601
512.7950031333748
512.7928975006334
512.7907929942646
512.7886896144962
512.7865873615558
512.7844862356706
512.7823862370672
512.7802873659718
512.7781896226102
512.7760930072075
512.7739975199886
512.7719031611784
512.7698099310016
512.7677178296824
512.7656268574449
512.7635370145128
512.7614483011096
512.7593607174579
512.7572742637801
512.7551889402982
512.7531047472341
512.7510216848098
512.7489397532465
512.7468589527655
512.7447792835871
512.7427007459312
512.7406233400166
512.7385470660622
512.7364719242867
512.734397914908
512.7323250381437
512.7302532942113
512.7281826833275
512.726113205709
512.7240448615714
512.7219776511299
512.7199115745991
512.7178466321932
512.7157828241259
512.7137201506109
512.7116586118618
512.7095982080916
512.7075389395127
512.7054808063369
512.7034238087756
512.7013679470394
512.699313221339
512.6972596318844
512.6952071788853
512.6931558625506
512.6911056830884
512.6890566407062
512.6870087356112
512.6849619680102
512.6829163381092
512.6808718461143
512.6788284922311
512.6767862766649
512.6747451996212
512.672705261305
512.6706664619212
512.6686288016742
512.6665922807683
512.6645568994074
512.6625226577951
512.6604895561345
512.6584575946283
512.6564267734789
512.6543970928881
512.6523685530574
512.6503411541878
512.6483148964799
512.6462897801337
512.644265805349
512.6422429723259
512.6402212812636
512.6382007323609
512.6361813258166
512.6341630618288
512.6321459405956
512.6301299623149
512.628115127184
512.6261014353997
512.6240888871591
512.6220774826586
512.6200672220941
512.6180581056612
512.6160501335551
512.6140433059704
512.6120376231017
512.610033085143
512.608029692288
512.6060274447309
512.6040263426651
512.602026386284
512.600027575781
512.5980299113489
512.59603339318
512.5940380214663
512.5920437963991
512.5900507181693
512.5880587869676
512.5860680029846
512.5840783664105
512.5820898774355
512.5801025362487
512.578116343039
512.5761312979953
512.5741474013057
512.5721646531581
512.57018305374
512.5682026032387
512.5662233018404
512.564245149731
512.5622681470961
512.5602922941202
512.5583175909874
512.5563440378812
512.5543716349855
512.5524003824837
512.5504302805587
512.5484613293927
512.5464935291677
512.5445268800652
512.5425613822665
512.5405970359525
512.5386338413036
512.5366717984998
512.5347109077206
512.5327511691455
512.5307925829534
512.5288351493227
512.5268788684316
512.5249237404578
512.5229697655789
512.5210169439722
512.5190652758147
512.517114761283
512.5151654005535
512.5132171938023
512.5112701412052
512.5093242429373
512.5073794991736
512.5054359100884
512.5034934758557
512.5015521966493
512.4996120726425
512.4976731040085
512.49573529092
512.4937986335492
512.4918631320677
512.4899287866469
512.4879955974577
512.4860635646701
512.4841326884539
512.4822029689788
512.4802744064139
512.4783470009277
512.4764207526885
512.474495661864
512.4725717286219
512.4706489531293
512.468727335553
512.4668068760598
512.464887574816
512.4629694319876
512.4610524477407
512.4591366222405
512.4572219556517
512.4553084481386
512.4533960998651
512.4514849109948
512.449574881691
512.4476660121161
512.4457583024321
512.4438517528004
512.4419463633822
512.4400421343385
512.4381390658305
512.4362371580187
512.434336411063
512.4324368251225
512.4305384003562
512.4286411369224
512.4267450349789
512.424850094684
512.4229563161948
512.4210636996684
512.4191722452608
512.4172819531284
512.4153928234268
512.4135048563116
512.4116180519379
512.4097324104605
512.407847932034
512.4059646168123
512.4040824649489
512.4022014765969
512.4003216519088
512.3984429910367
512.3965654941323
512.3946891613471
512.3928139928319
512.3909399887368
512.3890671492115
512.3871954744056
512.3853249644683
512.3834556195482
512.3815874397933
512.3797204253519
512.3778545763719
512.3759898930002
512.3741263753836
512.3722640236688
512.3704028380016
512.3685428185279
512.3666839653931
512.3648262787422
512.3629697587194
512.3611144054682
512.3592602191318
512.3574071998528
512.3555553477736
512.3537046630358
512.3518551457807
512.350006796149
512.348159614281
512.3463136003168
512.3444687543963
512.3426250766593
512.340782567245
512.338941226292
512.3371010539381
512.3352620503208
512.3334242155775
512.3315875498449
512.3297520532601
512.3279177259592
512.3260845680779
512.3242525797516
512.3224217611153
512.320592112304
512.3187636334521
512.3169363246941
512.3151101861638
512.3132852179949
512.3114614203209
512.3096387932746
512.3078173369888
512.3059970515958
512.3041779372275
512.3023599940152
512.30054322209
512.2987276215827
512.2969131926236
512.2950999353427
512.2932878498693
512.2914769363326
512.2896671948615
512.2878586255845
512.2860512286295
512.2842450041242
512.2824399521955
512.2806360729705
512.2788333665758
512.2770318331379
512.2752314727832
512.2734322856377
512.2716342718275
512.269837431478
512.2680417647141
512.26624727166
512.2644539524395
512.2626618071758
512.2608708359924
512.2590810390118
512.2572924163564
512.255504968148
512.2537186945076
512.251933595556
512.2501496714135
512.2483669222001
512.2465853480358
512.2448049490401
512.2430257253329
512.2412476770335
512.2394708042605
512.2376951071324
512.2359205857672
512.2341472402827
512.2323750707963
512.2306040774247
512.2288342602844
512.2270656194917
512.2252981551626
512.2235318674132
512.2217667563591
512.2200028221155
512.2182400647971
512.2164784845181
512.2147180813924
512.2129588555335
512.2112008070546
512.2094439360687
512.2076882426886
512.2059337270268
512.2041803891957
512.2024282293071
512.2006772474722
512.1989274438017
512.1971788184057
512.1954313713941
512.1936851028765
512.1919400129623
512.19019610176
512.1884533693783
512.1867118159255
512.1849714415098
512.183232246239
512.1814942302206
512.1797573935617
512.1780217363691
512.1762872587494
512.1745539608085
512.1728218426517
512.1710909043843
512.1693611461105
512.1676325679343
512.1659051699594
512.1641789522891
512.1624539150266
512.1607300582743
512.1590073821346
512.1572858867096
512.1555655721008
512.1538464384093
512.1521284857354
512.1504117141787
512.148696123839
512.1469817148154
512.1452684872063
512.1435564411099
512.1418455766241
512.1401358938463
512.1384273928738
512.1367200738034
512.1350139367314
512.1333089817538
512.1316052089662
512.1299026184643
512.1282012103431
512.1265009846977
512.1248019416228
512.1231040812129
512.1214074035627
512.1197119087662
512.1180175969175
512.1163244681102
512.1146325224374
512.112941759992
512.1112521808666
512.1095637851533
512.1078765729444
512.1061905443314
512.1045056994055
512.1028220382577
512.1011395609785
512.0994582676578
512.0977781583856
512.0960992332514
512.0944214923443
512.0927449357532
512.0910695635666
512.0893953758723
512.0877223727578
512.0860505543105
512.084379920618
512.0827104717671
512.0810422078446
512.0793751289364
512.0777092351279
512.0760445265041
512.0743810031493
512.072718665147
512.0710575125804
512.0693975455317
512.0677387640826
512.0660811683144
512.0644247583084
512.0627695341452
512.0611154959054
512.0594626436687
512.0578109775145
512.0561604975217
512.0545112037689
512.0528630963345
512.0512161752961
512.0495704407313
512.0479258927171
512.0462825313302
512.0446403566468
512.0429993687424
512.0413595676916
512.0397209535688
512.0380835264477
512.0364472864019
512.034812233504
512.0331783678266
512.031545689442
512.0299141984224
512.0282838948394
512.0266547787646
512.0250268502691
512.0234001094236
512.0217745562984
512.0201501909635
512.0185270134887
512.0169050239433
512.0152842223965
512.013664608917
512.0120461835727
512.0104289464314
512.0088128975601
512.0071980370255
512.0055843648938
512.0039718812309
512.0023605861024
512.000750479574
511.9991415617106
511.99753383257695
511.99592729223724
511.9943219407551
511.9927177781936
511.9911148046154
511.98951302008305
511.98791242465865
511.9863130184038
511.98471480137965
511.98311777364717
511.98152193526727
511.97992728630066
511.97833382680784
511.97674155684905
511.9751504764843
511.97356058577344
511.97197188477577
511.9703843735504
511.9687980521563
511.96721292065223
511.96562897909695
511.96404622754864
511.9624646660653
511.9608842947046
511.95930511352395
511.95772712258014
511.9561503219298
511.9545747116293
511.9530002917343
511.9514270623004
511.94985502338255
511.94828417503555
511.946714517314
511.9451460502717
511.94357877396243
511.94201268843955
511.94044779375605
511.9388840899647
511.937321577118
511.935760255268
511.9342001244666
511.9326411847649
511.9310834362139
511.929526878864
511.9279715127655
511.92641733796796
511.9248643545205
511.9233125624717
511.9217619618699
511.92021255276273
511.91866433519755
511.9171173092214
511.91557147488135
511.914026832224
511.9124833812958
511.9109411221428
511.909400054811
511.9078601793461
511.9063214957935
511.9047840041986
511.90324770460603
511.90171259706045
511.90017868160595
511.8986459582864
511.89711442714525
511.8955840882259
511.89405494157137
511.89252698722413
511.8910002252267
511.8894746556212
511.88795027844895
511.8864270937509
511.88490510156777
511.88338430194
511.88186469490785
511.88034628051133
511.87882905879
511.87731302978324
511.8757981935301
511.87428455006904
511.872772099438
511.87126084167454
511.8697507768157
511.8682419048983
511.86673422595896
511.86522774003384
511.86372244715864
511.8622183473686
511.86071544069847
511.85921372718263
511.8577132068552
511.85621387975
511.8547157459005
511.85321880533985
511.85172305810084
511.8502285042155
511.8487351437155
511.8472429766319
511.84575200299565
511.8442622228375
511.8427736361878
511.8412862430769
511.8398000435348
511.83831503759103
511.8368312252747
511.83534860661445
511.8338671816385
511.83238695037477
511.8309079128508
511.8294300690939
511.8279534191311
511.82647796298926
511.8250037006947
511.82353063227384
511.82205875775304
511.8205880771582
511.8191185905153
511.81765029785
511.8161831991875
511.8147172945526
511.8132525839695
511.8117890674619
511.8103267450536
511.8088656167677
511.80740568262746
511.8059469426558
511.80448939687545
511.8030330453092
511.8015778879795
511.80012392490863
511.7986711561187
511.7972195816313
511.79576920146775
511.79432001564925
511.79287202419647
511.7914252271294
511.7899796244679
511.7885352162314
511.7870920024396
511.78564998311145
511.7842091582657
511.7827695279207
511.7813310920945
511.7798938508045
511.7784578040683
511.7770229519031
511.77558929432627
511.7741568313548
511.77272556300574
511.77129548929594
511.769866610242
511.7684389258605
511.7670124361678
511.7655871411801
511.76416304091305
511.7627401353821
511.7613184246025
511.7598979085895
511.75847858735807
511.75706046092256
511.75564352929706
511.754227792495
511.7528132505293
511.7513999034125
511.74998775115665
511.74857679377357
511.7471670312746
511.7457584636705
511.7443510909714
511.74294491318716
511.7415399303273
511.7401361424009
511.73873354941685
511.73733215138355
511.7359319483092
511.73453294020175
511.73313512706915
511.7317385089187
511.7303430857574
511.72894885759234
511.7275558244301
511.72616398627684
511.7247733431382
511.7233838950197
511.7219956419263
511.72060858386254
511.71922272083253
511.71783805284014
511.716454579889
511.7150723019823
511.71369121912295
511.7123113313135
511.710932638556
511.7095551408523
511.7081788382039
511.7068037306122
511.70542981807813
511.70405710060214
511.7026855781847
511.70131525082553
511.6999461185242
511.6985781812801
511.6972114390922
511.6958458919592
511.6944815398795
511.6931183828511
511.6917564208716
511.69039565393865
511.6890360820492
511.6876777052001
511.6863205233879
511.684964536609
511.68360974485955
511.6822561481354
511.68090374643253
511.6795525397468
511.6782025280734
511.67685371140743
511.67550608974335
511.6741596630755
511.6728144313975
511.6714703947028
511.67012755298407
511.6687859062336
511.6674454544432
511.6661061976045
511.6647681357086
511.6634312687466
511.66209559670943
511.6607611195878
511.6594278373721
511.6580957500526
511.6567648576193
511.6554351600619
511.6541066573698
511.65277934953184
511.65145323653616
511.6501283183705
511.6488045950221
511.64748206647806
511.64616073272515
511.64484059374996
511.6435216495386
511.6422039000773
511.64088734535227
511.6395719853495
511.63825782005466
511.63694484945296
511.6356330735294
511.6343224922685
511.63301310565436
511.6317049136704
511.6303979162995
511.6290921135247
511.6277875053284
511.6264840916927
511.62518187259917
511.62388084802893
511.6225810179631
511.6212823823826
511.61998494126766
511.618688694598
511.61739364235297
511.6160997845116
511.61480712105237
511.6135156519534
511.6122253771924
511.61093629674684
511.6096484105938
511.6083617187101
511.6070762210723
511.6057919176565
511.6045088084384
511.60322689339347
511.60194617249664
511.6006666457227
511.59938831304595
511.59811117444
511.59683522987854
511.59556047933467
511.5942869227816
511.593014560192
511.59174339153816
511.5904734167921
511.58920463592546
511.5879370489093
511.5866706557143
511.58540545631087
511.5841414506695
511.5828786387604
511.5816170205533
511.58035659601757
511.5790973651222
511.57783932783633
511.57658248412855
511.5753268339675
511.5740723773218
511.5728191141596
511.57156704444884
511.57031616815704
511.5690664852514
511.5678179956993
511.5665706994676
511.5653245965232
511.56407968683294
511.56283597036287
511.5615934470789
511.5603521169465
511.55911197993083
511.5578730359967
511.55663528510837
511.55539872722994
511.55416336232526
511.55292919035793
511.55169621129136
511.5504644250887
511.5492338317129
511.5480044311269
511.5467762232932
511.545549208174
511.5443233857314
511.54309875592736
511.5418753187237
511.54065307408206
511.5394320219635
511.5382121623289
511.5369934951389
511.5357760203538
511.53455973793376
511.53334464783853
511.53213075002765
511.5309180444602
511.52970653109475
511.52849620988974
511.5272870808031
511.5260791437925
511.5248723988155
511.5236668458288
511.52246248478883
511.52125931565166
511.5200573383734
511.51885655290954
511.51765695921546
511.5164585572464
511.51526134695706
511.514065328302
511.5128705012358
511.51167686571245
511.5104844216856
511.5092931691084
511.50810310793355
511.50691423811355
511.5057265596004
511.50454007234595
511.5033547763015
511.5021706714179
511.5009877576459
511.49980603493583
511.49862550323775
511.4974461625014
511.49626801267624
511.4950910537114
511.4939152855555
511.4927407081569
511.4915673214635
511.4903951254228
511.4892241199821
511.4880543050886
511.48688568068957
511.4857182467318
511.4845520031616
511.4833869499253
511.4822230869693
511.4810604142395
511.47989893168125
511.47873863924
511.477579536861
511.4764216244892
511.47526490206957
511.4741093695471
511.4729550268665
511.47180187397254
511.4706499108095
511.46949913732107
511.46834955345054
511.4672011591413
511.4660539543366
511.464907938979
511.4637631130111
511.4626194763751
511.46147702901254
511.46033577086456
511.4591957018718
511.4580568219745
511.45691913111256
511.45578262922555
511.454647316253
511.4535131921339
511.452380256807
511.4512485102105
511.4501179522827
511.44898858296125
511.4478604021836
511.44673340988703
511.4456076060083
511.444482990484
511.44335956325045
511.44223732424354
511.4411162733987
511.4399964106511
511.4388777359355
511.4377602491864
511.4366439503379
511.4355288393238
511.43441491607774
511.43330218053285
511.43219063262205
511.4310802722778
511.4299710994322
511.4288631140169
511.42775631596356
511.4266507052035
511.4255462816678
511.4244430452871
511.4233409959914
511.4222401337102
511.4211404583726
511.42004196990734
511.4189446682431
511.4178485533085
511.41675362503184
511.41565988334156
511.41456732816556
511.41347595943154
511.41238577706696
511.4112967809986
511.41020897115305
511.40912234745616
511.4080369098338
511.4069526582114
511.4058695925142
511.4047877126673
511.4037070185955
511.4026275102231
511.40154918747436
511.4004720502731
511.39939609854315
511.3983213322081
511.3972477511912
511.3961753554152
511.39510414480293
511.3940341192768
511.3929652787588
511.3918976231708
511.39083115243426
511.3897658664703
511.38870176519987
511.3876388485433
511.38657711642105
511.38551656875353
511.38445720546093
511.3833990264632
511.38234203168014
511.3812862210312
511.38023159443566
511.37917815181237
511.3781258930799
511.3770748181567
511.37602492696084
511.37497621941026
511.37392869542265
511.3728823549155
511.371837197806
511.37079322401115
511.3697504334478
511.3687088260327
511.36766840168235
511.36662916031315
511.3655911018414
511.36455422618343
511.3635185332551
511.36248402297207
511.3614506952495
511.3604185500022
511.35938758714434
511.35835780659005
511.3573292082529
511.35630179204605
511.3552755578824
511.35425050567466
511.35322663533503
511.3522039467753
511.3511824399066
511.3501621146398
511.3491429708852
511.34812500855315
511.3471082275533
511.3460926277949
511.3450782091871
511.3440649716386
511.3430529150581
511.3420420393541
511.3410323444346
511.3400238302075
511.33901649658065
511.3380103434616
511.3370053707575
511.33600157837515
511.3349989662209
511.3339975342006
511.33299728221965
511.33199821018326
511.33100031799637
511.3300036055637
511.32900807279003
511.3280137195798
511.32702054583734
511.32602855146666
511.32503773637137
511.32404810045483
511.3230596436202
511.32207236577057
511.3210862668089
511.32010134663784
511.3191176051599
511.3181350422772
511.3171536578919
511.3161734519054
511.3151944242189
511.3142165747327
511.31323990334687
511.3122644099606
511.311290094473
511.31031695678286
511.3093449967885
511.3083742143877
511.3074046094776
511.306436181955
511.30546893171623
511.3045028586574
511.30353796267406
511.3025742436617
511.30161170151547
511.30065033613033
511.299690147401
511.2987311352218
511.29777329948644
511.2968166400888
511.2958611569225
511.29490684988065
511.2939537188559
511.29300176374096
511.29205098442804
511.29110138080915
511.29015295277605
511.2892057002203
511.2882596230332
511.2873147211056
511.2863709943279
511.28542844259033
511.28448706578257
511.2835468637939
511.28260783651314
511.28166998382864
511.28073330562853
511.2797978018007
511.2788634722327
511.27793031681136
511.27699833542357
511.27606752795583
511.27513789429423
511.2742094343244
511.2732821479315
511.27235603500054
511.2714310954162
511.2705073290627
511.26958473582414
511.2686633155841
511.2677430682259
511.2668239936325
511.2659060916863
511.26498936226955
511.264073805264
511.2631594205512
511.2622462080122
511.2613341675279
511.2604232989789
511.2595136022456
511.2586050772084
511.2576977237473
511.25679154174196
511.25588653107167
511.25498269161545
511.2540800232519
511.25317852585937
511.252278199316
511.2513790434992
511.2504810582862
511.249584243554
511.2486885991794
511.24779412503864
511.2469008210074
511.24600868696103
511.245117722775
511.24422792832394
511.2433393034822
511.2424518481235
511.24156556212125
511.2406804453486
511.2397964976781
511.23891371898236
511.23803210913326
511.23715166800235
511.2362723954612
511.2353942913806
511.2345173556312
511.23364158808346
511.23276698860747
511.23189355707296
511.23102129334944
511.23015019730616
511.2292802688117
511.2284115077344
511.2275439139424
511.22667748730356
511.2258122276858
511.22494813495706
511.2240852089847
511.2232234496358
511.2223628567768
511.2215034302738
511.2206451699929
511.2197880757997
511.2189321475594
511.21807738513695
511.2172237883968
511.21637135720295
511.2155200914195
511.21466999090995
511.2138210555377
511.2129732851657
511.21212667965625
511.2112812388712
511.21043696267185
511.209593850919
511.20875190347334
511.207911120195
511.20707150094364
511.2062330455786
511.20539575395884
511.2045596259432
511.20372466139
511.2028908601574
511.2020582221033
511.2012267470855
511.20039643496153
511.19956728558833
511.1987392988229
511.19791247452196
511.19708681254184
511.1962623127386
511.1954389749679
511.1946167990853
511.1937957849462
511.1929759324058
511.1921572413192
511.1913397115416
511.19052334292775
511.18970813533184
511.18889408860747
511.1880812026075
511.18726947718443
511.1864589121904
511.1856495074774
511.1848412628968
511.18403417829956
511.1832282535366
511.18242348845826
511.1816198829145
511.18081743675526
511.18001614983
511.17921602198777
511.1784170530771
511.1776192429466
511.1768225914446
511.17602709841896
511.17523276371713
511.17443958718655
511.1736475686744
511.1728567080277
511.1720670050932
511.17127845971714
511.1704910717454
511.16970484102336
511.16891976739595
511.16813585070764
511.16735309080246
511.16657148752375
511.1657910407144
511.1650117502168
511.164233615873
511.1634566375247
511.1626808150132
511.1619061481795
511.16113263686435
511.16036028090826
511.1595890801514
511.1588190344335
511.1580501435938
511.1572824074711
511.1565158259039
511.1557503987306
511.15498612578955
511.1542230069186
511.15346104195515
511.15270023073623
511.1519405730988
511.15118206887956
511.1504247179151
511.14966852004164
511.1489134750953
511.1481595829119
511.147406843327
511.1466552561756
511.1459048212924
511.14515553851135
511.14440740766605
511.14366042859007
511.1429146011165
511.142169925078
511.141426400307
511.1406840266357
511.13994280389585
511.1392027319187
511.13846381053537
511.1377260395764
511.13698941887225
511.1362539482532
511.1355196275495
511.13478645659126
511.13405443520816
511.1333235632297
511.1325938404851
511.1318652668031
511.1311378420124
511.1304115659412
511.12968643841765
511.12896245926964
511.1282396283248
511.1275179454106
511.12679741035396
511.1260780229814
511.12535978311877
511.12464269059166
511.12392674522545
511.1232119468453
511.1224982952761
511.12178579034236
511.12107443186807
511.1203642196768
511.11965515359185
511.11894723343613
511.1182404590323
511.1175348302025
511.1168303467685
511.1161270085516
511.1154248153728
511.1147237670528
511.11402386341166
511.11332510426934
511.1126274894455
511.11193101875944
511.1112356920301
511.1105415090761
511.1098484697157
511.10915657376705
511.1084658210478
511.1077762113751
511.10708774456594
511.1064004204366
511.10571423880316
511.10502919948163
511.1043453022874
511.1036625470354
511.1029809335401
511.1023004616157
511.10162113107623
511.10094294173524
511.1002658934056
511.09958998589974
511.09891521902983
511.0982415926074
511.0975691064435
511.0968977603489
511.09622755413403
511.09555848760857
511.094890560582
511.0942237728635
511.0935581242621
511.09289361458656
511.0922302436455
511.09156801124715
511.0909069171997
511.0902469613107
511.08958814338786
511.08893046323857
511.08827392067
511.08761851548894
511.08696424750184
511.086311116515
511.08565912233445
511.0850082647656
511.0843585436133
511.0837099586823
511.08306250977677
511.0824161967003
511.0817710192562
511.0811269772476
511.0804840704773
511.0798422987478
511.0792016618614
511.07856215962016
511.0779237918255
511.07728655827856
511.0766504587801
511.0760154931307
511.0753816611305
511.07474896257924
511.0741173972763
511.073486965021
511.0728576656123
511.0722294988489
511.07160246452924
511.07097656245134
511.0703517924131
511.0697281542121
511.0691056476456
511.06848427251026
511.0678640286026
511.0672449157185
511.06662693365325
511.06601008220156
511.06539436115764
511.0647797703153
511.0641663094678
511.06355397840827
511.0629427769298
511.06233270482477
511.0617237618854
511.0611159479036
511.06050926267136
511.0599037059806
511.05929927762287
511.05869597738894
511.0580938050694
511.0574927604544
511.0568928433336
511.05629405349674
511.05569639073343
511.05509985483314
511.0545044455851
511.0539101627781
511.0533170062004
511.05272497563993
511.0521340708843
511.05154429172063
511.05095563793594
511.05036810931716
511.049781705651
511.04919642672377
511.04861227232124
511.04802924222923
511.04744733623335
511.0468665541187
511.04628689567
511.04570836067165
511.0451309489079
511.04455466016276
511.04397949421997
511.0434054508631
511.04283252987517
511.04226073103933
511.0416900541384
511.0411204989551
511.04055206527147
511.0399847528693
511.0394185615301
511.0388534910349
511.0382895411647
511.03772671170015
511.03716500242155
511.03660441310905
511.0360449435423
511.0354865935006
511.03492936276285
511.03437325110764
511.03381825831326
511.0332643841576
511.03271162841844
511.03215999087325
511.0316094712992
511.03106006947297
511.0305117851711
511.0299646181698
511.0294185682454
511.0288736351736
511.02832981873036
511.02778711869115
511.0272455348309
511.0267050669243
511.02616571474556
511.02562747806866
511.02509035666736
511.0245543503152
511.0240194587855
511.02348568185135
511.0229530192856
511.0224214708608
511.02189103634925
511.0213617155228
511.020833508153
511.0203064140108
511.01978043286664
511.01925556449083
511.01873180865374
511.0182091651255
511.01768763367596
511.01716721407485
511.0166479060916
511.01612970949515
511.0156126240543
511.0150966495376
511.0145817857131
511.01406803234846
511.0135553892108
511.0130438560671
511.0125334326838
511.012024118827
511.0115159142627
511.01100881875647
511.0105028320739
511.0099979539801
511.0094941842397
511.008991522617
511.00848996887595
511.00798952277984
511.007490184092
511.00699195257545
511.00649482799287
511.00599881010663
511.00550389867914
511.00501009347255
511.00451739424904
511.00402580077053
511.00353531279853
511.0030459300943
511.00255765241883
511.00207047953296
511.00158441119703
511.00109944717093
511.00061558721455
511.00013283108757
510.9996511785494
510.99917062935975
510.9986911832778
510.99821284006254
510.9977355994727
510.9972594612671
510.996784425204
510.99631049104147
510.99583765853714
510.99536592744863
510.9948952975331
510.9944257685473
510.99395734024785
510.9934900123911
510.993023784733
510.9925586570294
510.9920946290359
510.99163170050775
510.9911698712004
510.9907091408689
510.9902495092684
510.98979097615353
510.989333541279
510.9888772043992
510.9884219652684
510.98796782364053
510.9875147792698
510.98706283191046
510.98661198131646
510.9861622272418
510.9857135694402
510.98526600766496
510.9848195416694
510.9843741712064
510.98392989602854
510.983486715888
510.9830446305369
510.98260363972696
510.9821637432097
510.9817249407361
510.981287232057
510.98085061692274
510.9804150950832
510.979980666288
510.9795473302866
510.979115086828
510.9786839356612
510.9782538765349
510.9778249091974
510.97739703339704
510.97697024888186
510.97654455539947
510.9761199526973
510.9756964405222
510.9752740186207
510.97485268673887
510.97443244462244
510.9740132920172
510.9735952286688
510.9731782543227
510.9727623687243
510.9723475716185
510.97193386274995
510.97152124186306
510.9711097087018
510.97069926301
510.97028990453083
510.9698816330077
510.96947444818335
510.96906834980024
510.9686633376003
510.9682594113254
510.9678565707175
510.9674548155181
510.96705414546824
510.96665456030865
510.9662560597797
510.9658586436215
510.96546231157373
510.965067063376
510.964672898768
510.9642798174894
510.9638878192798
510.96349690387893
510.96310707102595
510.9627183204598
510.96233065191933
510.961944065143
510.9615585598688
510.9611741358345
510.9607907927771
510.96040853043365
510.9600273485408
510.9596472468348
510.95926822505186
510.95889028292805
510.9585134201989
510.9581376365998
510.95776293186606
510.95738930573276
510.9570167579346
510.95664528820595
510.95627489628106
510.9559055818941
510.9555373447793
510.9551701846704
510.9548041013009
510.9544390944041
510.95407516371307
510.9537123089604
510.9533505298785
510.9529898261995
510.9526301976551
510.95227164397676
510.951914164896
510.95155776014377
510.9512024294507
510.95084817254707
510.9504949891628
510.95014287902796
510.9497918418727
510.94944187742686
510.9490929854199
510.94874516558076
510.9483984176382
510.94805274132074
510.9477081363564
510.9473646024731
510.94702213939814
510.94668074685893
510.9463404245826
510.94600117229635
510.9456629897268
510.9453258766005
510.9449898326439
510.944654857583
510.94432095114377
510.94398811305183
510.9436563430325
510.9433256408111
510.94299600611276
510.9426674386621
510.94233993818335
510.9420135044
510.94168813703556
510.94136383581355
510.94104060045703
510.94071843068883
510.94039732623156
510.9400772868076
510.93975831213885
510.9394404019468
510.9391235559527
510.9388077738777
510.9384930554432
510.9381794003701
510.93786680837917
510.93755527919103
510.93724481252576
510.93693540810347
510.9366270656438
510.9363197848664
510.9360135654909
510.935708407237
510.9354043098238
510.93510127297014
510.93479929639426
510.93449837981444
510.93419852294875
510.933899725515
510.9336019872306
510.9333053078129
510.933009686979
510.9327151244457
510.93242161992936
510.9321291731463
510.9318377838127
510.93154745164435
510.9312581763566
510.93096995766456
510.9306827952831
510.9303966889268
510.93011163831017
510.92982764314735
510.9295447031521
510.9292628180379
510.92898198751806
510.92870221130585
510.92842348911455
510.92814582065745
510.9278692056478
510.92759364379896
510.9273191348239
510.9270456784355
510.92677327434654
510.9265019222699
510.92623162191836
510.92596237300455
510.92569417524106
510.92542702834027
510.9251609320141
510.9248958859742
510.9246318899321
510.92436894359895
510.92410704668583
510.9238461989033
510.92358639996183
510.9233276495716
510.92306994744223
510.92281329328335
510.92255768680417
510.92230312771386
510.92204961572116
510.9217971505346
510.92154573186264
510.9212953594138
510.9210460328964
510.9207977520185
510.92055051648805
510.92030432601297
510.9200591803008
510.91981507905876
510.91957202199393
510.91933000881346
510.91908903922405
510.9188491129324
510.9186102296447
510.91837238906675
510.9181355909039
510.91789983486143
510.9176651206447
510.917431447959
510.9171988165095
510.91696722600074
510.9167366761372
510.91650716662303
510.9162786971622
510.91605126745804
510.91582487721354
510.9155995261313
510.9153752139137
510.91515194026266
510.9149297048796
510.91470850746583
510.9144883477223
510.91426922534976
510.9140511400488
510.9138340915195
510.9136180794615
510.913403103574
510.91318916355596
510.9129762591061
510.9127643899231
510.91255355570553
510.91234375615187
510.9121349909604
510.9119272598294
510.9117205624569
510.91151489854093
510.91131026777913
510.91110666986907
510.9109041045079
510.91070257139273
510.9105020702205
510.9103026006879
510.91010416249156
510.909906755328
510.9097103788934
510.9095150328836
510.9093207169938
510.9091274309192
510.90893517435467
510.90874394699455
510.90855374853305
510.90836457866413
510.9081764370813
510.9079893234778
510.90780323754626
510.907618178979
510.90743414746845
510.9072511427067
510.90706916438586
510.9068882121979
510.90670828583444
510.906529384987
510.90635150934696
510.9061746586056
510.90599883245415
510.9058240305838
510.9056502526856
510.90547749845
510.9053057675674
510.90513505972814
510.90496537462246
510.9047967119405
510.90462907137186
510.90446245260574
510.90429685533087
510.90413227923574
510.9039687240084
510.9038061893369
510.90364467490946
510.9034841804144
510.90332470554
510.90316624997473
510.90300881340687
510.90285239552446
510.90269699601555
510.90254261456795
510.902389250869
510.9022369046059
510.90208557546526
510.90193526313334
510.9017859672961
510.9016376876396
510.9014904238498
510.90134417561245
510.9011989426129
510.90105472453644
510.9009115210684
510.9007693318941
510.9006281566986
510.90048799516677
510.9003488469837
510.9002107118343
510.90007358940335
510.89993747937575
510.89980238143613
510.8996682952691
510.89953522055913
510.89940315699033
510.8992721042467
510.8991420620119
510.89901302996947
510.8988850078027
510.89875799519456
510.8986319918279
510.8985069973856
510.89838301155015
510.8982600340042
510.8981380644298
510.89801710250896
510.8978971479233
510.89777820035425
510.8976602594831
510.89754332499075
510.8974273965585
510.8973124738673
510.89719855659774
510.8970856444303
510.89697373704536
510.89686283412294
510.89675293534316
510.89664404038564
510.8965361489298
510.89642926065477
510.89632337523955
510.89621849236306
510.8961146117045
510.8960117329428
510.8959098557569
510.8958089798253
510.8957091048265
510.895610230439
510.89551235634104
510.8954154822109
510.8953196077269
510.8952247325672
510.89513085640993
510.89503797893263
510.8949460998129
510.8948552187281
510.8947653353551
510.8946764493706
510.8945885604508
510.89450166827174
510.8944157725089
510.8943308728372
510.89424696893144
510.89416406046627
510.89408214711585
510.8940012285544
510.8939213044558
510.893842374494
510.893764438343
510.89368749567626
510.8936115461675
510.8935365894902
510.89346262531745
510.89338965332223
510.8933176731776
510.8932466845561
510.8931766871306
510.8931076805739
510.89303966455856
510.89297263875693
510.8929066028414
510.89284155648403
510.8927774993568
510.89271443113154
510.89265235147997
510.89259126007374
510.89253115658454
510.8924720406838
510.89241391204274
510.89235677033236
510.89230061522363
510.89224544638756
510.89219126349514
510.89213806621734
510.8920858542252
510.8920346271896
510.89198438478167
510.8919351266723
510.8918868525323
510.8918395620322
510.8917932548423
510.8917479306329
510.8917035890741
510.8916602298355
510.891617852587
510.89157645699817
510.89153604273866
510.8914966094779
510.8914581568852
510.8914206846296
510.8913841923798
510.89134867980425
510.89131414657123
510.891280592349
510.8912480168056
510.89121641960884
510.8911858004265
510.89115615892644
510.8911274947764
510.89109980764425
510.89107309719753
510.89104736310384
510.89102260503097
510.89099882264674
510.8909760156187
510.8909541836147
510.89093332630233
510.8909134433491
510.89089453442244
510.8908765991894
510.8908596373174
510.89084364847355
510.89082863232494
510.89081458853826
510.89080151677996
510.89078941671625
510.89077828801356
510.8907681303379
510.8907589433548
510.89075072672955
510.89074348012747
510.89073720321386
510.8907318956538
510.8907275571119
510.89072418725283
510.89072178574116
510.8907203522413
510.89071988641746
510.8907203879333
510.89072185645256
510.8907242916387
510.89072769315527
510.8907320606659
510.8907373938342
510.89074369232327
510.8907509557967
510.89075918391796
510.89076837635054
510.8907785327579
510.89078965280356
510.890801736151
510.8908147824637
510.8908287914049
510.89084376263787
510.89085969582544
510.89087659062994
510.8908944467135
510.890913263738
510.8909330413654
510.89095377925725
510.8909754770751
510.8909981344803
510.89102175113436
510.8910463266987
510.89107186083453
510.8910983532026
510.8911258034637
510.89115421127855
510.8911835763079
510.8912138982126
510.89124517665306
510.89127741128965
510.8913106017822
510.89134474779036
510.8913798489735
510.891415904991
510.8914529155025
510.8914908801674
510.8915297986451
510.8915696705947
510.89161049567525
510.8916522735456
510.8916950038645
510.8917386862907
510.89178332048283
510.8918289060994
510.8918754427987
510.89192293023876
510.8919713680776
510.89202075597274
510.89207109358205
510.89212238056285
510.8921746165723
510.89222780126767
510.8922819343066
510.89233701534664
510.8923930440456
510.89245002006106
510.8925079430506
510.89256681267176
510.89262662858215
510.8926873904389
510.89274909789907
510.89281175061984
510.8928753482581
510.8929398904705
510.89300537691344
510.89307180724296
510.89313918111526
510.8932074981861
510.89327675811074
510.89334696054453
510.89341810514276
510.8934901915607
510.8935632194537
510.89363718847704
510.893712098286
510.89378794853593
510.8938647388821
510.89394246897956
510.8940211384834
510.89410074704875
510.8941812943306
510.8942627799839
510.89434520366336
510.89442856502393
510.8945128637204
510.89459809940746
510.8946842717399
510.89477138037256
510.89485942495986
510.8949484051564
510.89503832061683
510.8951291709955
510.89522095594685
510.895313675125
510.8954073281839
510.8955019147773
510.89559743455885
510.8956938871825
510.89579127230223
510.8958895895717
510.8959888386444
510.8960890191741
510.89619013081466
510.8962921732198
510.8963951460435
510.8964990489397
510.89660388156227
510.89670964356543
510.8968163346031
510.8969239543292
510.89703250239774
510.89714197846234
510.89725238217676
510.89736371319447
510.89747597116894
510.8975891557537
510.8977032666019
510.89781830336716
510.8979342657029
510.89805115326254
510.8981689656994
510.8982877026668
510.89840736381785
510.89852794880613
510.8986494572851
510.89877188890824
510.89889524332904
510.89901952020097
510.8991447191775
510.89927083991216
510.89939788205817
510.89952584526856
510.89965472919636
510.8997845334948
510.8999152578172
510.9000469018168
510.90017946514655
510.9003129474593
510.9004473484079
510.9005826676453
510.9007189048246
510.90085605959877
510.9009941316206
510.90113312054297
510.9012730260186
510.90141384769987
510.90155558523867
510.90169823828666
510.9018418064957
510.90198628951777
510.9021316870049
510.90227799860946
510.9024252239836
510.90257336277915
510.9027224146478
510.9028723792413
510.90302325621093
510.90317504520846
510.90332774588575
510.9034813578947
510.9036358808867
510.90379131451306
510.9039476584249
510.90410491227345
510.90426307570993
510.90442214838555
510.9045821299513
510.90474302005833
510.9049048183579
510.905067524501
510.9052311381386
510.90539565892146
510.9055610865001
510.90572742052524
510.9058946606479
510.90606280651906
510.9062318577897
510.9064018141108
510.90657267513353
510.90674444050916
510.9069171098891
510.9070906829248
510.90726515926764
510.90744053856935
510.9076168204818
510.90779400465686
510.9079720907462
510.9081510784018
510.9083309672754
510.90851175701897
510.9086934472844
510.9088760377236
510.9090595279882
510.9092439177296
510.9094292065993
510.90961539424876
510.9098024803296
510.90999046449366
510.9101793463927
510.9103691256783
510.9105598020022
510.9107513750162
510.9109438443725
510.9111372097232
510.9113314707204
510.91152662701626
510.91172267826283
510.9119196241125
510.9121174642176
510.9123161982307
510.9125158258044
510.91271634659125
510.9129177602436
510.913120066414
510.9133232647551
510.9135273549194
510.91373233655946
510.9139382093279
510.9141449728773
510.9143526268602
510.9145611709294
510.9147706047377
510.91498092793796
510.91519214018246
510.91540424112355
510.9156172304134
510.91583110770404
510.9160458726479
510.91626152489727
510.9164780641043
510.9166954899213
510.9169138020007
510.91713299999475
510.91735308355607
510.9175740523372
510.9177959059908
510.9180186441693
510.9182422665254
510.9184667727114
510.91869216237984
510.91891843518334
510.9191455907747
510.9193736288069
510.91960254893326
510.9198323508072
510.92006303408226
510.9202945984119
510.92052704344957
510.9207603688488
510.9209945742628
510.9212296593449
510.92146562374825
510.9217024671262
510.92194018913193
510.9221787894185
510.922418267639
510.9226586234461
510.9228998564932
510.92314196643366
510.923384952921
510.92362881560877
510.9238735541506
510.9241191682
510.92436565741065
510.9246130214363
510.9248612599309
510.9251103725483
510.92536035894256
510.9256112187673
510.9258629516765
510.92611555732407
510.92636903536396
510.92662338545034
510.92687860723714
510.92713470037853
510.92739166452844
510.9276494993408
510.9279082044696
510.92816777956847
510.92842822429117
510.9286895382916
510.92895172122354
510.92921477274086
510.92947869249775
510.9297434801484
510.93000913534667
510.93027565774634
510.9305430470013
510.93081130276533
510.9310804246921
510.9313504124353
510.9316212656484
510.9318929839847
510.93216556709723
510.93243901463876
510.9327133262621
510.93298850161983
510.93326454036475
510.93354144214965
510.9338192066271
510.9340978334497
510.93437732227
510.93465767274034
510.9349388845131
510.9352209572406
510.9355038905754
510.93578768416984
510.93607233767653
510.93635785074804
510.9366442230374
510.93693145419735
510.93721954388053
510.93750849173927
510.9377982974257
510.9380889605914
510.93838048088793
510.9386728579664
510.9389660914779
510.93926018107305
510.9395551264027
510.93985092711756
510.9401475828682
510.94044509330485
510.94074345807786
510.9410426768373
510.94134274923323
510.9416436749155
510.9419454535344
510.94224808474024
510.94255156818355
510.94285590351484
510.9431610903844
510.9434671284426
510.9437740173394
510.944081756725
510.94439034624935
510.9446997855626
510.94501007431455
510.9453212121551
510.94563319873424
510.94594603370234
510.9462597167097
510.9465742474068
510.94688962544416
510.9472058504726
510.9475229221428
510.9478408401056
510.94815960401144
510.9484792135109
510.9487996682547
510.94912096789386
510.94944311207934
510.9497661004621
510.9500899326934
510.9504146084244
510.9507401273061
510.95106648898974
510.95139369312625
510.95172173936663
510.95205062736187
510.9523803567627
510.9527109272197
510.95304233838357
510.9533745899051
510.9537076814352
510.95404161262496
510.9543763831253
510.9547119925872
510.95504844066164
510.9553857269994
510.955723851251
510.9560628130669
510.95640261209775
510.956743247994
510.95708472040616
510.95742702898434
510.95777017337883
510.95811415323993
510.95845896821794
510.9588046179629
510.9591511021254
510.95949842035617
510.9598465723057
510.96019555762456
510.9605453759635
510.960896026973
510.96124751030385
510.96159982560727
510.9619529725342
510.9623069507357
510.96266175986267
510.9630173995659
510.96337386949614
510.96373116930437
510.96408929864157
510.9644482571587
510.9648080445068
510.96516866033727
510.96553010430154
510.96589237605104
510.96625547523723
510.96661940151176
510.9669841545263
510.9673497339323
510.96771613938114
510.96808337052454
510.96845142701414
510.9688203085016
510.96919001463885
510.96956054507797
510.9699318994711
510.9703040774703
510.97067707872776
510.97105090289557
510.9714255496256
510.9718010185698
510.97217730938024
510.9725544217093
510.97293235520925
510.9733111095325
510.97369068433164
510.974071079259
510.97445229396686
510.97483432810765
510.9752171813337
510.9756008532973
510.97598534365085
510.9763706520469
510.97675677813805
510.97714372157685
510.97753148201565
510.9779200591068
510.97830945250263
510.9786996618555
510.97909068681776
510.97948252704174
510.97987518218
510.9802686518852
510.9806629358098
510.9810580336064
510.9814539449274
510.9818506694249
510.98224820675074
510.98264655655686
510.98304571849513
510.98344569221746
510.9838464773755
510.9842480736207
510.98465048060467
510.98505369797937
510.98545772539666
510.98586256250843
510.98626820896635
510.9866746644221
510.9870819285275
510.98749000093454
510.98789888129505
510.9883085692607
510.9887190644834
510.98913036661526
510.98954247530816
510.989955390214
510.9903691109849
510.99078363727295
510.9911989687301
510.99161510500795
510.9920320457582
510.99244979063275
510.99286833928346
510.99328769136247
510.9937078465219
510.99412880441383
510.9945505646904
510.9949731270038
510.99539649100626
510.9958206563504
510.9962456226886
510.99667138967317
510.99709795695645
510.9975253241908
510.9979534910288
510.998382457123
510.998812222126
510.9992427856908
510.99967414747044
511.00010630711796
511.0005392642864
511.00097301862894
511.0014075697987
511.0018429174491
511.0022790612341
511.00271600080765
511.0031537358241
511.0035922659379
511.00403159080366
511.00447171007596
511.00491262340944
511.00535433045894
511.0057968308793
511.00624012432564
511.0066842104532
511.00712908891757
511.0075747593742
511.0080212214787
511.00846847488657
511.00891651925355
511.0093653542354
511.0098149794881
511.01026539466767
511.0107165994303
511.01116859343193
511.0116213763286
511.01207494777606
511.01252930743004
511.0129844549463
511.01344038998064
511.01389711218854
511.0143546212258
511.0148129167481
511.01527199841127
511.01573186587103
511.01619251878316
511.0166539568034
511.0171161795875
511.017579186791
511.01804297806945
511.01850755307856
511.0189729114741
511.0194390529119
511.0199059770478
511.0203736835379
511.0208421720384
511.0213114422057
511.02178149369644
511.02225232616735
511.02272393927507
511.0231963326765
511.0236695060285
511.0241434589885
511.02461819121396
511.02509370236277
511.0255699920927
511.02604706006156
511.0265249059274
511.0270035293482
511.0274829299822
511.0279631074878
511.0284440615231
511.0289257917469
511.02940829781784
511.0298915793947
511.03037563613617
511.0308604677012
511.0313460737489
511.031832453939
511.032319607931
511.0328075353846
511.03329623595965
511.03378570931596
511.0342759551134
511.03476697301204
511.03525876267196
511.035751323753
511.0362446559155
511.0367387588199
511.03723363212686
511.03772927549704
511.03822568859147
511.0387228710711
511.0392208225972
511.03971954283094
511.04021903143376
511.0407192880671
511.0412203123929
511.041722104073
511.04222466276957
511.0427279881447
511.0432320798605
511.04373693757935
511.0442425609638
511.0447489496765
511.0452561033799
511.0457640217367
511.04627270440943
511.04678215106065
511.0472923613532
511.04780333495006
511.0483150715143
511.0488275707092
511.04934083219797
511.0498548556441
511.0503696407114
511.05088518706344
511.05140149436403
511.0519185622771
511.05243639046677
511.0529549785975
511.0534743263336
511.0539944333398
511.05451529928115
511.0550369238227
511.05555930662973
511.0560824473678
511.05660634570273
511.0571310013002
511.057656413826
511.0581825829459
511.05870950832565
511.05923718963123
511.0597656265289
511.060294818685
511.0608247657661
511.06135546743855
511.0618869233693
511.06241913322543
511.0629520966741
511.06348581338267
511.06402028301846
511.0645555052491
511.0650914797421
511.06562820616506
511.06616568418605
511.0667039134731
511.0672428936944
511.06778262451854
511.0683231056142
511.0688643366505
511.0694063172969
511.06994904722325
511.0704925260994
511.07103675359537
511.07158172938153
511.0721274531282
511.0726739245061
511.073221143186
511.0737691088389
511.0743178211358
511.07486727974793
511.0754174843465
511.0759684346029
511.07652013018907
511.0770725707774
511.07762575604016
511.0781796856498
511.0787343592786
511.0792897765992
511.0798459372839
511.08040284100554
511.08096048743715
511.0815188762518
511.0820780071229
511.082637879724
511.0831984937286
511.0837598488104
511.08432194464314
511.0848847809005
511.08544835725644
511.08601267338514
511.0865777289608
511.0871435236575
511.08771005714976
511.0882773291117
511.0888453392179
511.0894140871431
511.08998357256183
511.0905537951492
511.09112475458033
511.09169645053026
511.09226888267455
511.09284205068917
511.09341595425013
511.09399059303365
511.0945659667162
511.0951420749744
511.0957189174853
511.0962964939263
511.0968748039745
511.0974538473074
511.0980336236023
511.09861413253657
511.0991953737878
511.0997773470335
511.1003600519514
511.10094348821895
511.1015276555138
511.1021125535135
511.10269818189545
511.10328454033674
511.10387162851475
511.10445944610683
511.1050479927901
511.1056372682417
511.10622727213854
511.1068180041573
511.10740946397436
511.108001651266
511.10859456570824
511.1091882069768
511.1097825747472
511.1103776686948
511.11097348849466
511.11157003382164
511.1121673043506
511.11276529975635
511.11336401971334
511.11396346389597
511.11456363197817
511.1151645236339
511.11576613853686
511.1163684763608
511.11697153677915
511.11757531946546
511.1181798240932
511.1187850503359
511.11939099786673
511.11999766635904
511.12060505548584
511.12121316492016
511.12182199433505
511.1224315434033
511.12304181179775
511.1236527991912
511.1242645052562
511.12487692966533
511.1254900720912
511.1261039322062
511.1267185096822
511.12733380419104
511.12794981540446
511.1285665429939
511.1291839866308
511.12980214598656
511.13042102073223
511.1310406105383
511.13166091507514
511.13228193401324
511.1329036670229
511.133526113774
511.1341492739359
511.1347731471776
511.1353977331678
511.1360230315752
511.13664904206826
511.1372757643155
511.13790319798545
511.1385313427463
511.1391601982664
511.1397897642137
511.14042004025623
511.14105102606186
511.14168272129814
511.1423151256324
511.14294823873183
511.1435820602635
511.14421658989454
511.14485182729186
511.14548777212235
511.1461244240529
511.1467617827507
511.1473998478825
511.14803861911514
511.1486780961152
511.14931827854934
511.14995916608405
511.15060075838574
511.15124305512063
511.15188605595495
511.1525297605549
511.1531741685865
511.15381927971566
511.1544650936082
511.1551116099297
511.15575882834537
511.1564067485208
511.15705537012127
511.1577046928121
511.1583547162584
511.15900544012493
511.1596568640764
511.16030898777717
511.1609618108914
511.1616153330831
511.1622695540161
511.1629244733547
511.16358009076316
511.16423640590597
511.1648934184475
511.1655511280519
511.16620953438337
511.16686863710584
511.16752843588324
511.16818893037953
511.16885012025864
511.1695120051843
511.17017458481996
511.1708378588289
511.1715018268744
511.1721664886197
511.17283184372786
511.17349789186187
511.1741646326843
511.1748320658578
511.17550019104465
511.1761690079072
511.17683851610786
511.1775087153087
511.17817960517164
511.1788511853583
511.17952345553044
511.1801964153499
511.18087006447854
511.1815444025783
511.18221942931086
511.18289514433786
511.183571547321
511.1842486379214
511.18492641580065
511.1856048806201
511.18628403204093
511.1869638697242
511.18764439333086
511.1883256025217
511.1890074969572
511.18969007629767
511.19037334020345
511.1910572883346
511.191741920351
511.1924272359124
511.193113234679
511.1937999163108
511.1944872804679
511.19517532681016
511.1958640549976
511.1965534646906
511.197243555549
511.1979343272326
511.19862577940125
511.19931791171484
511.2000107238332
511.2007042154162
511.2013983861234
511.20209323561426
511.20278876354814
511.20348496958445
511.2041818533826
511.2048794146019
511.20557765290187
511.20627656794204
511.20697615938184
511.2076764268804
511.2083773700972
511.20907898869154
511.20978128232287
511.21048425065055
511.211187893334
511.2118922100324
511.21259720040484
511.2133028641108
511.21400920080987
511.21471621016167
511.21542389182605
511.21613224546286
511.2168412707317
511.21755096729225
511.2182613348041
511.2189723729268
511.2196840813201
511.2203964596438
511.22110950755746
511.221823224721
511.22253761079423
511.2232526654368
511.2239683883083
511.2246847790682
511.225401837376
511.2261195628914
511.22683795527405
511.2275570141833
511.2282767392787
511.2289971302198
511.2297181866661
511.23043990827705
511.23116229471157
511.2318853456286
511.23260906068685
511.23333343954505
511.2340584818621
511.234784187297
511.2355105555084
511.2362375861551
511.2369652788957
511.23769363338874
511.2384226492927
511.23915232626587
511.2398826639662
511.2406136620518
511.2413453201807
511.24207763801087
511.24281061520014
511.2435442514063
511.24427854628743
511.24501349950174
511.24574911070727
511.2464853795618
511.2472223057232
511.247959888849
511.24869812859674
511.24943702462406
511.2501765765885
511.25091678414765
511.25165764695885
511.25239916467945
511.25314133696656
511.2538841634771
511.25462764386816
511.2553717777969
511.2561165649204
511.25686200489577
511.2576080973797
511.2583548420291
511.25910223850065
511.2598502864507
511.2605989855358
511.26134833541255
511.26209833573785
511.2628489861686
511.26360028636145
511.2643522359733
511.26510483466086
511.26585808208074
511.26661197788985
511.2673665217453
511.26812171330425
511.26887755222356
511.2696340381599
511.2703911707697
511.27114894970964
511.2719073746366
511.27266644520773
511.2734261610799
511.27418652190977
511.274947527354
511.2757091770693
511.2764714707123
511.2772344079399
511.27799798840874
511.27876221177576
511.2795270776976
511.2802925858309
511.2810587358322
511.28182552735757
511.2825929600633
511.2833610336054
511.2841297476398
511.2848991018227
511.28566909581014
511.28643972925806
511.2872110018227
511.28798291316025
511.28875546292693
511.2895286507787
511.29030247637183
511.2910769393627
511.291852039408
511.2926277761644
511.29340414928834
511.294181158436
511.2949588032636
511.29573708342764
511.2965159985845
511.2972955483906
511.29807573250264
511.2988565505775
511.29963800227233
511.300420087244
511.3012028051496
511.3019861556463
511.302770138391
511.30355475304054
511.30433999925185
511.3051258766818
511.30591238498755
511.3066995238262
511.3074872928546
511.3082756917295
511.309064720107
511.30985437764343
511.31064466399494
511.31143557881774
511.3122271217683
511.3130192925032
511.3138120906792
511.31460551595296
511.31539956798133
511.3161942464212
511.3169895509295
511.3177854811629
511.318582036778
511.3193792174311
511.32017702277835
511.320975452476
511.32177450617996
511.32257418354607
511.32337448423004
511.3241754078874
511.32497695417374
511.3257791227443
511.32658191325436
511.3273853253595
511.32818935871546
511.328994012978
511.3297992878031
511.33060518284697
511.3314116977658
511.3322188322161
511.333026585854
511.33383495833596
511.33464394931866
511.335453558459
511.33626378541385
511.3370746298401
511.3378860913947
511.33869816973424
511.33951086451543
511.3403241753947
511.3411381020285
511.341952644073
511.34276780118444
511.34358357301903
511.34439995923276
511.3452169594816
511.34603457342155
511.3468528007086
511.34767164099867
511.34849109394804
511.3493111592129
511.35013183644924
511.350953125313
511.3517750254605
511.3525975365478
511.35342065823124
511.3542443901672
511.3550687320121
511.35589368342244
511.35671924405506
511.35754541356687
511.35837219161476
511.35919957785563
511.36002757194615
511.36085617354274
511.36168538230163
511.36251519787925
511.36334561993203
511.3641766481164
511.36500828208864
511.3658405215049
511.3666733660216
511.367506815295
511.3683408689815
511.36917552673754
511.3700107882196
511.3708466530841
511.3716831209872
511.3725201915854
511.37335786453514
511.3741961394926
511.375035016114
511.37587449405555
511.37671457297324
511.37755525252305
511.37839653236097
511.37923841214297
511.3800808915248
511.38092397016226
511.38176764771083
511.38261192382583
511.38345679816257
511.38430227037634
511.38514834012267
511.3859950070571
511.38684227083513
511.3876901311123
511.3885385875444
511.3893876397874
511.39023728749726
511.39108753032997
511.3919383679415
511.3927897999881
511.39364182612576
511.39449444601064
511.395347659299
511.396201465647
511.39705586471086
511.39791085614684
511.3987664396111
511.39962261475966
511.40047938124826
511.40133673873265
511.40219468686837
511.4030532253107
511.4039123537152
511.40477207173694
511.405632379031
511.40649327525216
511.40735476005557
511.4082168330965
511.4090794940305
511.40994274251307
511.4108065781993
511.41167100074426
511.41253600980326
511.41340160503137
511.41426778608366
511.4151345526152
511.4160019042811
511.41686984073635
511.4177383616361
511.4186074666352
511.4194771553887
511.4203474275514
511.421218282778
511.4220897207231
511.42296174104104
511.42383434338626
511.42470752741315
511.42558129277586
511.42645563912856
511.4273305661254
511.42820607342037
511.42908216066735
511.4299588275203
511.43083607363315
511.43171389866006
511.43259230225476
511.43347128407095
511.43435084376233
511.4352309809826
511.43611169538576
511.4369929866257
511.4378748543561
511.4387572982305
511.43964031790256
511.440523913026
511.4414080832544
511.4422928282411
511.4431781476394
511.44406404110237
511.444950508283
511.44583754883433
511.44672516240917
511.4476133486603
511.44850210724053
511.44939143780266
511.4502813399997
511.45117181348496
511.45206285791187
511.4529544729337
511.4538466582037
511.45473941337536
511.45563273810217
511.4565266320376
511.45742109483535
511.45831612614916
511.4592117256325
511.46010789293837
511.4610046277196
511.46190192962854
511.4627997983173
511.463698233438
511.46459723464227
511.4654968015816
511.46639693390716
511.4672976312702
511.46819889332164
511.4691007197123
511.4700031100929
511.47090606411416
511.47180958142667
511.4727136616807
511.47361830452655
