516.8441804743921
516.8414473126878
516.8387141649504
516.8359810313028
516.8332479118682
516.830514806769
516.8277817161276
516.8250486400663
516.8223155787074
516.8195825321731
516.8168495005851
516.8141164840653
516.8113834827356
516.8086504967181
516.8059175261347
516.8031845711072
516.8004516317566
516.7977187082039
516.7949858005701
516.7922529089761
516.789520033543
516.7867871743919
516.7840543316435
516.7813215054188
516.7785886958392
516.7758559030259
516.7731231271001
516.7703903681833
516.7676576263967
516.7649249018624
516.7621921947022
516.7594595050376
516.75672683299
516.7539941786805
516.7512615422303
516.7485289237603
516.7457963233918
516.7430637412455
516.7403311774416
516.7375986321002
516.7348661053412
516.7321335972841
516.7294011080486
516.7266686377544
516.7239361865219
516.7212037544715
516.7184713417236
516.7157389483983
516.7130065746159
516.7102742204962
516.7075418861592
516.7048095717242
516.7020772773109
516.6993450030387
516.6966127490269
516.6938805153947
516.691148302261
516.6884161097452
516.6856839379667
516.682951787045
516.6802196570992
516.6774875482485
516.6747554606119
516.6720233943084
516.6692913494575
516.6665593261783
516.6638273245902
516.6610953448122
516.6583633869633
516.6556314511623
516.652899537528
516.6501676461788
516.6474357772332
516.6447039308092
516.6419721070246
516.6392403059969
516.6365085278436
516.6337767726819
516.6310450406289
516.6283133318021
516.6255816463191
516.6228499842974
516.6201183458544
516.6173867311073
516.6146551401736
516.6119235731704
516.6091920302152
516.6064605114253
516.603729016918
516.6009975468106
516.5982661012209
516.5955346802663
516.592803284064
516.5900719127313
516.5873405663855
516.5846092451435
516.5818779491227
516.5791466784405
516.5764154332143
516.5736842135617
516.5709530196001
516.5682218514463
516.5654907092172
516.5627595930299
516.5600285030013
516.5572974392484
516.5545664018879
516.551835391036
516.5491044068089
516.5463734493225
516.5436425186928
516.5409116150355
516.5381807384664
516.5354498891007
516.5327190670538
516.5299882724408
516.5272575053774
516.524526765979
516.5217960543611
516.5190653706392
516.5163347149283
516.5136040873434
516.5108734879988
516.5081429170087
516.5054123744877
516.5026818605498
516.4999513753093
516.4972209188801
516.4944904913765
516.4917600929128
516.4890297236035
516.4862993835628
516.4835690729052
516.4808387917452
516.4781085401975
516.4753783183766
516.4726481263968
516.4699179643727
516.4671878324187
516.4644577306495
516.4617276591799
516.4589976181247
516.4562676075985
516.4535376277157
516.4508076785906
516.4480777603377
516.4453478730708
516.4426180169036
516.4398881919493
516.4371583983208
516.4344286361312
516.4316989054938
516.4289692065212
516.4262395393258
516.4235099040205
516.4207803007181
516.418050729531
516.4153211905724
516.4125916839549
516.4098622097919
516.407132768196
516.4044033592803
516.4016739831574
516.3989446399397
516.3962153297399
516.3934860526707
516.3907568088447
516.3880275983744
516.3852984213723
516.3825692779511
516.379840168223
516.3771110923004
516.3743820502956
516.3716530423213
516.3689240684902
516.3661951289147
516.3634662237076
516.3607373529818
516.3580085168502
516.3552797154258
516.3525509488214
516.3498222171498
516.3470935205233
516.3443648590543
516.341636232855
516.3389076420377
516.3361790867147
516.3334505669976
516.3307220829982
516.3279936348282
516.3252652225989
516.3225368464217
516.3198085064083
516.3170802026704
516.314351935319
516.3116237044657
516.3088955102218
516.3061673526987
516.3034392320079
516.3007111482603
516.2979831015665
516.2952550920369
516.2925271197818
516.2897991849114
516.2870712875359
516.2843434277648
516.2816156057075
516.2788878214732
516.2761600751707
516.2734323669089
516.2707046967972
516.2679770649444
516.2652494714592
516.2625219164507
516.2597944000278
516.257066922299
516.2543394833732
516.251612083359
516.248884722365
516.2461574005002
516.2434301178738
516.2407028745944
516.2379756707711
516.2352485065127
516.2325213819278
516.2297942971251
516.2270672522133
516.224340247301
516.2216132824971
516.21888635791
516.2161594736482
516.2134326298202
516.2107058265348
516.2079790639003
516.2052523420256
516.2025256610192
516.1997990209899
516.1970724220461
516.1943458642965
516.1916193478497
516.1888928728141
516.1861664392976
516.1834400474078
516.1807136972526
516.1779873889401
516.175261122578
516.1725348982742
516.1698087161368
516.1670825762734
516.1643564787918
516.1616304237997
516.1589044114047
516.1561784417146
516.1534525148371
516.1507266308805
516.148000789953
516.1452749921633
516.1425492376196
516.1398235264302
516.137097858703
516.134372234546
516.1316466540671
516.1289211173738
516.126195624574
516.1234701757754
516.1207447710859
516.1180194106131
516.1152940944645
516.1125688227477
516.1098435955702
516.1071184130393
516.1043932752624
516.1016681823468
516.0989431344002
516.0962181315309
516.0934931738474
516.0907682614576
516.0880433944693
516.0853185729906
516.0825937971291
516.0798690669927
516.0771443826892
516.0744197443265
516.0716951520127
516.0689706058555
516.0662461059629
516.063521652443
516.0607972454039
516.0580728849537
516.0553485712004
516.0526243042519
516.0499000842161
516.047175911201
516.044451785314
516.041727706663
516.0390036753557
516.0362796914998
516.0335557552024
516.0308318665712
516.0281080257135
516.0253842327367
516.0226604877481
516.019936790855
516.0172131421642
516.0144895417822
516.0117659898152
516.0090424863694
516.0063190315503
516.0035956254641
516.0008722682165
515.9981489599137
515.9954257006617
515.9927024905668
515.9899793297351
515.9872562182728
515.9845331562859
515.9818101438804
515.9790871811621
515.976364268237
515.973641405211
515.9709185921896
515.9681958292789
515.9654731165853
515.9627504542151
515.9600278422746
515.95730528087
515.9545827701073
515.9518603100929
515.9491379009329
515.9464155427337
515.9436932356015
515.9409709796424
515.938248774963
515.935526621669
515.9328045198669
515.9300824696626
515.9273604711622
515.9246385244711
515.9219166296949
515.9191947869391
515.9164729963096
515.9137512579119
515.9110295718514
515.9083079382332
515.9055863571626
515.902864828745
515.9001433530854
515.8974219302887
515.8947005604601
515.8919792437047
515.8892579801274
515.8865367698328
515.8838156129256
515.8810945095105
515.8783734596922
515.8756524635752
515.8729315212641
515.8702106328632
515.8674897984766
515.8647690182087
515.8620482921634
515.8593276204452
515.8566070031585
515.8538864404073
515.8511659322959
515.8484454789287
515.8457250804105
515.8430047368453
515.840284448337
515.8375642149896
515.8348440369069
515.832123914193
515.8294038469515
515.8266838352866
515.8239638793021
515.8212439791015
515.8185241347879
515.8158043464647
515.813084614235
515.8103649382016
515.8076453184673
515.8049257551348
515.8022062483072
515.7994867980873
515.7967674045777
515.7940480678814
515.7913287881009
515.7886095653392
515.7858903996986
515.7831712912813
515.7804522401897
515.7777332465258
515.7750143103918
515.77229543189
515.7695766111225
515.7668578481913
515.764139143199
515.7614204962484
515.7587019074423
515.7559833768836
515.7532649046749
515.7505464909183
515.7478281357158
515.7451098391699
515.7423916013828
515.7396734224563
515.7369553024922
515.734237241592
515.7315192398579
515.7288012973914
515.7260834142941
515.7233655906667
515.7206478266104
515.717930122226
515.7152124776145
515.7124948928769
515.709777368114
515.7070599034272
515.7043424989175
515.7016251546862
515.6989078708344
515.6961906474631
515.6934734846733
515.6907563825654
515.6880393412399
515.6853223607972
515.6826054413378
515.6798885829627
515.6771717857724
515.6744550498676
515.6717383753486
515.6690217623155
515.6663052108687
515.6635887211083
515.660872293135
515.6581559270495
515.6554396229525
515.6527233809442
515.6500072011248
515.6472910835943
515.6445750284526
515.6418590357995
515.6391431057347
515.6364272383577
515.6337114337679
515.6309956920644
515.6282800133466
515.6255643977137
515.6228488452649
515.6201333560999
515.6174179303185
515.6147025680203
515.6119872693049
515.6092720342718
515.6065568630207
515.6038417556514
515.6011267122636
515.5984117329573
515.5956968178322
515.5929819669878
515.5902671805237
515.5875524585391
515.5848378011332
515.582123208405
515.5794086804536
515.5766942173774
515.5739798192748
515.5712654862442
515.5685512183837
515.5658370157913
515.5631228785652
515.5604088068036
515.5576948006047
515.5549808600671
515.5522669852891
515.5495531763696
515.5468394334076
515.544125756502
515.5414121457512
515.5386986012537
515.5359851231082
515.5332717114135
515.5305583662681
515.5278450877705
515.5251318760196
515.5224187311143
515.5197056531534
515.5169926422356
515.5142796984591
515.5115668219229
515.5088540127257
515.5061412709662
515.503428596743
515.5007159901548
515.4980034513009
515.4952909802806
515.4925785771937
515.4898662421393
515.4871539752165
515.484441776524
515.4817296461603
515.4790175842237
515.4763055908126
515.4735936660251
515.4708818099599
515.4681700227153
515.4654583043895
515.4627466550807
515.4600350748871
515.4573235639067
515.4546121222376
515.4519007499774
515.4491894472238
515.4464782140745
515.4437670506271
515.4410559569795
515.43834493323
515.4356339794768
515.4329230958186
515.4302122823536
515.4275015391798
515.4247908663953
515.4220802640976
515.4193697323846
515.4166592713538
515.413948881103
515.4112385617299
515.4085283133319
515.4058181360066
515.4031080298515
515.400397994964
515.3976880314414
515.3949781393807
515.392268318879
515.3895585700333
515.3868488929405
515.3841392876978
515.3814297544023
515.3787202931509
515.3760109040398
515.3733015871654
515.3705923426238
515.3678831705107
515.3651740709216
515.3624650439523
515.3597560896984
515.357047208256
515.3543383997209
515.3516296641893
515.3489210017573
515.3462124125205
515.3435038965746
515.3407954540149
515.3380870849368
515.3353787894358
515.3326705676078
515.3299624195487
515.3272543453546
515.3245463451218
515.3218384189464
515.3191305669246
515.3164227891526
515.3137150857266
515.3110074567427
515.3082999022971
515.305592422486
515.3028850174056
515.3001776871523
515.2974704318225
515.2947632515128
515.2920561463199
515.2893491163405
515.2866421616719
515.2839352824111
515.2812284786552
515.278521750501
515.275815098045
515.2731085213833
515.2704020206121
515.2676955958271
515.2649892471242
515.2622829745991
515.2595767783477
515.2568706584656
515.2541646150486
515.2514586481917
515.2487527579898
515.2460469445376
515.2433412079305
515.2406355482639
515.2379299656333
515.235224460134
515.2325190318612
515.2298136809101
515.2271084073756
515.2244032113528
515.2216980929367
515.2189930522223
515.2162880893048
515.213583204279
515.2108783972395
515.2081736682811
515.2054690174983
515.202764444986
515.2000599508389
515.1973555351516
515.1946511980183
515.1919469395331
515.1892427597903
515.1865386588844
515.1838346369101
515.1811306939618
515.1784268301338
515.1757230455206
515.1730193402165
515.1703157143162
515.1676121679144
515.1649087011054
515.1622053139837
515.159502006644
515.1567987791806
515.1540956316879
515.1513925642602
515.1486895769912
515.1459866699748
515.1432838433053
515.1405810970763
515.1378784313812
515.135175846313
515.1324733419643
515.1297709184274
515.1270685757949
515.1243663141591
515.1216641336131
515.1189620342494
515.1162600161609
515.1135580794404
515.1108562241803
515.1081544504726
515.1054527584093
515.1027511480823
515.1000496195835
515.0973481730049
515.0946468084386
515.0919455259769
515.0892443257125
515.0865432077372
515.0838421721431
515.081141219022
515.078440348466
515.0757395605666
515.0730388554151
515.0703382331027
515.06763769372
515.0649372373574
515.0622368641049
515.0595365740525
515.0568363672902
515.0541362439086
515.0514362039982
515.0487362476498
515.0460363749545
515.0433365860036
515.0406368808884
515.0379372596998
515.0352377225291
515.0325382694674
515.0298389006053
515.0271396160332
515.0244404158415
515.0217413001207
515.0190422689612
515.016343322454
515.0136444606891
515.0109456837569
515.008246991748
515.0055483847535
515.0028498628645
515.0001514261718
514.9974530747662
514.994754808739
514.9920566281809
514.9893585331826
514.986660523835
514.9839626002296
514.9812647624577
514.9785670106104
514.9758693447785
514.9731717650535
514.9704742715268
514.9677768642897
514.9650795434335
514.9623823090493
514.9596851612283
514.9569881000617
514.9542911256405
514.9515942380552
514.9488974373968
514.9462007237554
514.9435040972213
514.940807557885
514.9381111058366
514.9354147411656
514.9327184639616
514.930022274314
514.9273261723125
514.9246301580471
514.9219342316075
514.9192383930837
514.9165426425662
514.9138469801456
514.9111514059124
514.9084559199567
514.905760522369
514.9030652132393
514.9003699926576
514.8976748607134
514.8949798174964
514.8922848630958
514.8895899976011
514.8868952211016
514.8842005336861
514.8815059354437
514.8788114264629
514.8761170068325
514.8734226766411
514.8707284359772
514.8680342849294
514.8653402235863
514.8626462520357
514.8599523703659
514.8572585786648
514.8545648770197
514.8518712655178
514.8491777442463
514.8464843132919
514.8437909727407
514.8410977226794
514.8384045631939
514.8357114943707
514.8330185162964
514.8303256290582
514.827632832743
514.824940127438
514.8222475132303
514.8195549902065
514.8168625584527
514.8141702180557
514.8114779691019
514.8087858116779
514.80609374587
514.8034017717645
514.8007098894474
514.7980180990049
514.7953264005233
514.7926347940885
514.7899432797864
514.7872518577029
514.7845605279241
514.7818692905363
514.7791781456259
514.7764870932796
514.7737961335839
514.7711052666256
514.7684144924912
514.7657238112669
514.7630332230389
514.7603427278933
514.757652325916
514.7549620171927
514.75227180181
514.7495816798545
514.7468916514132
514.7442017165732
514.7415118754219
514.7388221280463
514.7361324745337
514.7334429149711
514.7307534494452
514.7280640780424
514.725374800849
514.7226856179517
514.7199965294373
514.717307535392
514.7146186359026
514.711929831056
514.709241120939
514.7065525056388
514.7038639852425
514.7011755598375
514.6984872295108
514.6957989943493
514.6931108544396
514.6904228098687
514.687734860723
514.6850470070891
514.6823592490535
514.6796715867032
514.6769840201249
514.6742965494055
514.6716091746317
514.6689218958901
514.666234713267
514.663547626849
514.6608606367225
514.6581737429743
514.6554869456905
514.6528002449573
514.6501136408607
514.6474271334865
514.6447407229206
514.6420544092485
514.6393681925557
514.6366820729269
514.6339960504466
514.6313101251998
514.6286242972709
514.625938566745
514.6232529337072
514.6205673982428
514.6178819604364
514.6151966203728
514.6125113781364
514.6098262338115
514.607141187482
514.6044562392316
514.6017713891441
514.5990866373035
514.596401983793
514.5937174286961
514.5910329720961
514.5883486140766
514.5856643547214
514.5829801941139
514.5802961323376
514.5776121694759
514.5749283056124
514.5722445408311
514.5695608752156
514.5668773088493
514.5641938418149
514.5615104741956
514.5588272060742
514.5561440375333
514.5534609686555
514.5507779995229
514.5480951302173
514.5454123608207
514.542729691415
514.5400471220825
514.5373646529052
514.5346822839657
514.5320000153462
514.5293178471289
514.5266357793968
514.5239538122322
514.5212719457178
514.5185901799358
514.5159085149686
514.5132269508982
514.5105454878063
514.5078641257743
514.5051828648835
514.502501705215
514.4998206468498
514.4971396898692
514.4944588343538
514.4917780803843
514.4890974280412
514.4864168774053
514.4837364285573
514.4810560815785
514.4783758365498
514.4756956935524
514.4730156526667
514.4703357139734
514.4676558775533
514.464976143487
514.4622965118552
514.4596169827388
514.4569375562181
514.454258232374
514.451579011287
514.448899893038
514.446220877708
514.4435419653781
514.4408631561297
514.4381844500443
514.4355058472034
514.4328273476882
514.4301489515798
514.4274706589589
514.4247924699063
514.4221143845031
514.4194364028305
514.4167585249694
514.4140807510004
514.4114030810039
514.4087255150604
514.4060480532504
514.403370695654
514.4006934423511
514.3980162934214
514.3953392489444
514.392662309
514.3899854736679
514.387308743028
514.3846321171601
514.3819555961437
514.3792791800585
514.3766028689842
514.3739266630006
514.3712505621876
514.3685745666247
514.3658986763913
514.3632228915664
514.3605472122287
514.3578716384574
514.3551961703316
514.3525208079305
514.3498455513333
514.3471704006184
514.3444953558648
514.3418204171509
514.339145584555
514.3364708581558
514.333796238032
514.3311217242618
514.3284473169234
514.325773016095
514.3230988218548
514.3204247342809
514.3177507534512
514.3150768794436
514.3124031123363
514.3097294522069
514.3070558991332
514.3043824531927
514.301709114463
514.2990358830215
514.2963627589451
514.2936897423107
514.2910168331952
514.2883440316754
514.2856713378284
514.2829987517313
514.2803262734611
514.2776539030948
514.2749816407096
514.2723094863828
514.2696374401911
514.2669655022115
514.2642936725207
514.261621951195
514.2589503383111
514.2562788339457
514.2536074381754
514.2509361510776
514.2482649727284
514.2455939032037
514.242922942579
514.2402520909301
514.237581348333
514.234910714864
514.2322401905991
514.2295697756146
514.2268994699867
514.2242292737914
514.2215591871039
514.2188892099999
514.2162193425544
514.2135495848421
514.2108799369381
514.2082103989172
514.2055409708543
514.2028716528242
514.2002024449022
514.1975333471634
514.194864359683
514.1921954825362
514.1895267157978
514.1868580595425
514.1841895138447
514.1815210787787
514.1788527544192
514.1761845408404
514.1735164381172
514.1708484463244
514.1681805655368
514.1655127958294
514.162845137277
514.1601775899545
514.1575101539371
514.1548428292998
514.1521756161179
514.1495085144671
514.1468415244232
514.1441746460617
514.1415078794588
514.1388412246903
514.1361746818324
514.1335082509612
514.1308419321527
514.128175725483
514.125509631028
514.1228436488637
514.1201777790662
514.1175120217114
514.1148463768749
514.1121808446327
514.1095154250603
514.106850118233
514.1041849242259
514.101519843114
514.0988548749723
514.0961900198755
514.0935252778987
514.090860649117
514.088196133605
514.0855317314373
514.0828674426881
514.080203267432
514.0775392057434
514.0748752576961
514.0722114233646
514.0695477028233
514.0668840961467
514.0642206034091
514.0615572246846
514.0588939600474
514.0562308095717
514.053567773332
514.0509048514028
514.0482420438587
514.0455793507741
514.0429167722235
514.0402543082811
514.0375919590205
514.0349297245158
514.032267604841
514.0296056000699
514.0269437102764
514.0242819355341
514.0216202759162
514.0189587314964
514.0162973023481
514.0136359885449
514.0109747901605
514.0083137072685
514.0056527399428
514.002991888257
514.0003311522852
513.9976705321011
513.9950100277789
513.9923496393927
513.9896893670167
513.9870292107249
513.9843691705915
513.9817092466907
513.9790494390967
513.9763897478834
513.9737301731249
513.9710707148946
513.9684113732663
513.9657521483131
513.9630930401078
513.9604340487236
513.9577751742341
513.9551164167127
513.9524577762328
513.9497992528676
513.9471408466903
513.944482557774
513.9418243861916
513.939166332016
513.9365083953206
513.9338505761788
513.9311928746637
513.928535290849
513.9258778248083
513.923220476615
513.9205632463428
513.9179061340648
513.9152491398542
513.9125922637842
513.9099355059283
513.9072788663594
513.9046223451504
513.9019659423744
513.8993096581052
513.8966534924162
513.8939974453816
513.8913415170751
513.8886857075707
513.8860300169425
513.8833744452646
513.8807189926114
513.8780636590574
513.8754084446772
513.8727533495454
513.8700983737368
513.8674435173263
513.864788780388
513.8621341629965
513.8594796652259
513.8568252871504
513.8541710288442
513.8515168903813
513.8488628718354
513.8462089732808
513.8435551947911
513.8409015364401
513.8382479983021
513.8355945804509
513.83294128296
513.8302881059027
513.827635049353
513.8249821133851
513.8223292980734
513.8196766034927
513.8170240297178
513.8143715768241
513.8117192448868
513.8090670339817
513.8064149441844
513.803762975571
513.8011111282173
513.7984594021992
513.7958077975928
513.793156314474
513.7905049529192
513.7878537130051
513.7852025948083
513.7825515984051
513.7799007238717
513.7772499712843
513.774599340719
513.7719488322517
513.7692984459587
513.7666481819164
513.7639980402006
513.7613480208876
513.7586981240535
513.7560483497745
513.7533986981272
513.7507491691882
513.7480997630342
513.7454504797416
513.7428013193868
513.7401522820466
513.7375033677978
513.7348545767173
513.7322059088821
513.7295573643688
513.7269089432542
513.7242606456149
513.7216124715272
513.7189644210677
513.7163164943128
513.7136686913392
513.7110210122233
513.7083734570416
513.7057260258704
513.7030787187861
513.700431535865
513.6977844771837
513.695137542819
513.6924907328474
513.6898440473457
513.6871974863903
513.6845510500578
513.6819047384244
513.679258551566
513.6766124895586
513.673966552478
513.6713207403997
513.6686750533987
513.6660294915501
513.6633840549285
513.6607387436085
513.6580935576648
513.6554484971724
513.6528035622067
513.6501587528429
513.6475140691565
513.6448695112232
513.6422250791189
513.6395807729201
513.6369365927036
513.6342925385462
513.6316486105248
513.6290048087161
513.6263611331966
513.6237175840434
513.6210741613332
513.6184308651424
513.6157876955477
513.6131446526261
513.6105017364547
513.6078589471105
513.6052162846705
513.6025737492115
513.5999313408103
513.5972890595441
513.5946469054903
513.5920048787262
513.5893629793289
513.586721207375
513.5840795629414
513.5814380461048
513.5787966569422
513.5761553955305
513.5735142619463
513.5708732562663
513.5682323785667
513.5655916289239
513.5629510074142
513.5603105141137
513.5576701490987
513.5550299124458
513.5523898042312
513.5497498245314
513.5471099734228
513.5444702509818
513.5418306572843
513.5391911924056
513.5365518564214
513.5339126494076
513.5312735714402
513.5286346225956
513.5259958029502
513.5233571125801
513.5207185515616
513.5180801199705
513.5154418178828
513.5128036453749
513.5101656025232
513.5075276894044
513.5048899060945
513.5022522526691
513.4996147292035
513.4969773357726
513.4943400724516
513.4917029393154
513.4890659364388
513.4864290638969
513.4837923217648
513.4811557101176
513.4785192290307
513.4758828785795
513.4732466588395
513.4706105698859
513.4679746117946
513.4653387846414
513.4627030885023
513.4600675234532
513.4574320895705
513.4547967869308
513.4521616156104
513.4495265756856
513.4468916672328
513.4442568903281
513.4416222450483
513.4389877314703
513.4363533496711
513.4337190997277
513.4310849817176
513.4284509957182
513.4258171418065
513.4231834200594
513.4205498305538
513.4179163733667
513.4152830485754
513.4126498562574
513.4100167964904
513.4073838693517
513.4047510749193
513.4021184132711
513.399485884485
513.3968534886391
513.394221225812
513.3915890960826
513.3889570995299
513.3863252362329
513.383693506271
513.3810619097238
513.3784304466709
513.3757991171916
513.3731679213648
513.3705368592699
513.3679059309862
513.3652751365931
513.3626444761697
513.360013949795
513.3573835575477
513.3547532995068
513.352123175751
513.3494931863589
513.3468633314093
513.3442336109807
513.3416040251517
513.3389745740006
513.3363452576056
513.3337160760449
513.3310870293968
513.3284581177396
513.3258293411515
513.3232006997106
513.320572193495
513.3179438225828
513.3153155870524
513.3126874869819
513.3100595224497
513.3074316935348
513.304804000316
513.3021764428723
513.2995490212826
513.2969217356257
513.2942945859805
513.2916675724265
513.2890406950429
513.2864139539089
513.2837873491038
513.2811608807073
513.2785345487988
513.275908353458
513.2732822947647
513.270656372799
513.2680305876407
513.2654049393697
513.2627794280648
513.2601540538054
513.2575288166701
513.2549037167377
513.2522787540876
513.2496539287991
513.2470292409513
513.2444046906229
513.2417802778933
513.2391560028419
513.236531865548
513.2339078660913
513.2312840045516
513.2286602810092
513.2260366955442
513.2234132482366
513.2207899391666
513.2181667684141
513.2155437360594
513.212920842183
513.2102980868659
513.2076754701892
513.2050529922336
513.2024306530797
513.1998084528083
513.1971863915002
513.1945644692361
513.1919426860969
513.1893210421632
513.1866995375154
513.1840781722341
513.1814569463999
513.1788358600935
513.1762149133957
513.1735941063874
513.1709734391496
513.1683529117628
513.1657325243074
513.1631122768641
513.1604921695142
513.1578722023386
513.1552523754182
513.1526326888337
513.1500131426661
513.1473937369964
513.1447744719054
513.1421553474739
513.1395363637829
513.136917520913
513.134298818945
513.1316802579591
513.1290618380357
513.1264435592551
513.1238254216979
513.1212074254446
513.1185895705759
513.1159718571724
513.1133542853155
513.1107368550862
513.1081195665662
513.1055024198369
513.1028854149796
513.1002685520763
513.0976518312087
513.0950352524591
513.0924188159094
513.0898025216417
513.0871863697381
513.0845703602807
513.0819544933514
513.0793387690316
513.0767231874025
513.0741077485458
513.0714924525424
513.0688772994735
513.0662622894198
513.0636474224622
513.0610326986815
513.0584181181592
513.0558036809767
513.0531893872159
513.0505752369587
513.0479612302871
513.045347367283
513.0427336480285
513.0401200726063
513.037506641099
513.0348933535892
513.0322802101595
513.0296672108922
513.0270543558701
513.0244416451761
513.0218290788936
513.0192166571061
513.0166043798973
513.0139922473512
513.0113802595516
513.008768416582
513.0061567185263
513.0035451654682
513.0009337574917
512.998322494681
512.9957113771203
512.9931004048941
512.990489578087
512.9878788967836
512.9852683610687
512.9826579710274
512.9800477267446
512.9774376283057
512.9748276757958
512.9722178693004
512.9696082089046
512.9669986946939
512.9643893267536
512.9617801051687
512.9591710300243
512.9565621014054
512.9539533193971
512.9513446840848
512.948736195554
512.9461278538903
512.9435196591795
512.9409116115077
512.9383037109607
512.9356959576245
512.9330883515851
512.9304808929284
512.9278735817403
512.9252664181064
512.9226594021119
512.9200525338421
512.9174458133822
512.9148392408177
512.9122328162342
512.9096265397174
512.9070204113528
512.9044144312267
512.9018085994245
512.8992029160323
512.8965973811361
512.8939919948217
512.8913867571752
512.8887816682824
512.8861767282298
512.8835719371042
512.8809672949927
512.8783628019825
512.8757584581609
512.8731542636157
512.870550218434
512.8679463227035
512.8653425765118
512.8627389799473
512.8601355330981
512.8575322360522
512.8549290888978
512.8523260917233
512.8497232446167
512.8471205476663
512.8445180009604
512.8419156045874
512.8393133586356
512.8367112631937
512.83410931835
512.831507524193
512.8289058808115
512.8263043882945
512.8237030467309
512.8211018562096
512.8185008168192
512.815899928649
512.8132991917884
512.8106986063273
512.8080981723555
512.805497889963
512.8028977592397
512.8002977802759
512.7976979531617
512.7950982779877
512.7924987548441
512.7898993838211
512.7873001650088
512.7847010984975
512.7821021843775
512.7795034227389
512.7769048136714
512.7743063572649
512.7717080536091
512.7691099027935
512.7665119049076
512.7639140600414
512.7613163682851
512.7587188297288
512.756121444463
512.7535242125783
512.750927134165
512.7483302093134
512.7457334381144
512.7431368206591
512.7405403570384
512.7379440473434
512.7353478916654
512.732751890096
512.7301560427269
512.7275603496497
512.7249648109558
512.7223694267369
512.7197741970846
512.7171791220904
512.7145842018459
512.7119894364424
512.7093948259716
512.7068003705248
512.7042060701937
512.7016119250701
512.6990179352459
512.696424100813
512.6938304218635
512.6912368984891
512.6886435307823
512.6860503188351
512.6834572627396
512.6808643625881
512.6782716184731
512.6756790304868
512.6730865987216
512.67049432327
512.6679022042241
512.6653102416768
512.6627184357206
512.6601267864479
512.6575352939507
512.654943958321
512.6523527796513
512.6497617580341
512.6471708935618
512.6445801863275
512.641989636424
512.639399243944
512.6368090089801
512.634218931625
512.6316290119711
512.6290392501104
512.626449646135
512.6238602001373
512.6212709122093
512.6186817824426
512.616092810929
512.61350399776
512.6109153430269
512.6083268468213
512.6057385092346
512.6031503303583
512.6005623102839
512.5979744491025
512.5953867469053
512.5927992037833
512.5902118198275
512.5876245951287
512.5850375297777
512.5824506238654
512.5798638774828
512.5772772907209
512.5746908636708
512.5721045964241
512.5695184890727
512.5669325417081
512.5643467544215
512.5617611273047
512.5591756604496
512.5565903539479
512.5540052078912
512.5514202223716
512.5488353974805
512.5462507333096
512.5436662299504
512.5410818874938
512.5384977060309
512.5359136856533
512.5333298264528
512.5307461285212
512.52816259195
512.5255792168306
512.5229960032538
512.52041295131
512.5178300610904
512.5152473326863
512.512664766189
512.51008236169
512.507500119281
512.5049180390537
512.5023361211
512.4997543655114
512.4971727723793
512.494591341795
512.4920100738501
512.4894289686359
512.4868480262436
512.4842672467647
512.4816866302909
512.4791061769143
512.476525886727
512.4739457598213
512.4713657962894
512.468785996224
512.4662063597176
512.4636268868622
512.46104757775
512.4584684324731
512.4558894511239
512.453310633795
512.4507319805795
512.4481534915705
512.4455751668612
512.4429970065447
512.440419010714
512.4378411794622
512.4352635128829
512.4326860110697
512.4301086741158
512.4275315021147
512.42495449516
512.4223776533455
512.4198009767648
512.4172244655114
512.4146481196791
512.4120719393619
512.4094959246537
512.4069200756484
512.4043443924396
512.4017688751211
512.3991935237865
512.3966183385297
512.3940433194449
512.391468466626
512.3888937801672
512.3863192601631
512.3837449067079
512.3811707198957
512.3785966998208
512.3760228465773
512.3734491602592
512.3708756409604
512.368302288775
512.365729103797
512.3631560861205
512.36058323584
512.3580105530497
512.355438037844
512.3528656903171
512.3502935105636
512.3477214986777
512.3451496547542
512.3425779788871
512.3400064711706
512.3374351316987
512.3348639605657
512.3322929578659
512.3297221236934
512.3271514581423
512.3245809613069
512.3220106332811
512.3194404741595
512.3168704840365
512.3143006630065
512.3117310111639
512.3091615286031
512.3065922154184
512.3040230717044
512.3014540975554
512.2988852930656
512.2963166583294
512.293748193441
512.291179898495
512.2886117735858
512.286043818808
512.2834760342568
512.2809084200265
512.278340976212
512.2757737029079
512.2732066002094
512.2706396682114
512.268072907009
512.2655063166973
512.262939897371
512.2603736491245
512.2578075720525
512.2552416662494
512.2526759318099
512.2501103688284
512.2475449773989
512.2449797576154
512.2424147095718
512.2398498333622
512.237285129081
512.2347205968227
512.232156236682
512.2295920487535
512.2270280331319
512.2244641899123
512.2219005191897
512.2193370210597
512.2167736956175
512.2142105429588
512.2116475631789
512.209084756373
512.2065221226368
512.2039596620658
512.2013973747556
512.1988352608017
512.1962733202996
512.1937115533448
512.1911499600327
512.1885885404587
512.1860272947177
512.1834662229052
512.1809053251164
512.1783446014468
512.1757840519921
512.1732236768479
512.1706634761102
512.1681034498753
512.1655435982392
512.1629839212984
512.1604244191495
512.1578650918892
512.1553059396143
512.1527469624217
512.1501881604082
512.147629533671
512.1450710823073
512.1425128064142
512.1399547060888
512.137396781428
512.1348390325289
512.1322814594886
512.1297240624045
512.1271668413746
512.1246097964964
512.1220529278679
512.119496235587
512.1169397197515
512.1143833804593
512.1118272178086
512.1092712318972
512.1067154228232
512.1041597906848
512.1016043355802
512.0990490576074
512.0964939568645
512.0939390334491
512.0913842874592
512.0888297189925
512.0862753281473
512.0837211150214
512.0811670797126
512.0786132223187
512.0760595429375
512.073506041667
512.0709527186053
512.068399573851
512.0658466075025
512.0632938196585
512.0607412104176
512.0581887798786
512.0556365281403
512.0530844553019
512.0505325614623
512.0479808467202
512.0454293111742
512.042877954923
512.0403267780654
512.0377757806997
512.0352249629242
512.0326743248373
512.0301238665376
512.0275735881236
512.0250234896943
512.0224735713485
512.0199238331855
512.0173742753046
512.0148248978054
512.0122757007874
512.0097266843503
512.0071778485936
512.0046291936172
512.0020807195209
511.99953242640464
511.9969843143686
511.994436383513
511.99188863393834
511.98934106574535
511.98679367903475
511.98424647390726
511.9816994504634
511.97915260880364
511.97660594902874
511.9740594712396
511.97151317553727
511.9689670620224
511.9664211307955
511.96387538195705
511.9613298156076
511.9587844318474
511.9562392307767
511.9536942124958
511.95114937710497
511.94860472470424
511.94606025539366
511.94351596927305
511.9409718664422
511.9384279470008
511.9358842110485
511.9333406586855
511.93079729001175
511.92825410512734
511.9257111041325
511.92316828712734
511.9206256542121
511.918083205487
511.91554094105214
511.9129988610078
511.9104569654542
511.9079152544917
511.9053737282207
511.9028323867415
511.90029123015466
511.89775025856085
511.8952094720608
511.8926688707555
511.8901284547458
511.8875882241328
511.8850481790176
511.8825083195016
511.87996864568646
511.87742915767427
511.8748898555671
511.8723507394671
511.86981180947606
511.8672730656959
511.8647345082282
511.8621961371744
511.8596579526357
511.8571199547135
511.85458214350894
511.85204451912347
511.8495070816585
511.84696983121563
511.84443276789654
511.84189589180284
511.83935920303594
511.83682270169726
511.8342863878882
511.83175026170994
511.82921432326367
511.8266785726508
511.8241430099727
511.82160763533085
511.81907244882683
511.8165374505625
511.8140026406398
511.81146801916026
511.8089335862256
511.8063993419376
511.8038652863982
511.801331419709
511.79879774197167
511.79626425328803
511.79373095375973
511.7911978434884
511.78866492257526
511.7861321911217
511.7835996492293
511.78106729699954
511.7785351345338
511.77600316193326
511.7734713792991
511.7709397867325
511.7684083843347
511.7658771722068
511.76334615045
511.76081531916526
511.7582846784538
511.7557542284165
511.75322396915413
511.7506939007672
511.74816402335597
511.7456343370205
511.743104841861
511.7405755379778
511.73804642547117
511.73551750444136
511.73298877498866
511.7304602372131
511.7279318912147
511.7254037370938
511.7228757749504
511.72034800488456
511.7178204269965
511.7152930413868
511.7127658481559
511.71023884740436
511.70771203923283
511.70518542374185
511.70265900103215
511.70013277120466
511.69760673436036
511.69508089060065
511.6925552400267
511.6900297827397
511.68750451884085
511.68497944843153
511.68245457161294
511.67992988848624
511.67740539915286
511.6748811037142
511.67235700227144
511.66983309492576
511.66730938177835
511.6647858629304
511.6622625384833
511.65973940853866
511.65721647319816
511.6546937325632
511.6521711867352
511.6496488358153
511.64712667990494
511.64460471910576
511.64208295351915
511.6395613832463
511.6370400083884
511.6345188290466
511.63199784532213
511.62947705731614
511.6269564651296
511.6244360688634
511.6219158686188
511.61939586449677
511.6168760565982
511.61435644502404
511.61183702987506
511.6093178112522
511.6067987892564
511.60427996398863
511.60176133554984
511.599242904041
511.59672466956323
511.594206632218
511.5916887921067
511.589171149331
511.58665370399245
511.58413645619277
511.5816194060338
511.57910255361736
511.57658589904537
511.57406944241967
511.5715531838421
511.5690371234146
511.56652126123896
511.56400559741684
511.56149013204987
511.5589748652399
511.5564597970891
511.55394492769966
511.55143025717354
511.54891578561256
511.5464015131184
511.5438874397926
511.54137356573693
511.53885989105294
511.5363464158423
511.5338331402066
511.53132006424727
511.52880718806574
511.5262945117634
511.5237820354419
511.5212697592031
511.51875768314864
511.5162458073799
511.51373413199855
511.5112226571062
511.50871138280473
511.506200309196
511.5036894363819
511.50117876446444
511.4986682935458
511.496158023728
511.493647955113
511.49113808780277
511.4886284218995
511.4861189575054
511.48360969472293
511.48110063365453
511.478591774403
511.47608311707137
511.47357466176237
511.47106640857857
511.4685583576227
511.46605050899785
511.4635428628072
511.46103541915414
511.4585281781422
511.4560211398746
511.4535143044546
511.45100767198556
511.4485012425708
511.4459950163137
511.44348899331777
511.44098317368645
511.43847755752296
511.4359721449303
511.4334669360117
511.4309619308704
511.4284571296096
511.42595253233236
511.42344813914184
511.4209439501413
511.4184399654337
511.4159361851221
511.41343260930927
511.4109292380977
511.40842607158976
511.40592310988774
511.40342035309374
511.40091780130984
511.39841545463815
511.395913313181
511.3934113770409
511.39090964632015
511.38840812112136
511.3859068015468
511.38340568769905
511.38090477968086
511.3784040775948
511.3759035815436
511.37340329163004
511.3709032079569
511.368403330627
511.3659036597433
511.3634041954088
511.3609049377265
511.35840588679986
511.3559070427328
511.3534084056294
511.3509099755941
511.348411752731
511.34591373714426
511.3434159289382
511.340918328217
511.338420935085
511.3359237496464
511.33342677200545
511.3309300022666
511.3284334405344
511.3259370869135
511.3234409415084
511.3209450044238
511.3184492757642
511.31595375563444
511.31345844413937
511.310963341384
511.30846844747344
511.3059737625129
511.3034792866077
511.3009850198633
511.2984909623852
511.29599711427915
511.2935034756509
511.2910100466061
511.2885168272506
511.28602381769025
511.2835310180313
511.2810384283801
511.2785460488431
511.27605387952696
511.27356192053804
511.27107017198324
511.2685786339694
511.2660873066032
511.263596189991
511.2611052842395
511.258614589455
511.25612410574405
511.253633833213
511.251143771968
511.248653922115
511.24616428376027
511.24367485701015
511.2411856419711
511.23869663874945
511.2362078474519
511.2337192681853
511.2312309010568
511.2287427461734
511.22625480364246
511.22376707357154
511.22127955606817
511.21879225124013
511.2163051591952
511.21381828004115
511.21133161388576
511.2088451608368
511.20635892100205
511.20387289448905
511.2013870814056
511.19890148185965
511.1964160959595
511.19393092381375
511.1914459655314
511.1889612212213
511.1864766909926
511.18399237495447
511.1815082732158
511.1790243858855
511.1765407130725
511.1740572548859
511.1715740114351
511.16909098282923
511.16660816917766
511.16412557058976
511.1616431871751
511.1591610190433
511.1566790663042
511.1541973290678
511.1517158074444
511.1492345015443
511.14675341147773
511.1442725373552
511.14179187928727
511.13931143738415
511.13683121175615
511.1343512025135
511.1318714097666
511.1293918336258
511.1269124742017
511.12443333160473
511.1219544059457
511.1194756973353
511.1169972058843
511.11451893170357
511.1120408749039
511.10956303559607
511.10708541389073
511.10460800989864
511.1021308237303
511.09965385549646
511.09717710530805
511.09470057327604
511.09222425951117
511.08974816412393
511.08727228722506
511.0847966289253
511.0823211893351
511.07984596856505
511.0773709667256
511.074896183927
511.07242162027984
511.06994727589455
511.0674731508819
511.0649992453528
511.0625255594185
511.0600520931901
511.05757884677865
511.0551058202953
511.0526330138512
511.0501604275576
511.0476880615259
511.04521591586746
511.04274399069396
511.0402722861175
511.03780080225016
511.0353295392038
511.03285849709056
511.0303876760225
511.0279170761119
511.0254466974714
511.02297654021373
511.02050660445144
511.0180368902973
511.0155673978641
511.01309812726487
511.0106290786128
511.00816025202136
511.00569164760424
511.00322326547536
511.0007551057486
510.9982871685382
510.9958194539582
510.9933519621225
510.99088469314535
510.9884176471406
510.9859508242226
510.98348422450596
510.9810178481055
510.97855169513633
510.97608576571344
510.9736200599521
510.9711545779674
510.9686893198744
510.9662242857881
510.9637594758238
510.9612948900968
510.95883052872233
510.9563663918157
510.953902479492
510.9514387918662
510.94897532905344
510.9465120911689
510.9440490783282
510.94158629064674
510.9391237282401
510.9366613912237
510.93419927971314
510.9317373938239
510.92927573367166
510.926814299372
510.92435309104036
510.92189210879206
510.9194313527424
510.9169708230066
510.9145105196997
510.9120504429366
510.9095905928321
510.907130969501
510.9046715730579
510.9022124036174
510.8997534612941
510.89729474620236
510.89483625845656
510.8923779981713
510.8899199654614
510.8874621604421
510.885004583229
510.8825472339377
510.8800901126843
510.8776332195849
510.8751765547557
510.8727201183129
510.87026391037267
510.86780793105146
510.8653521804659
510.8628966587324
510.86044136596735
510.8579863022872
510.8555314678086
510.8530768626484
510.85062248692344
510.84816834075065
510.8457144242473
510.8432607375308
510.84080728071837
510.8383540539276
510.8359010572763
510.833448290882
510.8309957548623
510.82854344933486
510.8260913744178
510.8236395302293
510.8211879168878
510.81873653451163
510.8162853832194
510.81383446313026
510.8113837743636
510.808933317039
510.8064830912761
510.8040330971947
510.8015833349148
510.7991338045568
510.79668450624087
510.79423544008756
510.7917866062174
510.7893380047511
510.7868896358096
510.7844414995139
510.78199359598517
510.7795459253446
510.77709848771343
510.7746512832128
510.77220431196434
510.76975757408974
510.76731106971107
510.76486479895044
510.7624187619304
510.7599729587735
510.75752738960233
510.7550820545396
510.7526369537084
510.7501920872317
510.7477474552325
510.74530305783384
510.7428588951589
510.7404149673312
510.7379712744742
510.73552781671157
510.733084594167
510.7306416069644
510.72819885522773
510.7257563390811
510.7233140586489
510.7208720140555
510.7184302054255
510.71598863288347
510.7135472965543
510.71110619656275
510.7086653330337
510.706224706092
510.7037843158624
510.70134416246975
510.69890424603915
510.69646456669585
510.69402512456514
510.6915859197721
510.68914695244194
510.6867082227
510.6842697306718
510.68183147648284
510.67939346025884
510.67695568212577
510.67451814220937
510.6720808406354
510.66964377752953
510.6672069530178
510.6647703672259
510.66233402027984
510.6598979123058
510.6574620434299
510.65502641377867
510.65259102347824
510.65015587265526
510.6477209614366
510.6452862899494
510.64285185832074
510.6404176666777
510.6379837151474
510.6355500038572
510.6331165329348
510.63068330250786
510.62825031270364
510.6258175636497
510.6233850554734
510.6209527883021
510.618520762263
510.61608897748357
510.61365743409107
510.6112261322126
510.60879507197575
510.60636425350805
510.6039336769373
510.601503342391
510.5990732499968
510.59664339988245
510.59421379217594
510.5917844270055
510.5893553044994
510.5869264247861
510.5844977879945
510.582069394254
510.57964124369397
510.577213336444
510.5747856726337
510.5723582523927
510.5699310758508
510.567504143138
510.5650774543847
510.5626510097214
510.5602248092785
510.55779885318685
510.55537314157715
510.55294767458014
510.5505224523268
510.54809747494784
510.54567274257425
510.543248255337
510.54082401336706
510.5384000167956
510.5359762657536
510.5335527603725
510.53112950078395
510.5287064871198
510.5262837195119
510.5238611980922
510.52143892299256
510.5190168943448
510.5165951122811
510.51417357693396
510.5117522884362
510.509331246921
510.5069104525215
510.5044899053706
510.50206960560155
510.49964955334764
510.4972297487423
510.49481019191927
510.49239088301266
510.4899718221564
510.48755300948466
510.4851344451318
510.4827161292322
510.4802980619202
510.4778802433303
510.4754626735967
510.4730453528542
510.4706282812372
510.46821145888026
510.4657948859179
510.4633785624845
510.46096248871396
510.45854666474025
510.45613109069706
510.45371576671806
510.4513006929372
510.44888586948815
510.4464712965044
510.4440569741192
510.4416429024655
510.4392290816764
510.43681551188484
510.4344021932239
510.43198912582653
510.42957630982556
510.42716374535354
510.4247514325428
510.42233937152565
510.41992756243445
510.4175160054013
510.4151047005583
510.4126936480371
510.4102828479693
510.4078723004864
510.4054620057198
510.4030519638007
510.40064217486025
510.3982326390297
510.3958233564402
510.39341432722296
510.3910055515094
510.38859702943074
510.38618876111815
510.38378074670237
510.38137298631415
510.378965480084
510.3765582281424
510.37415123061993
510.3717444876473
510.36933799935497
510.3669317658735
510.36452578733343
510.36212006386523
510.3597145955992
510.3573093826656
510.35490442519455
510.35249972331604
510.3500952771604
510.3476910868581
510.3452871525397
510.3428834743357
510.34048005237634
510.3380768867917
510.3356739777119
510.3332713252667
510.33086892958573
510.3284667907988
510.3260649090358
510.3236632844267
510.32126191710137
510.31886080718965
510.31645995482137
510.31405936012635
510.3116590232344
510.3092589442752
510.3068591233783
510.304459560673
510.3020602562886
510.2996612103537
510.297262422997
510.294863894347
510.29246562453187
510.2900676136799
510.28766986191914
510.28527236937776
510.2828751361838
510.2804781624653
510.2780814483502
510.27568499396654
510.2732887994426
510.27089286490656
510.26849719048647
510.26610177631056
510.2637066225071
510.261311729204
510.25891709652916
510.2565227246103
510.25412861357546
510.2517347635524
510.2493411746689
510.2469478470526
510.2445547808307
510.2421619761306
510.2397694330794
510.2373771518042
510.23498513243186
510.23259337508904
510.2302018799026
510.2278106469992
510.2254196765055
510.22302896854814
510.2206385232535
510.21824834074806
510.215858421158
510.2134687646092
510.21107937122775
510.2086902411393
510.20630137446943
510.2039127713438
510.201524431888
510.19913635622726
510.19674854448664
510.19436099679075
510.1919737132642
510.18958669403133
510.1871999392168
510.1848134489449
510.1824272233401
510.1800412625267
510.1776555666291
510.1752701357714
510.17288497007786
510.1705000696723
510.16811543467867
510.16573106522065
510.16334696142195
510.16096312340625
510.15857955129724
510.1561962452186
510.15381320529406
510.15143043164704
510.1490479244008
510.14666568367835
510.1442837096027
510.14190200229683
510.139520561884
510.1371393884877
510.13475848223135
510.13237784323843
510.1299974716322
510.12761736753583
510.1252375310726
510.1228579623658
510.12047866153836
510.1180996287133
510.1157208640139
510.1133423675631
510.1109641394842
510.10858617990044
510.10620848893456
510.1038310667089
510.1014539133453
510.0990770289655
510.0967004136908
510.09432406764273
510.09194799094263
510.0895721837115
510.08719664607
510.084821378139
510.08244638003913
510.08007165189116
510.0776971938158
510.07532300593385
510.07294908836576
510.0705754412318
510.0682020646521
510.0658289587462
510.06345612363367
510.06108355943417
510.05871126626704
510.05633924425143
510.0539674935065
510.05159601415136
510.0492248063052
510.04685387008686
510.04448320561556
510.0421128130104
510.03974269239035
510.03737284387404
510.0350032675802
510.03263396362746
510.03026493213434
510.02789617321906
510.0255276869996
510.0231594735936
510.0207915331187
510.0184238656928
510.01605647143384
510.01368935045963
510.0113225028877
510.00895592883563
510.00658962842095
510.0042236017612
510.001857848974
509.9994923701768
509.99712716548703
509.99476223502194
509.99239757889865
509.990033197234
509.9876690901445
509.98530525774646
509.98294170015635
509.98057841749034
509.97821540986484
509.97585267739606
509.9734902202002
509.97112803839315
509.9687661320907
509.9664045014086
509.9640431464623
509.9616820673671
509.9593212642381
509.9569607371905
509.95460048633964
509.95224051180054
509.94988081368825
509.9475213921176
509.9451622472034
509.94280337906054
509.94044478780376
509.9380864735477
509.9357284364067
509.93337067649514
509.9310131939272
509.92865598881696
509.92629906127837
509.9239424114251
509.9215860393709
509.91922994522935
509.916874129114
509.914518591138
509.91216333141443
509.90980835005627
509.9074536471763
509.90509922288703
509.90274507730106
509.9003912105309
509.8980376226892
509.8956843138881
509.8933312842399
509.89097853385675
509.8886260628506
509.8862738713331
509.8839219594159
509.88157032721057
509.8792189748288
509.876867902382
509.87451710998135
509.8721665977378
509.86981636576235
509.8674664141657
509.8651167430583
509.862767352551
509.8604182427542
509.8580694137782
509.85572086573285
509.85337259872773
509.85102461287244
509.8486769082768
509.84632948505015
509.8439823433021
509.8416354831423
509.83928890468025
509.8369426080256
509.8345965932877
509.8322508605759
509.82990540999964
509.8275602416682
509.82521535569055
509.82287075217556
509.82052643123194
509.81818239296814
509.8158386374924
509.8134951649127
509.8111519753368
509.80880906887256
509.8064664456277
509.80412410570995
509.8017820492269
509.7994402762859
509.79709878699424
509.7947575814588
509.7924166597864
509.7900760220837
509.7877356684574
509.78539559901407
509.78305581386036
509.7807163131029
509.7783770968484
509.7760381652034
509.77369951827455
509.77136115616855
509.769023078992
509.76668528685155
509.76434777985384
509.7620105581055
509.7596736217129
509.75733697078255
509.75500060542055
509.7526645257329
509.7503287318255
509.7479932238039
509.7456580017734
509.7433230658392
509.7409884161064
509.7386540526798
509.73631997566423
509.73398618516427
509.73165268128474
509.72931946413047
509.72698653380604
509.7246538904158
509.72232153406395
509.71998946485456
509.71765768289157
509.7153261882789
509.7129949811202
509.7106640615189
509.70833342957854
509.7060030854021
509.7036730290923
509.7013432607519
509.699013780484
509.6966845883913
509.6943556845766
509.69202706914285
509.68969874219266
509.68737070382855
509.68504295415283
509.6827154932676
509.68038832127473
509.6780614382761
509.6757348443735
509.67340853966886
509.671082524264
509.66875679826086
509.6664313617612
509.664106214867
509.6617813576798
509.659456790301
509.65713251283233
509.65480852537536
509.6524848280315
509.65016142090195
509.6478383040879
509.6455154776905
509.6431929418109
509.6408706965504
509.6385487420101
509.63622707829114
509.633905705495
509.63158462372286
509.62926383307564
509.6269433336543
509.6246231255598
509.6223032088929
509.61998358375405
509.61766425024354
509.61534520846163
509.6130264585086
509.61070800048475
509.6083898344903
509.60607196062534
509.6037543789899
509.601437089684
509.5991200928075
509.59680338845993
509.59448697674094
509.59217085774986
509.58985503158607
509.5875394983489
509.58522425813777
509.5829093110522
509.5805946571914
509.57828029665444
509.5759662295405
509.57365245594866
509.5713389759781
509.56902578972796
509.5667128972971
509.5644002987845
509.562087994289
509.55977598390933
509.55746426774414
509.5551528458919
509.552841718451
509.55053088552
509.5482203471973
509.5459101035813
509.54360015477056
509.5412905008632
509.5389811419573
509.53667207815084
509.5343633095418
509.5320548362284
509.52974665830885
509.5274387758814
509.5251311890441
509.52282389789485
509.5205169025315
509.5182102030515
509.5159037995525
509.5135976921318
509.51129188088663
509.5089863659144
509.5066811473126
509.504376225179
509.5020715996114
509.4997672707073
509.4974632385643
509.4951595032797
509.49285606495056
509.49055292367353
509.488250079545
509.48594753266144
509.4836452831192
509.48134333101467
509.47904167644407
509.4767403195038
509.4744392602898
509.472138498898
509.4698380354244
509.46753786996493
509.46523800261554
509.4629384334722
509.4606391626308
509.45834019018713
509.4560415162369
509.4537431408758
509.4514450641996
509.449147286304
509.44684980728476
509.44455262723733
509.4422557462572
509.4399591644395
509.4376628818789
509.4353668986701
509.43307121490744
509.43077583068504
509.4284807460968
509.4261859612364
509.42389147619775
509.42159729107476
509.41930340596133
509.41700982095114
509.41471653613786
509.41242355161495
509.41013086747586
509.40783848381403
509.40554640072247
509.40325461829417
509.40096313662235
509.39867195580047
509.39638107592197
509.3940904970805
509.3918002193696
509.3895102428824
509.3872205677122
509.3849311939521
509.38264212169526
509.38035335103433
509.3780648820619
509.3757767148705
509.3734888495524
509.3712012862
509.36891402490534
509.3666270657605
509.3643404088576
509.3620540542884
509.3597680021447
509.35748225251797
509.35519680549993
509.3529116611822
509.35062681965593
509.3483422810123
509.34605804534255
509.3437741127378
509.34149048328896
509.33920715708706
509.336924134223
509.3346414147873
509.33235899887
509.3300768865609
509.32779507794936
509.32551357312474
509.32323237217616
509.32095147519277
509.31867088226346
509.3163905934769
509.31411060892157
509.3118309286861
509.309551552859
509.3072724815286
509.3049937147835
509.30271525271183
509.30043709540183
509.2981592429417
509.2958816954197
509.2936044529236
509.2913275155411
509.28905088336006
509.28677455646795
509.2844985349521
509.2822228188998
509.27994740839864
509.2776723035359
509.2753975043984
509.27312301107287
509.27084882364585
509.2685749422042
509.2663013668346
509.26402809762345
509.26175513465665
509.25948247801995
509.2572101277993
509.2549380840806
509.25266634694987
509.2503949164928
509.2481237927953
509.24585297594314
509.2435824660218
509.2413122631165
509.2390423673124
509.23677277869416
509.23450349734645
509.23223452335407
509.2299658568016
509.22769749777336
509.22542944635353
509.223161702626
509.22089426667486
509.2186271385838
509.21636031843633
509.21409380631604
509.21182760230664
509.2095617064918
509.2072961189552
509.2050308397805
509.2027658690516
509.20050120685215
509.1982368532661
509.1959728083771
509.19370907226886
509.19144564502477
509.1891825267283
509.18691971746244
509.1846572173102
509.1823950263543
509.18013314467754
509.17787157236245
509.17561030949133
509.1733493561463
509.17108871240913
509.1688283783615
509.1665683540853
509.1643086396621
509.1620492351736
509.1597901407013
509.15753135632696
509.15527288213167
509.1530147181964
509.1507568646021
509.1484993214295
509.14624208875927
509.1439851666724
509.1417285552498
509.13947225457224
509.1372162647204
509.13496058577476
509.13270521781584
509.1304501609241
509.1281954151801
509.125940980664
509.1236868574561
509.1214330456367
509.1191795452856
509.11692635648234
509.11467347930653
509.11242091383775
509.1101686601556
509.10791671833937
509.10566508846847
509.103413770622
509.10116276487867
509.0989120713171
509.09666169001554
509.09441162105196
509.09216186450436
509.0899124204505
509.08766328896814
509.0854144701348
509.08316596402784
509.0809177707245
509.0786698903019
509.0764223228371
509.0741750684072
509.0719281270893
509.06968149896016
509.0674351840965
509.06518918257467
509.0629434944711
509.06069811986214
509.058453058824
509.05620831143284
509.0539638777646
509.051719757895
509.0494759518993
509.0472324598525
509.04498928182926
509.0427464179043
509.04050386815226
509.03826163264745
509.03601971146423
509.03377810467697
509.03153681236
509.0292958345877
509.0270551714348
509.024814822976
509.0225747892858
509.02033507043876
509.0180956665093
509.01585657757147
509.01361780369945
509.0113793449671
509.00914120144836
509.00690337321663
509.0046658603456
509.0024286629089
509.0001917809803
508.9979552146336
508.9957189639429
508.99348302898244
508.99124740982626
508.9890121065483
508.9867771192224
508.9845424479225
508.98230809272223
508.9800740536951
508.9778403309145
508.97560692445364
508.97337383438554
508.97114106078317
508.9689086037195
508.9666764632671
508.9644446394985
508.96221313248617
508.9599819423027
508.9577510690206
508.95552051271267
508.95329027345184
508.9510603513109
508.9488307463624
508.94660145867834
508.9443724883309
508.94214383539185
508.9399154999333
508.93768748202734
508.9354597817458
508.9332323991603
508.9310053343423
508.92877858736284
508.92655215829296
508.9243260472036
508.9221002541652
508.91987477924823
508.917649622523
508.9154247840598
508.9132002639288
508.91097606220006
508.90875217894387
508.9065286142307
508.9043053681308
508.9020824407144
508.8998598320521
508.897637542214
508.89541557127046
508.8931939192917
508.8909725863478
508.88875157250897
508.88653087784525
508.88431050242644
508.88209044632237
508.8798707096026
508.8776512923369
508.8754321945949
508.8732134164457
508.8709949579582
508.86877681920106
508.8665590002427
508.86434150115116
508.8621243219944
508.8599074628401
508.8576909237557
508.8554747048084
508.8532588060653
508.8510432275935
508.8488279694598
508.8466130317309
508.84439841447335
508.84218411775356
508.83997014163793
508.8377564861931
508.83554315148587
508.83333013758266
508.8311174445499
508.82890507245367
508.8266930213604
508.82448129133655
508.8222698824482
508.82005879476134
508.81784802834164
508.8156375832546
508.81342745956596
508.81121765734116
508.8090081766457
508.80679901754485
508.8045901801036
508.8023816643866
508.8001734704581
508.7979655983825
508.79575804822395
508.7935508200465
508.7913439139141
508.7891373298906
508.7869310680399
508.7847251284257
508.78251951111116
508.7803142161593
508.77810924363285
508.77590459359413
508.7737002661052
508.7714962612279
508.7692925790239
508.7670892195545
508.7648861828812
508.76268346906505
508.7604810781673
508.75827901024905
508.75607726537106
508.7538758435938
508.7516747449775
508.7494739695824
508.74727351746907
508.74507338869813
508.7428735833303
508.7406741014261
508.738474943046
508.7362761082505
508.73407759709977
508.73187940965414
508.7296815459736
508.72748400611823
508.725286790148
508.72308989812274
508.720893330102
508.71869708614537
508.71650116631196
508.71430557066066
508.7121102992499
508.7099153521379
508.70772072938263
508.7055264310421
508.703332457174
508.7011388078359
508.6989454830851
508.69675248297887
508.69455980757454
508.69236745692916
508.69017543110004
508.68798373014425
508.68579235411886
508.68360130308093
508.68141057708755
508.67922017619554
508.67703010046154
508.6748403499419
508.6726509246931
508.6704618247714
508.66827305023327
508.66608460113486
508.6638964775323
508.6617086794818
508.6595212070393
508.65733406026044
508.65514723920074
508.6529607439157
508.6507745744603
508.64858873088957
508.64640321325834
508.6442180216216
508.6420331560342
508.63984861655064
508.6376644032253
508.6354805161125
508.63329695526664
508.63111372074223
508.62893081259364
508.62674823087497
508.62456597564034
508.62238404694364
508.6202024448385
508.6180211693782
508.6158402206159
508.61365959860456
508.6114793033972
508.6092993350467
508.60711969360597
508.6049403791274
508.6027613916636
508.600582731267
508.59840439799
508.59622639188484
508.5940487130038
508.591871361399
508.58969433712224
508.58751764022537
508.58534127076
508.5831652287773
508.5809895143287
508.57881412746525
508.57663906823774
508.5744643366966
508.5722899328924
508.57011585687525
508.5679421086955
508.5657686884029
508.56359559604704
508.5614228316775
508.55925039534355
508.5570782870944
508.55490650697885
508.5527350550454
508.5505639313424
508.5483931359184
508.54622266882126
508.54405253009924
508.5418827198003
508.5397132379724
508.5375440846636
508.5353752599215
508.53320676379377
508.53103859632785
508.5288707575708
508.5267032475695
508.5245360663708
508.52236921402124
508.5202026905675
508.5180364960557
508.515870630532
508.51370509404234
508.5115398866324
508.5093750083477
508.5072104592335
508.50504623933494
508.50288234869714
508.5007187873651
508.4985555553836
508.4963926527974
508.4942300796511
508.4920678359891
508.4899059218554
508.48774433729415
508.48558308234925
508.4834221570646
508.481261561484
508.4791012956512
508.4769413596096
508.4747817534026
508.4726224770737
508.47046353066577
508.46830491422185
508.46614662778467
508.463988671397
508.46183104510106
508.45967374893877
508.4575167829519
508.4553601471824
508.4532038416717
508.4510478664616
508.44889222159355
508.44673690710925
508.44458192305007
508.44242726945714
508.4402729463712
508.4381189538329
508.4359652918825
508.43381196056004
508.4316589599053
508.4295062899578
508.427353950757
508.4252019423421
508.4230502647525
508.4208989180275
508.41874790220623
508.4165972173278
508.4144468634311
508.4122968405548
508.4101471487375
508.4079977880179
508.4058487584344
508.40370006002564
508.4015516928303
508.39940365688705
508.3972559522345
508.39510857891133
508.39296153695597
508.3908148264066
508.3886684473014
508.3865223996782
508.38437668357443
508.38223129902764
508.38008624607534
508.3779415247548
508.3757971351029
508.37365307715646
508.37150935095184
508.3693659565254
508.3672228939134
508.36508016315184
508.362937764277
508.3607956973245
508.3586539623298
508.3565125593282
508.35437148835496
508.35223074944525
508.35009034263436
508.3479502679573
508.34581052544905
508.3436711151447
508.3415320370794
508.339393291288
508.33725487780526
508.3351167966662
508.3329790479061
508.33084163155996
508.32870454766254
508.3265677962484
508.3244313773519
508.3222952910074
508.32015953724914
508.3180241161113
508.315889027628
508.31375427183303
508.31161984876013
508.3094857584429
508.3073520009148
508.30521857620903
508.30308548435875
508.3009527253974
508.2988202993584
508.29668820627495
508.2945564461798
508.2924250191057
508.2902939250851
508.2881631641506
508.2860327363347
508.2839026416696
508.2817728801875
508.2796434519203
508.2775143569
508.27538559515807
508.2732571667262
508.2711290716357
508.269001309918
508.2668738816042
508.2647467867253
508.26262002531195
508.2604935973944
508.25836750300283
508.25624174216733
508.25411631491767
508.2519912212836
508.24986646129474
508.2477420349806
508.24561794237076
508.24349418349453
508.24137075838104
508.2392476670594
508.2371249095582
508.23500248590636
508.23288039613254
508.23075864026515
508.22863721833215
508.2265161303615
508.2243953763812
508.22227495641897
508.2201548705023
508.2180351186585
508.2159157009149
508.21379661729844
508.21167786783604
508.2095594525545
508.2074413714807
508.2053236246414
508.20320621206344
508.20108913377345
508.19897238979803
508.1968559801638
508.1947399048975
508.1926241640261
508.1905087575763
508.188393685575
508.1862789480493
508.1841645450257
508.18205047653083
508.1799367425911
508.1778233432329
508.1757102784821
508.1735975483644
508.1714851529053
508.16937309213
508.16726136606377
508.1651499747316
508.1630389181585
508.1609281963693
508.1588178093885
508.15670775724067
508.15459803995014
508.1524886575415
508.150379610039
508.14827089746683
508.14616251984904
508.1440544772095
508.1419467695719
508.13983939695964
508.1377323593959
508.13562565690387
508.1335192895065
508.1314132572266
508.12930756008683
508.1272021981102
508.1250971713194
508.1229924797372
508.1208881233861
508.11878410228843
508.1166804164664
508.11457706594257
508.1124740507394
508.1103713708795
508.1082690263848
508.10616701727764
508.1040653435803
508.10196400531464
508.0998630025022
508.0977623351644
508.0956620033224
508.0935620069973
508.0914623462102
508.08936302098215
508.087264031334
508.0851653772864
508.08306705885985
508.0809690760746
508.0788714289509
508.07677411750893
508.074677141769
508.07258050175125
508.070484197476
508.068388228963
508.06629259623156
508.0641972993006
508.0621023381887
508.06000771291457
508.05791342349636
508.05581946995204
508.0537258522996
508.05163257055693
508.04953962474207
508.0474470148727
508.0453547409666
508.0432628030413
508.04117120111397
508.03907993520176
508.0369890053217
508.0348984114908
508.0328081537262
508.0307182320444
508.02862864646187
508.0265393969949
508.0244504836599
508.02236190647346
508.02027366545195
508.0181857606115
508.01609819196807
508.0140109595373
508.0119240633347
508.0098375033754
508.00775127967455
508.00566539224684
508.00357984110684
508.0014946262691
507.99940974774796
507.9973252055575
507.9952409997116
507.9931571302241
507.99107359710894
507.9889904003797
507.98690754005
507.98482501613336
507.98274282864287
507.98066097759175
507.9785794629932
507.9764982848606
507.97441744320764
507.97233693804793
507.9702567693951
507.96817693726285
507.9660974416643
507.96401828261247
507.9619394601203
507.9598609742007
507.95778282486646
507.9557050121303
507.9536275360047
507.95155039650245
507.94947359363624
507.9473971274186
507.94532099786153
507.9432452049769
507.94116974877653
507.939094629272
507.9370198464749
507.93494540039666
507.93287129104857
507.9307975184418
507.92872408258705
507.926650983495
507.92457822117586
507.9225057956399
507.9204337068973
507.91836195495836
507.916290539833
507.9142194615311
507.9121487200619
507.91007831543476
507.90800824765876
507.90593851674276
507.9038691226954
507.9018000655254
507.8997313452408
507.8976629618497
507.8955949153597
507.8935272057784
507.8914598331133
507.88939279737184
507.88732609856135
507.88525973668885
507.8831937117614
507.88112802378583
507.8790626727687
507.87699765871645
507.87493298163537
507.87286864153185
507.87080463841204
507.86874097228207
507.8666776431481
507.86461465101644
507.8625519958933
507.8604896777845
507.8584276966961
507.85636605263386
507.85430474560354
507.8522437756106
507.85018314266
507.84812284675655
507.84606288790457
507.84400326610813
507.8419439813711
507.8398850336974
507.8378264230908
507.835768149555
507.83371021309364
507.8316526137101
507.82959535140736
507.8275384261886
507.82548183805676
507.8234255870146
507.82136967306457
507.819314096209
507.81725885644966
507.8152039537884
507.81314938822703
507.81109515976715
507.8090412684101
507.8069877141573
507.8049344970098
507.8028816169688
507.80082907403545
507.7987768682104
507.7967249994941
507.7946734678865
507.79262227338774
507.79057141599793
507.7885208957171
507.78647071254505
507.7844208664815
507.7823713575263
507.78032218567915
507.77827335093986
507.7762248533082
507.7741766927839
507.7721288693668
507.7700813830564
507.768034233852
507.7659874217525
507.7639409467568
507.7618948088635
507.7598490080707
507.7578035443767
507.75575841777965
507.7537136282777
507.7516691758688
507.7496250605507
507.7475812823207
507.7455378411758
507.7434947371128
507.74145197012814
507.7394095402181
507.7373674473791
507.73532569160767
507.73328427290045
507.731243191254
507.72920244666517
507.72716203913075
507.7251219686478
507.7230822352133
507.72104283882464
507.71900377947924
507.71696505717415
507.7149266719062
507.712888623672
507.71085091246806
507.70881353829105
507.7067765011373
507.704739801003
507.70270343788394
507.70066741177635
507.6986317226761
507.6965963705789
507.6945613554802
507.6925266773754
507.69049233625975
507.6884583321285
507.68642466497664
507.6843913347987
507.682358341589
507.68032568534187
507.6782933660516
507.67626138371276
507.67422973831964
507.6721984298661
507.6701674583458
507.6681368237526
507.6661065260801
507.664076565322
507.6620469414716
507.6600176545224
507.6579887044673
507.65596009129905
507.65393181501014
507.65190387559306
507.6498762730401
507.6478490073435
507.6458220784953
507.64379548648736
507.64176923131123
507.63974331295873
507.63771773142145
507.63569248669097
507.6336675787589
507.6316430076168
507.62961877325625
507.62759487566865
507.6255713148451
507.6235480907765
507.6215252034536
507.61950265286674
507.61748043900644
507.61545856186314
507.61343702142705
507.61141581768817
507.6093949506363
507.60737442026135
507.6053542265534
507.60333436950265
507.6013148490993
507.5992956653336
507.597276818196
507.59525830767694
507.59324013376687
507.591222296456
507.58920479573413
507.5871876315908
507.5851708040155
507.5831543129976
507.58113815852613
507.57912234059
507.57710685917806
507.57509171427915
507.5730769058819
507.57106243397453
507.56904829854494
507.56703449958087
507.56502103707004
507.56300791100017
507.56099512135876
507.55898266813307
507.55697055131014
507.5549587708768
507.5529473268196
507.55093621912516
507.54892544778005
507.5469150127711
507.54490491408484
507.5428951517079
507.54088572562665
507.5388766358272
507.53686788229567
507.534859465018
507.5328513839798
507.53084363916656
507.52883623056374
507.52682915815654
507.5248224219302
507.5228160218699
507.5208099579607
507.5188042301875
507.5167988385354
507.51479378298933
507.51278906353406
507.51078468015436
507.508780632835
507.5067769215605
507.5047735463152
507.5027705070834
507.50076780384944
507.49876543659735
507.49676340531124
507.4947617099752
507.49276035057306
507.4907593270885
507.4887586395051
507.4867582878065
507.4847582719763
507.4827585919982
507.4807592478556
507.4787602395318
507.4767615670101
507.4747632302736
507.47276522930525
507.4707675640878
507.4687702346037
507.46677324083527
507.4647765827647
507.46278026037436
507.4607842736464
507.4587886225632
507.45679330710715
507.45479832726033
507.45280368300456
507.45080937432164
507.4488154011934
507.44682176360135
507.4448284615269
507.4428354949512
507.4408428638549
507.4388505682187
507.4368586080232
507.43486698324915
507.43287569387695
507.43088473988706
507.4288941212597
507.4269038379751
507.42491389001344
507.4229242773545
507.4209349999779
507.4189460578628
507.4169574509886
507.4149691793346
507.4129812428801
507.4109936416042
507.40900637548594
507.40701944450467
507.40503284863945
507.40304658786914
507.4010606621726
507.39907507152867
507.397089815916
507.3951048953134
507.39312030969955
507.3911360590526
507.3891521433507
507.3871685625716
507.38518531669325
507.38320240569334
507.38121982954937
507.3792375882388
507.377255681739
507.37527411002685
507.37329287307904
507.37131197087234
507.36933140338334
507.36735117058817
507.3653712724627
507.36339170898265
507.3614124801239
507.35943358586206
507.3574550261729
507.3554768010318
507.3534989104142
507.3515213542956
507.3495441326514
507.3475672454568
507.3455906926868
507.3436144743162
507.34163859031975
507.33966304067195
507.33768782534736
507.3357129443203
507.3337383975648
507.33176418505496
507.3297903067649
507.32781676266865
507.32584355273985
507.3238706769517
507.3218981352771
507.3199259276892
507.31795405416125
507.31598251466636
507.3140113091775
507.31204043766735
507.31006990010866
507.3080996964737
507.30612982673443
507.30416029086297
507.30219108883085
507.30022222060944
507.29825368616986
507.29628548548345
507.2943176185211
507.29235008525353
507.2903828856511
507.2884160196841
507.2864494873225
507.28448328853625
507.2825174232956
507.2805518915705
507.27858669333096
507.27662182854675
507.27465729718716
507.2726930992215
507.27072923461884
507.26876570334827
507.2668025053791
507.2648396406806
507.26287710922185
507.26091491097196
507.2589530458998
507.25699151397436
507.2550303151648
507.25306944944015
507.25110891676906
507.2491487171197
507.24718885045996
507.2452293167576
507.24327011598035
507.2413112480959
507.2393527130719
507.2373945108764
507.23543664147707
507.23347910484136
507.23152190093657
507.22956502972994
507.2276084911885
507.2256522852793
507.22369641196934
507.2217408712259
507.219785663016
507.21783078730624
507.21587624406294
507.21392203325223
507.21196815484
507.21001460879216
507.2080613950746
507.20610851365296
507.20415596449294
507.2022037475602
507.2002518628204
507.1983003102392
507.196349089782
507.19439820141434
507.19244764510137
507.1904974208085
507.18854752850126
507.1865979681448
507.1846487397043
507.18269984314503
507.18075127843196
507.17880304552983
507.1768551444034
507.17490757501747
507.17296033733675
507.17101343132555
507.1690668569482
507.16712061416894
507.16517470295213
507.16322912326183
507.16128387506166
507.15933895831523
507.15739437298595
507.15545011903697
507.15350619643124
507.1515626051317
507.14961934510126
507.1476764163029
507.1457338186995
507.1437915522536
507.14184961692746
507.13990801268307
507.13796673948224
507.1360257972868
507.13408518605826
507.132144905758
507.1302049563474
507.12826533778735
507.12632605003824
507.12438709306053
507.12244846681466
507.12051017126083
507.11857220635903
507.116634572069
507.1146972683501
507.11276029516154
507.11082365246267
507.108887340213
507.1069513583721
507.10501570689945
507.10308038575437
507.1011453948959
507.09921073428296
507.0972764038741
507.0953424036275
507.0934087335011
507.09147539345264
507.0895423834398
507.0876097034198
507.0856773533499
507.08374533318744
507.08181364288936
507.0798822824125
507.0779512517136
507.07602055074955
507.07409017947685
507.0721601378521
507.07023042583165
507.06830104337183
507.06637199042876
507.06444326695834
507.0625148729162
507.0605868082576
507.0586590729379
507.05673166691287
507.05480459013785
507.0528778425681
507.05095142415854
507.04902533486444
507.047099574641
507.0451741434434
507.0432490412266
507.0413242679454
507.03939982355433
507.0374757080081
507.0355519212613
507.03362846326814
507.03170533398276
507.02978253335897
507.0278600613504
507.02593791791065
507.0240161029936
507.02209461655303
507.02017345854284
507.0182526289166
507.0163321276278
507.0144119546297
507.01249210987595
507.01057259332
507.0086534049154
507.00673454461577
507.00481601237453
507.00289780814506
507.0009799318805
506.99906238353384
506.9971451630575
506.99522827040374
506.9933117055246
506.9913954683721
506.98947955889804
506.987563977054
506.98564872279127
506.983733796061
506.98181919681434
506.97990492500213
506.97799098057527
506.97607736348465
506.97416407368115
506.97225111111567
506.9703384757391
506.9684261675025
506.9665141863573
506.96460253225433
506.9626912051447
506.96078020497913
506.9588695317082
506.95695918528264
506.95504916565284
506.953139472769
506.95123010658136
506.9493210670401
506.9474123540952
506.9455039676962
506.9435959077928
506.9416881743346
506.9397807672713
506.93787368655245
506.93596693212754
506.93406050394566
506.93215440195587
506.93024862610747
506.92834317634976
506.9264380526318
506.9245332549024
506.9226287831105
506.92072463720507
506.9188208171352
506.91691732285
506.91501415429826
506.9131113114286
506.9112087941897
506.9093066025301
506.9074047363984
506.9055031957433
506.9036019805131
506.90170109065645
506.8998005261215
506.89790028685644
506.8960003728096
506.89410078392945
506.89220152016406
506.8903025814614
506.8884039677694
506.886505679036
506.8846077152089
506.88271007623536
506.88081276206236
506.87891577263673
506.877019107905
506.87512276781405
506.87322675231036
506.8713310613405
506.8694356948511
506.8675406527885
506.8656459350985
506.863751541727
506.86185747261976
506.8599637277221
506.85807030697976
506.8561772103381
506.8542844377428
506.85239198913956
506.85049986447376
506.8486080636906
506.84671658673534
506.84482543355335
506.8429346040901
506.8410440982912
506.83915391610213
506.8372640574683
506.8353745223349
506.8334853106472
506.83159642235006
506.8297078573883
506.82781961570646
506.825931697249
506.8240441019603
506.82215682978455
506.8202698806661
506.818383254549
506.81649695137713
506.81461097109406
506.8127253136436
506.8108399789699
506.808954967017
506.8070702777289
506.8051859110497
506.8033018669233
506.80141814529344
506.7995347461038
506.797651669298
506.7957689148196
506.7938864826122
506.7920043726195
506.7901225847848
506.7882411190513
506.7863599753619
506.78447915365956
506.7825986538872
506.7807184759877
506.7788386199041
506.776959085579
506.77507987295513
506.7732009819752
506.7713224125819
506.769444164718
506.76756623832586
506.7656886333478
506.76381134972627
506.7619343874035
506.7600577463216
506.75818142642225
506.7563054276471
506.75442974993763
506.75255439323524
506.75067935748126
506.7488046426168
506.74693024858294
506.7450561753206
506.7431824227704
506.7413089908728
506.739435879568
506.7375630887962
506.7356906184976
506.73381846861236
506.7319466390807
506.73007512984265
506.7282039408381
506.7263330720071
506.72446252328933
506.7225922946248
506.72072238595325
506.7188527972144
506.71698352834807
506.7151145792939
506.71324594999174
506.71137764038104
506.70950965040134
506.7076419799924
506.7057746290939
506.70390759764547
506.7020408855863
506.7001744928555
506.69830841939216
506.69644266513507
506.69457723002307
506.692712113995
506.69084731698973
506.68898283894606
506.68711867980284
506.6852548394991
506.683391317974
506.68152811516626
506.67966523101455
506.67780266545725
506.6759404184325
506.6740784898787
506.672216879734
506.6703555879365
506.6684946144242
506.666633959135
506.6647736220071
506.66291360297856
506.6610539019874
506.65919451897145
506.65733545386894
506.655476706618
506.65361827715657
506.65176016542256
506.64990237135413
506.64804489488967
506.64618773596754
506.6443308945259
506.64247437050295
506.640618163837
506.6387622744665
506.63690670233
506.6350514473664
506.63319650951445
506.6313418887128
506.6294875849001
506.6276335980147
506.625779927995
506.6239265747793
506.6220735383061
506.6202208185135
506.6183684153394
506.6165163287215
506.61466455859755
506.61281310490523
506.61096196758245
506.60911114656716
506.60726064179704
506.6054104532096
506.603560580742
506.6017110243318
506.5998617839164
506.59801285943337
506.59616425081987
506.59431595801294
506.5924679809496
506.59062031956665
506.58877297380064
506.58692594358814
506.5850792288655
506.583232829569
506.58138674563526
506.5795409770008
506.57769552360224
506.5758503853759
506.5740055622578
506.57216105418416
506.5703168610908
506.5684729829134
506.5666294195876
506.56478617104887
506.5629432372328
506.56110061807505
506.5592583135113
506.5574163234772
506.5555746479084
506.55373328674074
506.55189223990993
506.5500515073516
506.54821108900165
506.54637098479594
506.5445311946699
506.5426917185592
506.5408525563992
506.5390137081254
506.53717517367323
506.53533695297807
506.53349904597513
506.5316614525994
506.5298241727858
506.52798720646916
506.5261505535844
506.52431421406646
506.5224781878506
506.520642474872
506.5188070750656
506.5169719883664
506.51513721470934
506.51330275402944
506.51146860626164
506.5096347713407
506.50780124920135
506.5059680397781
506.5041351430055
506.50230255881826
506.50047028715113
506.4986383279391
506.4968066811171
506.4949753466199
506.49314432438206
506.491313614338
506.4894832164221
506.4876531305684
506.4858233567109
506.48399389478396
506.48216474472184
506.48033590645906
506.47850737993014
506.47667916506936
506.474851261811
506.4730236700896
506.4711963898397
506.4693694209955
506.46754276349117
506.4657164172609
506.4638903822393
506.4620646583606
506.4602392455591
506.45841414376883
506.4565893529237
506.45476487295747
506.452940703804
506.45111684539717
506.4492932976705
506.44747006055746
506.4456471339916
506.44382451790653
506.4420022122359
506.4401802169128
506.4383585318706
506.436537157043
506.43471609236354
506.4328953377663
506.4310748931851
506.4292547585538
506.42743493380596
506.425615418875
506.4237962136945
506.4219773181981
506.4201587323194
506.418340455992
506.4165224891495
506.4147048317255
506.41288748365383
506.41107044486813
506.409253715302
506.4074372948888
506.4056211835621
506.4038053812556
506.40198988790286
506.4001747034375
506.3983598277933
506.3965452609039
506.39473100270317
506.39291705312513
506.39110341210363
506.3892900795725
506.38747705546535
506.38566433971556
506.3838519322565
506.38203983302157
506.3802280419439
506.37841655895664
506.3766053839932
506.3747945169869
506.37298395787144
506.37117370658035
506.36936376304703
506.36755412720464
506.3657447989863
506.36393577832524
506.3621270651543
506.36031865940646
506.3585105610146
506.3567027699117
506.3548952860306
506.35308810930434
506.35128123966575
506.349474677048
506.34766842138407
506.34586247260705
506.34405683065035
506.34225149544733
506.3404464669316
506.3386417450368
506.3368373296965
506.33503322084454
506.33322941841453
506.33142592233986
506.3296227325539
506.32781984899003
506.32601727158163
506.3242150002621
506.322413034965
506.32061137562397
506.31881002217284
506.3170089745457
506.3152082326765
506.31340779649923
506.31160766594763
506.30980784095556
506.3080083214566
506.3062091073842
506.3044101986714
506.3026115952512
506.3008132970568
506.2990153040212
506.2972176160777
506.2954202331594
506.2936231551992
506.2918263821303
506.2900299138858
506.2882337503991
506.2864378916036
506.2846423374329
506.2828470878208
506.28105214270096
506.27925750200717
506.27746316567305
506.27566913363245
506.2738754058192
506.27208198216687
506.27028886260933
506.2684960470802
506.26670353551305
506.2649113278415
506.26311942399894
506.26132782391875
506.2595365275343
506.25774553477896
506.25595484558613
506.25416445988895
506.2523743776208
506.2505845987151
506.2487951231049
506.24700595072346
506.2452170815039
506.2434285153791
506.241640252282
506.2398522921456
506.2380646349025
506.23627728048547
506.2344902288274
506.2327034798612
506.2309170335198
506.2291308897359
506.2273450484425
506.2255595095724
506.2237742730586
506.221989338834
506.22020470683157
506.21842037698394
506.2166363492234
506.21485262348216
506.21306919969226
506.2112860777859
506.2095032576952
506.2077207393523
506.20593852268945
506.20415660763894
506.202374994133
506.20059368210383
506.1988126714835
506.1970319622042
506.19525155419825
506.1934714473976
506.1916916417345
506.189912137141
506.1881329335493
506.18635403089166
506.18457542910033
506.1827971281078
506.18101912784647
506.17924142824864
506.1774640292463
506.1756869307715
506.17391013275625
506.1721336351325
506.17035743783237
506.168581540788
506.16680594393193
506.1650306471966
506.1632556505145
506.16148095381806
506.1597065570398
506.1579324601119
506.15615866296645
506.1543851655352
506.1526119677499
506.15083906954266
506.1490664708452
506.1472941715893
506.1455221717068
506.1437504711294
506.141979069789
506.1402079676175
506.13843716454704
506.1366666605098
506.1348964554382
506.13312654926455
506.13135694192107
506.12958763334024
506.1278186234543
506.12604991219547
506.124281499496
506.12251338528796
506.1207455695033
506.11897805207406
506.11721083293224
506.1154439120099
506.1136772892392
506.1119109645527
506.11014493788304
506.1083792091627
506.1066137783242
506.10484864530014
506.1030838100233
506.1013192724261
506.09955503244106
506.0977910900006
506.096027445037
506.09426409748227
506.0925010472684
506.0907382943272
506.08897583859044
506.08721367998993
506.08545181845744
506.083690253925
506.0819289863246
506.0801680155885
506.078407341649
506.07664696443845
506.07488688388963
506.07312709993545
506.07136761250905
506.0696084215436
506.067849526972
506.06609092872696
506.0643326267412
506.0625746209474
506.0608169112782
506.0590594976664
506.05730238004486
506.0555455583465
506.05378903250454
506.05203280245206
506.05027686812224
506.0485212294482
506.0467658863632
506.04501083880024
506.04325608669257
506.0415016299733
506.0397474685756
506.03799360243266
506.03624003147735
506.0344867556426
506.03273377486113
506.0309810890656
506.029228698189
506.027476602164
506.02572480092323
506.02397329439924
506.0222220825245
506.0204711652314
506.0187205424523
506.01697021411934
506.01522018016504
506.01347044052187
506.0117209951223
506.00997184389877
506.0082229867838
506.0064744237098
506.0047261546095
506.00297817941583
506.00123049806194
505.99948311048144
505.99773601660814
505.9959892163759
505.9942427097188
505.9924964965708
505.9907505768661
505.9890049505389
505.98725961752353
505.9855145777545
505.9837698311665
505.98202537769436
505.98028121727253
505.97853734983556
505.97679377531773
505.97505049365355
505.97330750477755
505.97156480862424
505.96982240512835
505.9680802942249
505.9663384758488
505.964596949935
505.9628557164188
505.9611147752351
505.9593741263189
505.95763376960514
505.9558937050288
505.9541539325249
505.9524144520281
505.9506752634732
505.94893636679495
505.94719776192807
505.9454594488073
505.94372142736785
505.94198369754514
505.94024625927483
505.93850911249234
505.9367722571333
505.93503569313344
505.93329942042857
505.9315634389548
505.92982774864805
505.92809234944417
505.92635724127905
505.92462242408857
505.92288789780883
505.92115366237596
505.91941971772627
505.91768606379634
505.91595270052295
505.9142196278431
505.9124868456939
505.91075435401245
505.9090221527359
505.9072902418014
505.9055586211462
505.9038272907076
505.9020962504231
505.9003655002305
505.8986350400681
505.89690486987416
505.89517498958713
505.8934453991456
505.89171609848796
505.8899870875526
505.8882583662781
505.8865299346033
505.8848017924673
505.8830739398091
505.8813463765678
505.87961910268274
505.8778921180929
505.87616542273764
505.8744390165562
505.8727128994879
505.8709870714718
505.8692615324474
505.8675362823545
505.8658113211325
505.86408664872107
505.86236226505963
505.86063817008795
505.8589143637458
505.8571908459731
505.85546761670986
505.8537446758963
505.8520220234728
505.8502996593798
505.84857758355776
505.8468557959471
505.84513429648865
505.84341308512336
505.8416921617923
505.83997152643684
505.8382511789983
505.83653111941845
505.8348113476391
505.83309186360185
505.83137266724844
505.8296537585209
505.8279351373613
505.8262168037116
505.82449875751405
505.8227809987109
505.82106352724423
505.8193463430562
505.81762944608937
505.8159128362864
505.81419651358993
505.812480477943
505.81076472928845
505.80904926756926
505.80733409272835
505.80561920470865
505.8039046034533
505.8021902889057
505.80047626100946
505.7987625197082
505.7970490649455
505.7953358966652
505.793623014811
505.79191041932637
505.79019811015525
505.78848608724144
505.78677435052856
505.78506289996045
505.7833517354807
505.781640857033
505.7799302645611
505.77821995800883
505.7765099373201
505.7748002024385
505.7730907533078
505.77138158987196
505.76967271207474
505.76796411986
505.7662558131713
505.76454779195234
505.7628400561467
505.7611326056979
505.7594254405497
505.75771856064586
505.7560119659302
505.7543056563466
505.7525996318389
505.75089389235114
505.7491884378274
505.74748326821174
505.7457783834482
505.74407378348116
505.7423694682548
505.7406654377135
505.73896169180176
505.73725823046385
505.73555505364453
505.7338521612888
505.7321495533418
505.7304472297488
505.7287451904552
505.72704343540664
505.7253419645493
505.7236407778294
505.7219398751932
505.7202392565867
505.71853892195605
505.7168388712476
505.7151391044079
505.71343962138354
505.71174042212084
505.71004150656637
505.70834287466647
505.7066445263675
505.70494646161575
505.7032486803576
505.7015511825396
505.69985396810836
505.6981570370104
505.6964603891925
505.69476402460106
505.69306794318237
505.6913721448828
505.6896766296489
505.6879813974272
505.68628644816414
505.684591781806
505.6828973982993
505.6812032975909
505.6795094796276
505.67781594435615
505.6761226917236
505.674429721677
505.6727370341635
505.6710446291307
505.66935250652574
505.6676606662962
505.6659691083897
505.6642778327542
505.66258683933785
505.66089612808906
505.6592056989562
505.6575155518879
505.65582568683254
505.6541361037385
505.6524468025544
505.6507577832288
505.64906904571063
505.6473805899489
505.6456924158927
505.6440045234911
505.64231691269316
505.64062958344795
505.6389425357043
505.6372557694115
505.6355692845187
505.6338830809746
505.63219715872816
505.6305115177284
505.6288261579246
505.6271410792663
505.62545628170284
505.6237717651839
505.6220875296595
505.62040357507937
505.6187199013935
505.61703650855185
505.6153533965044
505.61367056520095
505.6119880145914
505.6103057446258
505.6086237552543
505.60694204642715
505.60526061809475
505.60357947020776
505.60189860271663
505.600218015572
505.5985377087248
505.59685768212586
505.5951779357263
505.59349846947777
505.59181928333174
505.59014037724006
505.5884617511545
505.5867834050271
505.5851053388099
505.58342755245536
505.58175004591595
505.58007281914416
505.5783958720927
505.5767192047145
505.57504281696225
505.5733667087889
505.5716908801476
505.57001533099134
505.5683400612732
505.56666507094616
505.56499035996313
505.5633159282773
505.5616417758418
505.5599679026098
505.55829430853447
505.5566209935692
505.55494795766737
505.5532752007826
505.5516027228685
505.5499305238787
505.5482586037668
505.5465869624864
505.5449155999914
505.5432445162358
505.5415737111737
505.5399031847597
505.5382329369482
505.5365629676938
505.534893276951
505.5332238646743
505.5315547308183
505.52988587533747
505.52821729818635
505.5265489993197
505.52488097869247
505.5232132362599
505.5215457719774
505.51987858580065
505.51821167768554
505.5165450475877
505.5148786954631
505.51321262126754
505.51154682495695
505.5098813064872
505.5082160658142
505.5065511028941
505.50488641768317
505.50322201013756
505.5015578802134
505.499894027867
505.49823045305453
505.49656715573207
505.49490413585596
505.4932413933828
505.49157892826935
505.48991674047244
505.4882548299491
505.4865931966563
505.4849318405514
505.483270761592
505.4816099597361
505.4799494349416
505.47828918716647
505.4766292163684
505.4749695225051
505.4733101055345
505.47165096541477
505.4699921021043
505.46833351556126
505.466675205744
505.465017172611
505.463359416121
505.46170193623294
505.46004473290606
505.4583878060999
505.45673115577375
505.45507478188694
505.45341868439897
505.4517628632694
505.45010731845747
505.448452049923
505.44679705762593
505.44514234152626
505.443487901584
505.44183373775905
505.44017985001125
505.4385262383003
505.43687290258623
505.435219842829
505.433567058989
505.4319145510272
505.43026231890445
505.4286103625819
505.4269586820206
505.42530727718196
505.4236561480273
505.422005294518
505.4203547166151
505.41870441427983
505.41705438747346
505.41540463615735
505.41375516029285
505.41210595984177
505.4104570347659
505.40880838502727
505.40716001058837
505.4055119114117
505.4038640874597
505.40221653869486
505.4005692650797
505.3989222665769
505.3972755431492
505.3956290947595
505.39398292137076
505.3923370229459
505.39069139944814
505.3890460508408
505.3874009770871
505.38575617814996
505.38411165399253
505.382467404578
505.3808234298695
505.37917972983024
505.37753630442336
505.37589315361225
505.3742502773603
505.3726076756307
505.37096534838685
505.36932329559187
505.36768151720895
505.36604001320126
505.36439878353195
505.36275782816466
505.3611171470632
505.35947674019195
505.35783660751514
505.3561967489973
505.35455716460325
505.35291785429814
505.3512788180472
505.34964005581566
505.34800156756893
505.34636335327247
505.3447254128917
505.3430877463921
505.34145035373905
505.33981323489803
505.3381763898345
505.33653981851404
505.33490352090286
505.33326749696704
505.3316317466727
505.32999626998645
505.3283610668753
505.32672613730625
505.3250914812466
505.3234570986636
505.3218229895247
505.32018915379746
505.3185555914495
505.31692230244863
505.3152892867627
505.31365654435973
505.3120240752076
505.3103918792743
505.3087599565277
505.30712830693625
505.30549693046834
505.30386582709235
505.3022349967767
505.30060443948975
505.29897415520014
505.2973441438765
505.29571440548744
505.29408494000205
505.2924557473894
505.29082682761856
505.28919818065907
505.2875698064807
505.2859417050532
505.2843138763465
505.28268632033047
505.281059036975
505.2794320262504
505.2778052881268
505.2761788225744
505.27455262956374
505.27292670906496
505.27130106104875
505.269675685486
505.2680505823478
505.2664257516058
505.26480119323134
505.26317690719594
505.2615528934712
505.259929152029
505.25830568284124
505.2566824858803
505.2550595611188
505.25343690853
505.2518145280872
505.2501924197639
505.24857058353365
505.24694901937056
505.24532772724893
505.2437067071433
505.24208595902843
505.24046548287953
505.2388452786725
505.2372253463837
505.23560568598924
505.2339862974655
505.2323671807888
505.23074833593574
505.22912976288313
505.227511461608
505.2258934320874
505.2242756742983
505.2226581882183
505.22104097382504
505.2194240310965
505.2178073600108
505.21619096054616
505.21457483268074
505.2129589763927
505.21134339166025
505.20972807846175
505.20811303677584
505.2064982665814
505.20488376785744
505.2032695405831
505.20165558473747
505.2000419002996
505.1984284872486
505.19681534556395
505.19520247522547
505.19358987621314
505.19197754850694
505.19036549208687
505.1887537069329
505.18714219302507
505.1855309503438
505.1839199788697
505.1823092785838
505.1806988494673
505.17908869150193
505.1774788046694
505.1758691889516
505.17425984433027
505.17265077078724
505.17104196830434
505.1694334368636
505.167825176447
505.1662171870369
505.16460946861577
505.16300202116605
505.16139484467027
505.1597879391109
505.1581813044705
505.1565749407317
505.1549688478777
505.15336302589213
505.1517574747589
505.150152194462
505.14854718498583
505.1469424463151
505.1453379784344
505.1437337813282
505.1421298549811
505.14052619937803
505.1389228145045
505.13731970034615
505.13571685688913
505.13411428412
505.1325119820256
505.130909950593
505.1293081898096
505.12770669966295
505.1261054801408
505.1245045312308
505.12290385292096
505.1213034451992
505.11970330805394
505.11810344147335
505.1165038454456
505.11490451995934
505.1133054650034
505.1117066805669
505.1101081666391
505.1085099232096
505.10691195026794
505.10531424780385
505.10371681580733
505.1021196542686
505.10052276317816
505.09892614252686
505.09732979230563
505.0957337125058
505.0941379031188
505.0925423641357
505.09094709554785
505.0893520973469
505.0877573695246
505.086162912073
505.0845687249844
505.08297480825155
505.08138116186757
505.0797877858259
505.07819468012036
505.0766018447451
505.07500927969437
505.07341698496276
505.07182496054503
505.0702332064364
505.0686417226323
505.06705050912825
505.06545956591964
505.06386889300217
505.0622784903715
505.06068835802336
505.0590984959536
505.05750890415817
505.0559195826332
505.0543305313748
505.05274175037954
505.05115323964384
505.04956499916426
505.04797702893785
505.0463893289619
505.0448018992341
505.0432147397526
505.04162785051614
505.0400412315235
505.0384548827738
505.03686880426636
505.03528299600026
505.0336974579748
505.0321121901896
505.03052719264434
505.0289424653386
505.0273580082722
505.02577382144506
505.02418990485745
505.02260625851005
505.02102288240377
505.01943977653974
505.0178569409191
505.0162743755432
505.0146920804139
505.0131100555332
505.0115283009034
505.009946816527
505.0083656024065
505.00678465854463
505.0052039849441
505.0036235816079
505.0020434485394
505.000463585742
504.9988839932194
504.99730467097567
504.9957256190151
504.9941468373425
504.99256832596285
504.9909900848816
504.98941211410425
504.98783441363645
504.9862569834841
504.9846798236534
504.98310293415085
504.98152631498357
504.9799499661586
504.9783738876834
504.976798079566
504.9752225418145
504.9736472744376
504.97207227744417
504.9704975508433
504.96892309464425
504.96734890885665
504.96577499349
504.9642013485539
504.9626279740581
504.9610548700128
504.9594820364287
504.95790947331676
504.9563371806881
504.95476515855427
504.95319340692714
504.951621925819
504.95005071524207
504.9484797752089
504.94690910573246
504.9453387068257
504.94376857850176
504.94219872077434
504.9406291336573
504.9390598171647
504.93749077131093
504.93592199611027
504.93435349157727
504.9327852577265
504.93121729457295
504.92964960213163
504.92808218041756
504.9265150294462
504.92494814923367
504.9233815397966
504.92181520115156
504.9202491333154
504.91868333630515
504.9171178101381
504.9155525548318
504.9139875704039
504.9124228568724
504.9108584142553
504.90929424257075
504.9077303418372
504.90616671207323
504.9046033532978
504.90304026553014
504.9014774487899
504.89991490309677
504.89835262847106
504.8967906249332
504.8952288925041
504.8936674312052
504.89210624105846
504.8905453220862
504.88898467431096
504.88742429775544
504.8858641924426
504.8843043583957
504.8827447956383
504.8811855041943
504.87962648408785
504.8780677353432
504.876509257985
504.8749510520384
504.87339311752845
504.8718354544806
504.8702780629208
504.8687209428754
504.86716409437105
504.8656075174345
504.8640512120929
504.8624951783734
504.86093941630367
504.8593839259116
504.8578287072258
504.8562737602752
504.8547190850887
504.8531646816953
504.85161055012446
504.85005669040567
504.8485031025687
504.84694978664385
504.84539674266176
504.8438439706534
504.8422914706501
504.8407392426837
504.8391872867863
504.83763560299036
504.83608419132867
504.83453305183394
504.83298218453916
504.8314315894775
504.82988126668266
504.8283312161887
504.82678143802997
504.8252319322415
504.82368269885825
504.8221337379153
504.8205850494481
504.8190366334921
504.81748849008324
504.8159406192577
504.8143930210518
504.8128456955022
504.8112986426459
504.80975186252005
504.8082053551621
504.80665912061005
504.8051131589021
504.80356747007664
504.8020220541726
504.8004769112293
504.79893204128626
504.79738744438356
504.7958431205614
504.79429906986076
504.79275529232274
504.7912117879885
504.7896685568997
504.7881255990979
504.78658291462517
504.78504050352404
504.7834983658375
504.78195650160893
504.7804149108825
504.7788735937027
504.77733255011486
504.7757917801642
504.7742512838964
504.7727110613578
504.77117111259514
504.76963143765516
504.76809203658496
504.76655290943205
504.76501405624464
504.7634754770714
504.76193717196116
504.7603991409629
504.7588613841256
504.75732390149875
504.7557866931316
504.75424975907396
504.75271309937585
504.75117671408776
504.74964060326084
504.7481047669465
504.7465692051963
504.74503391806235
504.74349890559694
504.74196416785253
504.740429704882
504.7388955167387
504.7373616034763
504.7358279651487
504.7342946018098
504.7327615135132
504.7312287003126
504.7296961622617
504.72816389941454
504.7266319118253
504.725100199548
504.7235687626371
504.7220376011471
504.7205067151326
504.7189761046484
504.717445769749
504.71591571048907
504.7143859269231
504.7128564191057
504.71132718709123
504.70979823093376
504.7082695506874
504.70674114640633
504.70521301814506
504.7036851659584
504.70215758990093
504.70063029002745
504.69910326639297
504.6975765190525
504.69605004806135
504.6945238534747
504.6929979353479
504.69147229373607
504.6899469286948
504.68842184027926
504.686897028545
504.68537249354745
504.6838482353419
504.68232425398355
504.68080054952816
504.6792771220314
504.677753971549
504.6762310981369
504.6747085018512
504.6731861827484
504.671664140885
504.6701423763177
504.6686208891033
504.66709967929864
504.6655787469606
504.66405809214575
504.66253771491097
504.6610176153131
504.6594977934092
504.6579782492561
504.6564589829104
504.6549399944288
504.6534212838676
504.651902851283
504.6503846967314
504.6488668202692
504.6473492219525
504.6458319018375
504.64431485998034
504.6427980964372
504.6412816112643
504.6397654045177
504.6382494762536
504.63673382652837
504.6352184553987
504.6337033629213
504.63218854915294
504.6306740141504
504.6291597579707
504.6276457806707
504.62613208230755
504.62461866293825
504.6231055226201
504.62159266141066
504.62008007936765
504.61856777654884
504.617055753012
504.6155440088146
504.61403254401375
504.6125213586663
504.6110104528291
504.60949982655916
504.6079894799136
504.6064794129495
504.60496962572415
504.60346011829506
504.60195089071976
504.600441943056
504.5989332753618
504.59742488769507
504.59591678011407
504.594408952677
504.5929014054418
504.5913941384665
504.5898871518091
504.58838044552726
504.5868740196788
504.5853678743215
504.58386200951304
504.5823564253112
504.58085112177355
504.57934609895733
504.5778413569201
504.5763368957196
504.5748327154133
504.57332881605885
504.5718251977137
504.5703218604351
504.5688188042807
504.56731602930813
504.5658135355752
504.5643113231397
504.5628093920593
504.5613077423918
504.559806374195
504.55830528752654
504.55680448244425
504.5553039590061
504.55380371727006
504.55230375729434
504.55080407913715
504.5493046828567
504.5478055685112
504.54630673615907
504.5448081858585
504.543309917668
504.54181193164595
504.5403142278508
504.53881680634095
504.5373196671751
504.5358228104119
504.53432623611025
504.532829944329
504.5313339351271
504.5298382085632
504.52834276469594
504.526847603584
504.52535272528576
504.52385812985995
504.5223638173652
504.5208697878602
504.51937604140335
504.51788257805333
504.5163893978688
504.5148965009082
504.5134038872302
504.51191155689366
504.5104195099575
504.5089277464806
504.5074362665223
504.50594507014216
504.5044541573998
504.5029635283545
504.5014731830661
504.4999831215946
504.49849334400005
504.4970038503427
504.4955146406826
504.4940257150795
504.49253707359367
504.4910487162854
504.4895606432149
504.48807285444263
504.4865853500294
504.4850981300358
504.4836111945224
504.4821245435496
504.480638177178
504.4791520954684
504.47766629848184
504.4761807862792
504.4746955589212
504.4732106164688
504.4717259589829
504.4702415865245
504.46875749915444
504.4672736969337
504.46579017992326
504.464306948184
504.46282400177665
504.46134134076215
504.4598589652014
504.45837687515564
504.45689507068573
504.45541355185264
504.4539323187173
504.4524513713409
504.450970709785
504.4494903341115
504.4480102443822
504.4465304406592
504.4450509230046
504.44357169148066
504.4420927461499
504.4406140870749
504.43913571431835
504.4376576279428
504.43617982801084
504.4347023145849
504.4332250877278
504.4317481475023
504.4302714939711
504.42879512719696
504.4273190472429
504.4258432541717
504.42436774804605
504.4228925289292
504.42141759688434
504.4199429519747
504.4184685942637
504.41699452381476
504.4155207406916
504.41404724495806
504.4125740366778
504.41110111591456
504.40962848273193
504.4081561371936
504.40668407936346
504.4052123093054
504.40374082708354
504.402269632762
504.4007987264049
504.3993281080768
504.39785777784255
504.3963877357669
504.39491798191443
504.39344851634996
504.3919793391383
504.39051045034444
504.3890418500332
504.38757353826963
504.38610551511874
504.38463778064556
504.3831703349149
504.38170317799154
504.3802363099405
504.3787697308269
504.37730344071565
504.37583743967207
504.3743717277614
504.3729063050491
504.3714411716005
504.369976327481
504.36851177275594
504.3670475074905
504.36558353174996
504.3641198455996
504.36265644910486
504.36119334233103
504.3597305253438
504.35826799820893
504.3568057609923
504.3553438137601
504.35388215657827
504.35242078951296
504.35095971263036
504.3494989259966
504.34803842967835
504.346578223742
504.3451183082541
504.34365868328155
504.3421993488912
504.3407403051501
504.3392815521254
504.33782308988407
504.3363649184935
504.33490703802113
504.33344944853434
504.3319921501004
504.33053514278686
504.32907842666145
504.3276220017922
504.32616586824724
504.32471002609486
504.32325447540325
504.3217992162406
504.3203442486749
504.3188895727742
504.3174351886064
504.3159810962395
504.31452729574175
504.3130737871811
504.311620570626
504.3101676461449
504.3087150138065
504.3072626736796
504.30581062583315
504.3043588703363
504.3029074072583
504.30145623666886
504.30000535863746
504.2985547732337
504.2971044805272
504.2956544805877
504.29420477348503
504.2927553592888
504.2913062380685
504.28985740989424
504.28840887483625
504.2869606329648
504.28551268435035
504.2840650290632
504.28261766717355
504.2811705987517
504.2797238238679
504.2782773425927
504.27683115499644
504.27538526114995
504.2739396611237
504.2724943549881
504.27104934281374
504.2696046246708
504.2681602006296
504.2667160707606
504.26527223513426
504.26382869382087
504.2623854468909
504.2609424944151
504.25949983646433
504.25805747310983
504.25661540442275
504.25517363047425
504.25373215133595
504.25229096707926
504.25085007777557
504.2494094834965
504.24796918431366
504.2465291802987
504.24508947152344
504.24365005806
504.2422109399804
504.240772117357
504.23933359026205
504.2378953587681
504.23645742294775
504.23501978287345
504.233582438618
504.23214539025435
504.23070863785574
504.2292721814954
504.22783602124673
504.22640015718366
504.2249645893801
504.2235293179099
504.22209434284696
504.2206596642652
504.21922528223854
504.21779119684084
504.216357408146
504.2149239162279
504.2134907211605
504.2120578230181
504.2106252218748
504.209192917805
504.20776091088305
504.2063292011833
504.20489778878004
504.2034666737479
504.2020358561615
504.2006053360951
504.19917511362337
504.19774518882105
504.19631556176273
504.194886232523
504.19345720117644
504.19202846779785
504.19060003246227
504.18917189524495
504.18774405622116
504.18631651546616
504.184889273055
504.1834623290631
504.182035683566
504.18060933663924
504.17918328835844
504.17775753879937
504.1763320880375
504.1749069361488
504.1734820832089
504.1720575292936
504.17063327447863
504.1692093188401
504.16778566245443
504.16636230539825
504.1649392477482
504.16351648958107
504.162094030974
504.1606718720043
504.15925001274945
504.15782845328704
504.1564071936946
504.1549862340496
504.1535655744294
504.1521452149118
504.1507251555745
504.1493053964955
504.147885937753
504.1464667794253
504.14504792159073
504.1436293643278
504.1422111077154
504.14079315183267
504.1393754967587
504.13795814257264
504.13654108935407
504.135124337183
504.1337078861395
504.13229173630384
504.13087588775625
504.1294603405772
504.12804509484704
504.12663015064595
504.1252155080542
504.1238011671521
504.12238712802014
504.12097339073875
504.1195599553887
504.1181468220509
504.1167339908063
504.11532146173613
504.1139092349215
504.11249731044336
504.1110856883829
504.10967436882106
504.108263351839
504.1068526375184
504.1054422259408
504.1040321171881
504.10262231134266
504.10121280848716
504.0998036087044
504.09839471207715
504.0969861186884
504.0955778286216
504.0941698419599
504.0927621587864
504.0913547791845
504.0899477032376
504.08854093102923
504.087134462643
504.08572829816285
504.0843224376724
504.08291688125564
504.0815116289964
504.0801066809788
504.07870203728726
504.0772976980063
504.07589366322054
504.0744899330148
504.0730865074736
504.07168338668157
504.0702805707233
504.0688780596836
504.06747585364724
504.0660739526993
504.06467235692503
504.0632710664099
504.0618700812397
504.06046940150054
504.0590690272786
504.0576689586601
504.0562691957316
504.0548697385798
504.0534705872915
504.0520717419538
504.0506732026538
504.0492749694788
504.0478770425159
504.04647942185215
504.0450821075749
504.04368509977166
504.0422883985302
504.04089200393855
504.03949591608466
504.03810013505654
504.0367046609424
504.0353094938307
504.0339146338101
504.03252008096956
504.03112583539814
504.02973189718523
504.0283382664202
504.0269449431921
504.0255519275904
504.0241592197044
504.0227668196235
504.021374727437
504.01998294323425
504.0185914671049
504.01720029913895
504.01580943942645
504.01441888805743
504.01302864512195
504.01163871071026
504.01024908491263
504.00885976781933
504.00747075952063
504.006082060107
504.0046936696692
504.0033055882984
504.0019178160858
504.0005303531225
503.9991431994997
503.9977563553091
503.99636982064226
503.99498359559084
503.9935976802467
503.99221207470214
503.99082677904994
503.98944179338287
503.98805711779414
503.986672752377
503.98528869722486
503.98390495243143
503.9825215180906
503.9811383942963
503.9797555811422
503.9783730787219
503.9769908871292
503.9756090064577
503.97422743680136
503.97284617825403
503.97146523090964
503.97008459486256
503.96870427020735
503.96732425703885
503.96594455545187
503.96456516554167
503.963186087404
503.96180732113453
503.96042886682926
503.9590507245846
503.95767289449714
503.9562953766638
503.9549181711816
503.9535412781479
503.95216469766
503.95078842981525
503.94941247471115
503.9480368324455
503.9466615031163
503.9452864868217
503.9439117836598
503.94253739372857
503.9411633171262
503.9397895539512
503.9384161043022
503.9370429682781
503.93567014597807
503.93429763750146
503.93292544294786
503.93155356241687
503.93018199600806
503.92881074382126
503.9274398059565
503.92606918251386
503.92469887359334
503.92332887929524
503.92195919972005
503.9205898349687
503.919220785142
503.91785205034057
503.9164836306654
503.91511552621773
503.9137477370989
503.91238026341034
503.9110131052537
503.9096462627308
503.90827973594355
503.906913524994
503.9055476299843
503.9041820510165
503.9028167881929
503.9014518416159
503.9000872113879
503.8987228976116
503.8973589003897
503.8959952198252
503.8946318560213
503.8932688090815
503.8919060791093
503.89054366620826
503.8891815704824
503.88781979203554
503.88645833097166
503.8850971873951
503.88373636141046
503.8823758531223
503.88101566263526
503.87965579005413
503.87829623548373
503.8769369990291
503.8755780807953
503.8742194808874
503.8728611994104
503.8715032364696
503.8701455921705
503.8687882666188
503.8674312599205
503.86607457218156
503.8647182035079
503.8633621540057
503.86200642378117
503.8606510129405
503.8592959215898
503.85794114983537
503.8565866977833
503.8552325655403
503.85387875321294
503.8525252609079
503.8511720887318
503.84981923679175
503.8484667051948
503.8471144940479
503.84576260345784
503.8444110335315
503.843059784376
503.8417088560984
503.8403582488056
503.83900796260446
503.83765799760204
503.83630835390545
503.834959031622
503.8336100308593
503.8322613517248
503.83091299432635
503.8295649587719
503.82821724517
503.826869853629
503.8255227842574
503.82417603716385
503.8228296124573
503.82148351024694
503.8201377306423
503.81879227375316
503.8174471396894
503.8161023285609
503.81475784047757
503.81341367554955
503.8120698338871
503.81072631560073
503.80938312080093
503.8080402495982
503.80669770210284
503.8053554784253
503.8040135786762
503.8026720029659
503.8013307514052
503.79998982410484
503.79864922117554
503.79730894272825
503.79596898887394
503.7946293597238
503.793290055389
503.79195107598116
503.7906124216122
503.7892740923942
503.78793608843966
503.7865984098614
503.78526105677224
503.7839240292849
503.7825873275126
503.78125095156884
503.7799149015675
503.77857917762253
503.7772437798478
503.77590870835775
503.7745739632669
503.7732395446899
503.77190545274107
503.77057168753504
503.7692382491864
503.76790513780975
503.7665723535199
503.7652398964317
503.76390776665994
503.7625759643197
503.761244489526
503.75991334239393
503.7585825230385
503.75725203157504
503.75592186811923
503.75459203278706
503.7532625256947
503.7519333469586
503.75060449669536
503.74927597502165
503.7479477820541
503.7466199179098
503.7452923827059
503.74396517655964
503.74263829958863
503.74131175191087
503.73998553364436
503.73865964490733
503.737334085818
503.7360088564949
503.73468395705686
503.73335938762284
503.732035148312
503.73071123924365
503.72938766053744
503.7280644123132
503.7267414946907
503.7254189077901
503.7240966517313
503.7227747266345
503.7214531326199
503.7201318698078
503.7188109383187
503.71749033827336
503.71617006979227
503.71485013299593
503.7135305280051
503.7122112549405
503.71089231392284
503.7095737050729
503.7082554285116
503.70693748435974
503.705619872738
503.7043025937671
503.70298564756763
503.70166903426025
503.7003527539655
503.69903680680363
503.69772119289496
503.69640591235975
503.6950909653183
503.6937763518906
503.6924620721968
503.6911481263571
503.6898345144916
503.68852123672036
503.6872082931634
503.68589568394077
503.68458340917255
503.6832714689788
503.6819598634793
503.68064859279366
503.67933765704174
503.6780270563431
503.6767167908172
503.67540686058305
503.6740972657599
503.6727880064666
503.6714790828221
503.67017049494507
503.668862242954
503.6675543269673
503.6662467471033
503.6649395034799
503.6636325962154
503.662326025428
503.6610197912362
503.6597138937584
503.65840833311336
503.65710310941995
503.6557982227969
503.6544936733626
503.65318946123557
503.65188558653426
503.6505820493769
503.6492788498815
503.6479759881661
503.6466734643484
503.6453712785458
503.64406943087533
503.64276792145415
503.6414667503991
503.64016591782683
503.638865423854
503.637565268597
503.6362654521722
503.6349659746959
503.63366683628396
503.6323680370522
503.63106957711625
503.62977145659215
503.6284736755956
503.62717623424237
503.6258791326479
503.6245823709278
503.62328594919745
503.62198986757244
503.620694126168
503.61939872509924
503.61810366448094
503.61680894442816
503.6155145650557
503.61422052647845
503.61292682881117
503.6116334721687
503.6103404566659
503.6090477824173
503.60775544953776
503.6064634581421
503.60517180834495
503.60388050026086
503.60258953400444
503.6012989096905
503.6000086274339
503.59871868734945
503.5974290895517
503.5961398341551
503.5948509212742
503.5935623510236
503.5922741235174
503.5909862388696
503.58969869719385
503.5884114986038
503.587124643213
503.5858381311348
503.58455196248224
503.5832661373681
503.58198065590545
503.5806955182072
503.57941072438666
503.5781262745568
503.57684216883035
503.5755584073204
503.5742749901399
503.57299191740185
503.57170918921906
503.5704268057041
503.56914476696943
503.5678630731277
503.5665817242914
503.5653007205731
503.5640200620853
503.56273974894066
503.56145978125187
503.56018015913196
503.55890088269393
503.55762195205057
503.55634336731487
503.55506512859984
503.55378723601825
503.55250968968267
503.55123248970585
503.5499556362008
503.5486791292806
503.54740296905834
503.54612715564735
503.5448516891606
503.54357656971115
503.5423017974117
503.5410273723753
503.5397532947147
503.5384795645423
503.53720618197053
503.53593314711156
503.53466046007725
503.5333881209792
503.53211612992914
503.53084448703817
503.52957319241705
503.52830224617674
503.5270316484282
503.5257613992824
503.52449149885024
503.523221947243
503.52195274457176
503.52068389094757
503.51941538648157
503.51814723128473
503.516879425468
503.51561196914236
503.5143448624185
503.513078105407
503.511811698218
503.51054564096194
503.509279933749
503.5080145766897
503.5067495698943
503.5054849134731
503.5042206075361
503.50295665219346
503.50169304755514
503.5004297937314
503.4991668908324
503.49790433896806
503.4966421382485
503.4953802887835
503.4941187906827
503.4928576440559
503.4915968490127
503.49033640566245
503.4890763141143
503.4878165744774
503.48655718686086
503.4852981513736
503.4840394681246
503.4827811372227
503.48152315877655
503.4802655328947
503.47900825968554
503.47775133925757
503.476494771719
503.47523855717805
503.47398269574296
503.4727271875222
503.4714720326242
503.47021723115745
503.4689627832299
503.4677086889494
503.46645494842323
503.4652015617585
503.463948529062
503.46269585044047
503.4614435260005
503.4601915558487
503.4589399400918
503.4576886788359
503.45643777218675
503.4551872202501
503.4539370231314
503.452687180936
503.4514376937693
503.4501885617369
503.44893978494406
503.447691363496
503.4464432974978
503.4451955870543
503.44394823227026
503.4427012332503
503.44145459009883
503.44020830292015
503.4389623718189
503.4377167968996
503.43647157826695
503.4352267160252
503.4339822102784
503.43273806112984
503.4314942686831
503.4302508330413
503.4290077543076
503.4277650325846
503.42652266797495
503.42528066058117
503.424039010506
503.4227977178523
503.42155678272275
503.42031620522016
503.4190759854471
503.4178361235058
503.4165966194987
503.4153574735278
503.4141186856948
503.4128802561013
503.41164218484914
503.4104044720398
503.40916711777436
503.40793012215363
503.4066934852781
503.4054572072482
503.4042212881643
503.4029857281264
503.4017505272343
503.40051568558806
503.3992812032873
503.3980470804313
503.39681331711904
503.3955799134492
503.3943468695204
503.3931141854314
503.3918818612806
503.39064989716644
503.3894182931874
503.38818704944197
503.38695616602854
503.38572564304536
503.38449548059043
503.38326567876175
503.3820362376573
503.3808071573749
503.37957843801223
503.37835007966737
503.37712208243806
503.3758944464221
503.37466717171696
503.37344025842003
503.3722137066284
503.37098751643884
503.3697616879483
503.36853622125386
503.3673111164526
503.3660863736418
503.3648619929188
503.36363797438094
503.36241431812505
503.361191024248
503.35996809284666
503.35874552401765
503.3575233178574
503.35630147446204
503.35507999392803
503.3538588763515
503.3526381218285
503.35141773045507
503.35019770232725
503.3489780375412
503.3477587361931
503.3465397983789
503.3453212241943
503.3441030137351
503.34288516709694
503.3416676843751
503.34045056566515
503.3392338110623
503.3380174206616
503.33680139455805
503.335585732847
503.33437043562367
503.3331555029829
503.3319409350195
503.330726731828
503.3295128935031
503.32829942013905
503.32708631183004
503.3258735686702
503.3246611907539
503.3234491781752
503.32223753102835
503.3210262494074
503.31981533340627
503.31860478311864
503.317394598638
503.3161847800577
503.31497532747085
503.3137662409699
503.3125575206477
503.31134916659676
503.31014117890936
503.30893355767785
503.3077263029945
503.3065194149515
503.3053128936408
503.30410673915435
503.302900951584
503.3016955310213
503.30049047755824
503.2992857912866
503.298081472298
503.2968775206839
503.2956739365354
503.2944707199438
503.2932678710001
503.29206538979565
503.29086327642153
503.28966153096894
503.28846015352906
503.28725914419306
503.2860585030521
503.2848582301972
503.2836583257192
503.28245878970915
503.2812596222577
503.2800608234554
503.2788623933927
503.2776643321597
503.2764666398466
503.2752693165435
503.2740723623401
503.27287577732636
503.2716795615918
503.27048371522574
503.2692882383178
503.26809313095737
503.266898393234
503.265704025237
503.26451002705585
503.26331639877935
503.2621231404962
503.2609302522951
503.2597377342647
503.2585455864937
503.25735380907076
503.25616240208456
503.25497136562376
503.25378069977705
503.25259040463334
503.2514004802813
503.25021092680913
503.24902174430486
503.24783293285645
503.24664449255215
503.24545642348016
503.24426872572894
503.2430813993867
503.2418944445417
503.2407078612821
503.23952164969614
503.23833580987184
503.2371503418972
503.23596524586037
503.23478052184987
503.23359616995367
503.23241219025977
503.23122858285615
503.2300453478308
503.228862485272
503.22767999526764
503.2264978779058
503.22531613327396
503.22413476145994
503.22295376255147
503.2217731366361
503.2205928838016
503.2194130041353
503.21823349772444
503.21705436465663
503.21587560501916
503.2146972188991
503.21351920638335
503.2123415675585
503.21116430251095
503.20998741132735
503.20881089409386
503.20763475089666
503.2064589818217
503.2052835869549
503.20410856638205
503.20293392018857
503.20175964845953
503.20058575127996
503.1994122287349
503.19823908090893
503.19706630788664
503.1958939097526
503.1947218865912
503.19355023848675
503.19237896552363
503.1912080677862
503.1900375453588
503.1888673983258
503.1876976267715
503.18652823078037
503.18535921043645
503.1841905658239
503.18302229702704
503.18185440413004
503.180686887217
503.1795197463721
503.1783529816794
503.1771865932226
503.1760205810849
503.1748549453496
503.1736896860996
503.1725248034177
503.1713602973866
503.1701961680892
503.16903241560794
503.16786904002515
503.16670604142314
503.16554341988376
503.16438117548887
503.1632193083201
503.16205781845883
503.1608967059867
503.15973597098514
503.1585756135355
503.1574156337192
503.1562560316179
503.15509680731316
503.15393796088665
503.15277949241977
503.1516214019937
503.15046368968956
503.1493063555886
503.1481493997717
503.1469928223198
503.1458366233139
503.14468080283496
503.14352536096385
503.1423702977813
503.1412156133681
503.14006130780444
503.13890738117016
503.13775383354505
503.1366006650087
503.1354478756409
503.1342954655215
503.1331434347303
503.13199178334685
503.13084051145074
503.12968961912134
503.128539106438
503.12738897348027
503.12623922032753
503.12508984705914
503.1239408537542
503.1227922404919
503.1216440073513
503.1204961544115
503.1193486817515
503.1182015894499
503.11705487758513
503.11590854623546
503.1147625954786
503.1136170253924
503.1124718360543
503.1113270275416
503.1101825999315
503.1090385533007
503.10789488772593
503.10675160328356
503.10560870004997
503.1044661781016
503.10332403751454
503.1021822783648
503.1010409007283
503.0998999046808
503.0987592902982
503.0976190576564
503.0964792068314
503.09533973789894
503.09420065093445
503.0930619460132
503.0919236232105
503.09078568260134
503.0896481242605
503.08851094826286
503.08737415468295
503.08623774359535
503.0851017150744
503.0839660691945
503.08283080602973
503.081695925654
503.080561428141
503.07942731356434
503.07829358199797
503.07716023351577
503.0760272681914
503.07489468609856
503.0737624873109
503.07263067190183
503.07149923994507
