569.0
568.809792224138
568.617736316974
568.4219938834015
568.220739412943
568.0121590031805
567.7944688987429
567.565912252645
567.324755670257
567.0692984940687
566.7978862055955
566.5088950047514
566.2007706340173
565.8720147615887
565.5211802118952
565.146878854725
564.7477823449427
564.3226400585255
563.8702883978623
563.3896428985176
562.8797101759387
562.3395868430665
561.7684629047224
561.1656208834178
560.530452665639
559.862457038948
559.1612243072545
558.4264601742975
557.6579791607128
556.8557046813457
556.0196711947286
555.1500150880655
554.2469735291463
553.3108866929864
552.3422120897527
551.3415075983067
550.3094577000243
549.2468354584832
548.1545335531135
547.0335574435561
545.8850180855655
544.7101349628839
543.5102407518979
542.2867614267202
541.0412330731085
539.7753011152788
538.4907243868527
537.1893755038446
535.8732265692956
534.5443220775948
533.204764464055
531.8567204423333
530.5024418487947
529.1442427007281
527.7844847693488
526.425577577792
525.0699843118441
523.7202124027291
522.3788240362339
521.0484230365286
519.731635594353
518.4310974954263
517.1494343061252
515.8892584675056
514.6531702051104
513.4437514022771
512.263554961911
511.11510068662363
510.0008489291603
508.92321341778165
507.8845369238076
506.8870907807835
505.9330611569856
505.02453321536376
504.16348176033995
503.35178373366995
502.5911938805135
501.88334275630444
501.22972420344286
500.6316830351767
500.09041177381584
499.6069523610919
499.182176580169
498.8167822771452
498.51129224597884
498.2660538761212
498.08122876033354
497.9567875666927
497.89251433997555
497.88799381231695
497.94261243092285
498.0555578594203
498.22582796070935
498.4522320224181
498.7333753360078
499.0676816352322
499.45339675978397
499.88857359329774
500.37109058278577
500.8986776767241
501.46890188440085
502.07917131649737
502.7267553026795
503.40880097343404
504.12232897741524
504.8642430651591
505.6313511217085
506.4203824951068
507.227999590222
508.0508147737558
508.88540812234857
509.7283306048983
510.576136312493
511.4253645764533
512.2725766424569
513.1143771258527
513.9474246609915
514.768446796882
515.5742501189043
516.3617383972679
517.1279323110914
517.8699710165379
518.5851257485433
519.2708076547948
519.9245850704197
520.5441881903196
521.1275229462492
521.6726834702516
522.1779520293591
522.641827974078
523.0630228686517
523.4404789158423
523.7733780987004
524.0611490084199
524.3034583573389
524.5001954807578
524.6515043932967
524.7577630378895
524.8195975454926
524.8378504315962
524.813598350253
524.7481474681248
524.6430220536446
524.4999415066976
524.3208117978505
524.107706725114
523.86284731865
523.5886054741045
523.2874793736319
522.9620912779695
522.6151994936015
522.2496970250254
521.8685885696134
521.4749433343044
521.0719087695744
520.6626893648487
520.2505255257654
519.8386633952555
519.4303550044983
519.0288209241145
518.6372453148318
518.2587685939552
517.8964672402194
517.5533493375289
517.232359543889
516.936339230344
516.6680180607051
516.4300040320749
516.2247830939921
516.0547023621697
515.9219611109762
515.828609458345
515.7765219340354
515.7674024750405
515.802786039865
515.8840393715328
516.0123431492973
516.1886926616754
516.4138972429708
516.6885892907869
517.0132167314456
517.3880473951807
517.8131653770404
518.2884855498286
518.8137513779388
519.3885377654257
520.012256551454
520.6841712620092
521.4034170332911
522.1689864167873
522.9797397853074
523.8344182061805
524.7316588729853
525.669982506244
526.6478158167471
527.6635074528116
528.7153266316251
529.8014681653469
530.9200880402951
532.0692999264796
533.2471650346826
534.4517164922905
535.6809747270017
536.9329473947719
538.205628774333
539.497024840348
540.8051518120875
542.128042998043
543.4637504771839
544.810359136487
546.1659892143861
547.5287895100317
548.8969692693207
550.2687748969837
551.642503522346
553.0165093556923
554.3892073078162
555.7590676098761
557.1246166604107
558.4844330288292
559.8371580807019
561.1814908182307
562.5161936173807
563.8400935836069
565.1520774832844
566.4510977071704
567.7361652077723
569.0063491645635
570.2607856311555
571.4986603285095
572.7191978810309
573.9216703463214
575.1053901483851
576.2697025940914
577.4139822560784
578.537637696254
579.6401138822109
580.7208789576669
581.7794171237393
582.815243012721
583.8279074293681
584.8169683579857
585.7819879000407
586.7225265431778
587.6381567256387
588.5284830444859
589.3931238315388
590.2317287094853
591.0439575195074
591.8294883761099
592.5880132101257
593.3192292344912
594.0228347158596
594.6985267398898
595.3460231690158
595.9650477012264
596.5553414000824
597.1166526332876
597.6487491526194
598.1514149982258
598.6244630346882
599.0677326670185
599.4810813217842
599.8644024479744
600.217608815464
600.5406308286449
600.833442973899
601.0960577270158
601.328526296819
601.5309239247938
601.7033588218458
601.8459762952978
601.9589601977311
602.0425495407018
602.0970245193446
602.1227142527223
602.1199867518012
602.0892538290557
602.0309757292515
601.945665575442
601.833880397784
601.6962250444592
601.5333581297562
601.345984849402
601.1348562036198
600.9007614503294
600.6445487463543
600.3671151539148
600.0693924685572
599.7523457308303
599.4169844773612
599.0643543655341
598.6955308601049
598.3116102680303
597.9137202083463
597.5030123820117
597.0806593321631
596.6478510259591
596.2057935040442
595.7556961818165
595.2987806280316
594.836271940548
594.3693901800596
593.8993502248081
593.4273680650846
592.9546455008691
592.4823680619028
592.0117073615087
591.5438084557024
591.0797860439449
590.6207117794888
590.1676188632762
589.7215023573535
589.2832909692526
588.8538732162853
588.4340933020087
588.0247320843508
587.6265099487289
587.2400855462879
586.8660484745689
586.5049320756058
586.1571805877253
585.8231666431922
585.5031848416223
585.1974390691814
584.9060671408308
584.629117652772
584.366549122818
584.1182292058551
583.8839337970512
583.6633616439353
583.4561276756177
583.2617655836419
583.0797242423341
582.9093645853086
582.7499699189557
582.6007434684342
582.4608195100064
582.3292487059942
582.2050145243464
582.0870016252923
581.9740184424237
581.8648128820597
581.7580840550945
581.6524882300916
581.546634613359
581.4390681557448
581.3282960541638
581.212779309803
581.090948392427
580.9612103157183
580.8219625603455
580.671587810668
580.508460011133
580.3309505813858
580.1374237290859
579.9262534574495
579.6958250985351
579.4445412861321
579.1708300564576
578.8731395397348
578.5499453248315
578.1997615697044
577.8211496608503
577.4127201130148
576.9731585070022
576.501210197557
575.9956736920448
575.4554109839047
574.8793552788194
574.2665185802915
573.6160123953489
572.9270424645468
572.19889729937
571.4309562343807
570.6227060092572
569.7737422176184
568.8837799474419
567.9526497124754
566.980278551437
565.9666904894851
564.9120104376801
563.8164694275068
562.680400171226
561.5042558395778
560.2886020007974
559.0341367286343
557.7416402841072
556.411991470605
555.0461849743742
553.6453042321925
552.2105260407716
550.7431349569412
549.2445175233584
547.7161694523684
546.1597007653379
544.576819560019
542.9693314731796
541.3391417383527
539.6882338157274
538.0186591966797
536.3325246109318
534.6320050327378
532.9193303283004
531.1967825480563
529.4666882615775
527.731417282553
525.9933790937919
524.255008135999
522.5187709446759
520.7871492599165
519.0626407059414
517.3477331144662
515.6449178638167
513.9566834430603
512.2854915154348
510.633778827926
509.0039480046048
507.39834939545136
505.8192865340999
504.2690215146958
502.74974993270587
501.26360021535476
499.81262206856235
498.3987835635199
497.0239751996609
495.68997482745795
494.3984584899036
493.15100718499446
491.94909898192446
490.7940909424719
489.68720579318426
488.6295383921825
487.6220514319751
486.6655605959731
485.76075732052277
484.9081795743395
484.1082203245038
483.3611055299219
482.66691168593485
482.02556832718403
481.4368855680427
480.90052841606223
480.41601394619846
479.9827068310596
479.5998262612251
479.26645123095216
478.98152662898224
478.74386785000985
478.55217486735813
478.4050275726038
478.30088187379386
478.23805938972237
478.214785083479
478.2291857531427
478.2792977928066
478.363086340212
478.47844520591264
478.62321032597276
478.79518039184273
478.99211419278487
479.2117505367129
479.4518112891917
479.710004658364
479.9840481377524
480.27167178764347
480.5706213062239
480.87868048553514
481.19369365848655
481.513564167557
481.83626584811105
482.1598585211878
482.4824678079853
482.8023052841924
483.1176962844394
483.4270609813588
483.72891807944836
484.02188866570845
484.30469584729406
484.57617991410046
484.8353495030195
485.081371541007
485.31358127088487
485.5314707612067
485.73469303292904
485.9230398406537
486.096443054053
486.2549598436432
486.3988141656967
486.5283924213922
486.644230560812
486.7470323547132
486.8376468941041
486.9170549769363
486.98635955745607
487.0467624150784
487.09955470310496
487.1461168633451
487.1878908186688
487.2263852091404
487.26318780554277
487.2999598717728
487.3384303577423
487.38037463743177
487.42762381454475
487.4820326193013
487.5454603223128
487.61977314103126
487.7068156930143
487.80841932775877
487.9263818466902
488.0624648449251
488.21838255306636
488.39581970068286
488.5963934467068
488.82164453026064
489.07303777566585
489.3519434799815
489.65963689293636
489.9972984472917
490.36600376108663
490.76671634649784
491.2002832232669
491.66745123324955
492.1688494533276
492.7049769858886
493.27620442528945
493.8827846164727
494.52484887794515
495.2023949910733
495.9152972698247
496.6633171064928
497.446101335726
498.2631834567074
499.11398077434546
499.9978139317712
500.9138895787408
501.8613292318666
502.839161496407
503.8463411611408
504.8817491856077
505.9441951257592
507.03240853476956
508.1450674310254
509.28079412520873
510.4381752998137
511.61576254123247
512.8120643220946
514.0255640540568
515.2547136039639
516.4979391812351
517.7536551792867
519.020290797919
520.296310454923
521.5801821999164
522.8703920069601
524.1654556348853
525.4639105770317
526.7643207491745
528.065273959005
529.3653850188614
530.6633045820278
531.957731695474
533.2474216495186
534.5311786206695
535.8078415066544
537.0762952759924
538.3354816804218
539.5843922294048
540.8220521357493
542.0475408924077
543.2599863455505
544.4585433219986
545.6424200873018
546.8108718636721
547.9631986866544
549.0987612118108
550.2169690180971
551.3172696101158
552.3991640915555
553.4621904566094
554.5059066918977
555.5298820560016
556.5336920189559
557.516929791994
558.4791954546394
559.4201109955408
560.3393222111096
561.2365118997483
562.1113740990091
562.9635948806332
563.792856620905
564.5988349670127
565.381210764154
566.1396557520177
566.8738423805337
567.5834583277992
568.2681823851148
568.9276935897153
569.561698418712
570.1699130737728
570.7520465379158
571.3078036325987
571.836879368544
572.3389730170721
572.8137758869971
573.2609833063594
573.6803004574028
574.0714375730113
574.4341317235626
574.7681253666291
575.0731692239191
575.3490360491926
575.5955279227886
575.8124551824959
575.9996437640048
576.1569512472167
576.2842631560088
576.3814980945094
576.4486217105463
576.4856389963743
576.4925845131615
576.4695121279071
576.4165254797633
576.3337705981746
576.2214326732415
576.079763413641
575.9090757737029
575.7097280639416
575.4821319958844
575.2267539248822
574.9441048601933
574.634742956187
574.2992886741986
573.9384135197105
573.5528504302615
573.1433974128283
572.7109038315058
572.2562674864145
571.7804400453748
571.2844235224978
570.7692643181222
570.2360489991613
569.685910573894
569.1200102557804
568.5395515526819
567.9457589066711
567.3398841840093
566.7232239569786
566.0971043160586
565.4628879663134
564.821951162808
564.1756826194442
563.5254688134046
562.8726785366858
562.2186731667292
561.564810053621
560.9124303392026
560.2628577278547
559.6173973868662
558.9773307220345
558.3439148049699
557.7183821525325
557.1019080691381
556.4956040606869
555.9005371521696
555.3177276988221
554.7481346705956
554.1926278472944
553.6520099091816
553.1270276848068
552.6183315060256
552.126478365271
551.6519875987394
551.1952992433172
550.756742346028
550.3365315017269
549.9347909460716
549.5515523634921
549.1867665928766
548.8402831404994
548.5118498661797
548.2011084322534
547.9076227592785
547.6308689302285
547.3702302495117
547.1250082450755
546.8944146038049
546.6775766067374
546.4735229406706
546.2811957212343
546.0994758828267
545.927171944575
545.7630244953114
545.605712951225
545.4538714734347
545.3060749357555
545.1608249524402
545.0166012305109
544.8718584313705
544.7250058060755
544.5744018452268
544.4183876782932
544.2553047839103
544.0835021390635
543.901328587099
543.7071516558315
543.4993549021127
543.276333489406
543.0365093520053
542.7783153014202
542.5002136868867
542.2007124881087
541.8783591233868
541.5317358165265
541.1594696233288
540.7602639501944
540.3328753564014
539.8761295967662
539.3889265143048
538.870227251927
538.3190673784535
537.7345722008565
537.1159791835245
536.4626018951932
535.7738332602794
535.0491617322468
534.2881522786267
533.4904552544527
532.6558325990416
531.7841515612677
530.8753767185431
529.929551331546
528.9468131361954
527.9273895272643
526.8716097177263
525.7798945783908
524.6527435831705
523.4907451395873
522.2945731289866
521.0649913995856
519.8028532890654
518.5091030362344
517.1847507314358
515.8308924503272
514.4487101168161
513.0394691216621
511.6045182439012
510.14527886808986
508.66323843488817
507.15995908194964
505.637064546371
504.09625159239306
502.53926920394497
500.9679066496889
499.3840075173517
497.7894750013857
496.18624461862447
494.5762852626881
492.96160000528425
491.34421799339515
489.7261993255298
488.10961571880597
486.4965373066147
484.8890583939399
483.28927744869395
481.6992835055492
480.1211616784893
478.55699198866074
477.0088617626439
475.47882156256327
473.968879999303
472.48102880307823
471.01723989833573
469.5793833946991
468.1692689537411
466.78868902228817
465.43939985265456
464.1230749457404
462.8413130975379
461.59562873034446
460.3874400502553
459.21808792682214
458.0888222234058
457.00079046336765
455.9550309453069
454.9524682914292
453.9939221416489
453.08010310512003
452.2115940473474
451.38886456747645
450.61226413686194
449.8820069458597
449.1981810966594
448.5607429252948
447.9695006439085
447.42411098351084
446.924110820001
446.4689388309225
446.05791685196056
445.69023444737866
445.36496519278904
445.0810973753126
444.83750712422477
444.63293883388775
444.4660248223139
444.335294064017
444.23915692233726
444.1759290280932
444.14386405862274
444.14114781191074
444.16591292895464
444.21625897990464
444.29024721372446
444.38590267205245
444.50122554066417
444.63420938368716
444.7828352581946
444.94510522535523
445.1190236267961
445.3026195694547
445.4939601509468
445.69115461904306
445.8923622329632
446.0957902325748
446.29972360592905
446.5025235669519
446.70263169738035
446.8985883579839
447.0890282722328
447.27267480882205
447.4483391702042
447.6149596785851
447.77163425183414
447.91759658653706
448.0522165659125
448.17499607963845
448.28556452353445
448.383693676465
448.46930815558443
448.5424830815821
448.60343109784134
448.6524981122209
448.69016536656505
448.71707584029065
448.7339975961727
448.7418175454021
448.74152138126794
448.73419425056903
448.721015820086
448.70325188642437
448.68224009950444
448.6593785514738
448.6361347252742
448.61405568959066
448.5947696700045
448.57994635383153
448.57127433404924
448.57047068288557
448.5792770244429
448.5994467904801
448.6327370381632
448.68087633598475
448.7455784765161
448.8285323392153
448.9313811130735
449.0557259117778
449.2031256089375
449.3750819733001
449.5730168305911
449.7982626935985
450.0520866084179
450.3356646769135
450.6500747348242
450.99629798406
451.3752393184888
451.78770318951507
452.23436538633126
452.715788456306
453.23243326113953
453.78464512065807
454.3726601237871
454.99662094326413
455.6565628977894
456.35242036295443
457.0840097016714
457.851054080003
458.65318256738016
459.4899120984137
460.36067298444334
461.2648194659116
462.20162338144854
463.17027911559694
464.16990015224496
465.1995243596604
466.25813434298936
467.3446715496173
468.4580468301871
469.59712743718694
470.76072609211155
471.94758930955743
473.1564328840845
474.3859549384002
475.6348223147054
476.90170042840043
478.18525508792885
479.4841349499588
480.7969841604991
482.1224656656623
483.4592606106212
484.8060544978865
486.16153171839653
487.5243826682297
488.8933120512894
490.26704208728387
491.6443178192584
493.0239058092678
494.40459472327365
495.78518671886
497.1644991313999
498.54138993764155
499.914737488642
501.2834442914285
502.6464473562723
504.00271131629677
505.35122185582964
506.6909791398899
508.02100645491237
509.34035675280995
510.64810625660726
511.94336371967626
513.2252671475436
514.4929922058448
515.7457215557752
516.9826377279288
518.2029371967376
519.4058353659585
520.5905561361579
521.7563476544992
522.9024672871897
524.0281836668846
525.1327716544762
526.2155223387491
527.2757288789579
528.3127069975474
529.3257822713127
530.3142841150111
531.2775507471547
532.2149451510403
533.1258517601391
534.0096824221245
534.8658720136443
535.6938768007533
536.4931952571326
537.2633391130586
538.0038371546775
538.7142298292162
539.3940900806078
540.0430359277076
540.6607195958791
541.2468168555147
541.801031423621
542.3230924868665
542.8127893891857
543.2699496914654
543.6944414983379
544.0861757328418
544.4451258106564
544.7712948493571
545.0647131080761
545.3254719741706
545.5537119523956
545.7496148308804
545.9134305078746
546.0454602632616
546.1460442648206
546.2155813600962
546.2545202949979
546.2633706476846
546.2426917658642
546.193088109203
546.1152175701428
546.0097798653236
545.8775241401535
545.7192408851595
545.5357535837252
545.3279429145048
545.0967227094449
544.8430551373424
544.56794639054
544.2724183071551
543.9575252533408
543.6243377515393
543.2739564525186
542.9075261665566
542.5262287208218
542.131254401359
541.7237972903868
541.3050522316006
540.8762199930047
540.4385232652319
539.9931993376564
539.541493381138
539.0846385790707
538.6238580281247
538.1603421280777
537.6952735222802
537.2298280904845
536.7651676161411
536.3024193168328
535.8426790455978
535.38700753939
534.9364486579602
534.492028493445
534.0547177051916
533.625441771857
533.2050866580859
532.7944982090189
532.3944687649819
532.0057436755675
531.6290126181948
531.2648986096076
530.9139731596989
530.5767475489313
530.2536685767988
529.9451165465483
529.6514079255255
529.3728027358757
529.1094970909562
528.8616182400182
528.6292219310941
528.4122788728417
528.2106872469469
528.0242697535296
527.8527817920711
527.6959244111366
527.5533250308017
527.4245382016832
527.3090597407296
527.2063128754911
527.1156565746353
527.0363786774224
526.9677043580406
526.9087893458435
526.8587462332962
526.8166031277416
526.7813252239338
526.7518361884452
526.7270204479491
526.7057128850734
526.6867085038722
526.6687547633315
526.6505724663916
526.6308529839085
526.6082492088228
526.581392851731
526.5488921737908
526.509331928906
526.461277593473
526.4032814332866
526.3338972016091
526.2516820673094
526.1551988841366
526.0430252507966
525.9137340430855
525.7659041287804
525.5981416556732
525.4090749964085
525.1973471471767
524.9616275349553
524.7006370436834
524.4131335289493
524.097932435367
523.7539015814323
523.3799472502479
522.9750438323343
522.5382331643673
522.0686175723724
521.5653682956282
521.0277317370912
520.4550313544256
519.8466742464647
519.2021645328282
518.5211193635571
517.8032375034298
517.0482877925192
516.2561385467313
515.4267466780373
514.5601702563891
513.6565606732653
512.7161803133787
511.7394025284375
510.7266980437067
509.67865125627117
508.59594958174637
507.4793739288057
506.32979236458834
505.14818990553243
503.93566721527
502.69344361912846
501.4228534507842
500.1253268845176
498.80241005291685
497.455739326102
496.08705275571754
494.69817306410596
493.29101908809207
491.86757534767963
490.4299135068931
488.98018068434305
487.5206054244701
486.05347533412305
484.5811320408825
483.10595902266147
481.63037739110206
480.1568501432107
478.68786879895833
477.22594393523536
475.77359532041453
474.3333549589048
472.9077569284711
471.49932504268486
470.110567087911
468.7439557465739
467.40192455363893
466.086854823259
464.8010689141743
463.54683436171956
462.32633527030157
461.14167655685725
459.9948685386167
458.88781608355777
457.8223277396159
456.8000946711264
455.82268092400494
454.89151835524564
454.00788628168675
453.1729241208458
452.3876117704477
451.6527700208753
450.969061437813
450.3369877129207
449.7568769932284
449.2288828941886
448.75298641773503
448.32898985382917
447.9565292832677
447.63505542649847
447.3638434205468
447.14198787448026
446.9684141344912
446.8418728902568
446.7609596905193
446.7240936756511
446.7295384595291
446.7754149243197
446.8597062077941
446.9802570506935
447.13479801423244
447.3209487467124
447.5362264278231
447.77804160932567
448.0437228890962
448.330528860382
448.6356671345333
448.9563119386799
449.2896227293446
449.63273508663815
449.98279132245864
450.33693855736857
450.69237089504526
451.04631927776944
451.3960652506865
451.73894536346785
452.0723788157417
452.3938813805882
452.7010631941301
452.99165378902245
453.2635085857265
453.51462533939747
453.7431352887196
453.94732335512526
454.12563810311366
454.2766826493844
454.3991969009583
454.4921076815641
454.5545758166204
454.5859691069754
454.5858573673875
454.55401821988
454.49043170817936
454.3952679722188
454.26890505767744
454.11192688503223
453.9251190485025
453.709460196039
453.46612207683347
453.19647843286606
452.9020679345615
452.5845937180068
452.2459044515231
451.887967552604
451.5128713346052
451.1228121049502
450.7200928882818
450.30710997162964
449.88636472468085
449.46043784718165
449.0320007334059
448.603761174972
448.1784632903897
447.75886713838736
447.3477499195162
446.9478897606689
446.562049708854
446.19296394183334
445.8433307807835
445.5157930651176
445.2129254294247
444.93723289875817
444.6911325900066
444.47693823610416
444.2968584428779
444.1529912885192
444.0473133348846
443.9816740447602
443.957788993565
443.97723634924046
444.0414345376702
444.1516600593211
444.3090333931778
444.51452115618696
444.76894152166903
445.072944383442
445.42702283106365
445.83151657997286
446.2866140419298
446.7923551937539
447.3486242239359
447.95517125618125
448.61160409096755
449.31739139915317
450.0718705658116
450.8742669045198
451.7236807389562
452.6191010350175
453.5594080475758
454.54340014027264
455.56979495500786
456.63721130102846
457.744196662235
458.8892369268955
460.0707662415264
461.2871637637441
462.5367722743653
463.81790364833927
465.1288353201316
466.4678282336818
467.8331336664169
469.22299107786927
470.6356407661371
472.06932290518216
473.5222980866162
474.99284791563116
476.4792775147937
477.979904449447
479.49306871408754
481.01713740764444
482.5505219807347
484.09166015505474
485.63903684541907
487.191169592089
488.74661757639336
490.30398160549106
491.86191268068444
493.41910509973957
494.9742938572206
496.5262651235613
498.0738447821046
499.61589355752005
501.15131947193095
502.6790817213229
504.1981753364931
505.7076421877371
507.20656041138005
508.6940651333353
510.16932577449194
511.63152500723436
513.0798653788256
514.5135733701446
515.9318898957523
517.3340777645179
518.7194288746659
520.0872493836977
521.4368576734213
522.7675862630491
524.0787813004189
525.3697975795855
526.6399932417069
527.8887375092992
529.1154054180734
530.3193835812393
531.5000875001303
532.6569535940484
533.7894276529865
534.896971370107
535.9790540147956
537.0351485200432
538.0647450396831
539.067333965515
540.0424308282486
540.9895579799954
541.9082615073496
542.7980954857047
543.6586413359697
544.4895033463583
545.2903000901803
546.0606710258821
546.8002917578465
547.508861105141
548.1861099975151
548.8317970884557
549.4457175841844
550.0277032575931
550.5776179218816
551.095361489213
551.5808781863544
552.0341515209251
552.4552057360459
552.8441137508624
553.2009940334357
553.5260029199383
553.819339783903
554.0812473525204
554.3120293929894
554.5120357417843
554.6816604238049
554.8213460002241
554.931574503584
555.0128822533366
555.0658438033162
555.0910796676507
555.0892594800562
555.0610897444463
555.0073055679276
554.9286970535024
554.8260985954335
554.7003849334042
554.552447313989
554.3832129112901
554.1936577818501
553.9847830247996
553.7576083054988
553.5131693746798
553.25252839118
552.9767667217418
552.686975589326
552.3842684967491
552.0697586496623
551.7445647388523
551.4098100372673
551.0666214376026
550.7161176526931
550.3594104603078
549.9975925521251
549.6317426796163
549.2629308527627
548.8922063478157
548.5205923067763
548.1490757545109
547.7786150732967
547.4101343649814
547.0445178386632
546.6826152230951
546.3252321087026
545.9731204958039
545.6269757764833
545.2874490119194
544.9551330926749
544.6305600340816
544.3142139396779
544.0065114081974
543.7077951903323
543.4183520438442
543.1383891588247
542.8680545883451
542.6074274018712
542.3565191387194
542.1152712041909
541.8835460783772
541.6611406396368
541.4477867041992
541.2431476917757
541.0468133654788
540.8583013553144
540.6770610462979
540.5024665603496
540.3338249902544
540.1703868559464
540.0113415228271
539.8558173656763
539.7028952735784
539.5516049074541
539.4009212044807
539.2497652954033
539.0970229991813
538.941543884697
538.7821539009726
538.6176421793697
538.4467609294056
538.2682316003712
538.080755150578
537.883026747383
537.6737222529905
537.4515263360287
537.21511476775
536.9631674046881
536.6943813518284
536.4074669299741
536.1011370191956
535.7741333687793
535.425211140262
535.0531560034899
534.6567901064033
534.2349669970299
533.7865773078939
533.3105607591212
532.8059003956081
532.2716319589803
531.70684664692
531.1107025594978
530.482409913728
529.8212622687449
529.126630865702
528.3979616149081
527.634767774624
526.8366488128561
526.0032941942565
525.1344852382945
524.2301017352543
523.290102667284
522.314535217453
521.303532372009
520.2573098409589
519.1761841554761
518.0605750696999
516.9109987500813
515.728053754211
514.5124302373379
513.2649270715069
511.98643997444395
510.6779446010512
509.3405138085776
507.9753167075543
506.58363482025317
505.16683210839244
503.72637723513424
502.26383736391733
500.7808633424083
499.2792033280022
497.76069479530906
496.22724583469966
494.68083147655176
493.1235027845448
491.55737170591135
489.98461099911356
488.4074516291216
486.8281754373137
485.2491164582782
483.67264686860597
482.10117373256946
480.53713770800687
478.98299841593416
477.44123275153953
475.91431095829324
474.4047093705274
472.9149076448025
471.44737086273085
470.00453583905056
468.5888078938725
467.2025596293275
465.84811429959854
464.52773559734186
463.24363931642387
461.9979591618054
460.7927585466235
459.63000960944106
458.51158758126866
457.4392563802402
456.41466283104086
455.4393484997127
454.5147247318404
453.64206110284823
452.8224936308441
452.05700708647026
451.34644194875045
450.69148879058463
450.0926879232384
449.5504124986013
449.06486090505945
448.6360517205312
448.26384764854674
447.94793207834874
447.6878149124141
447.48282824457755
447.332140394598
447.23473794003036
447.18944338133906
447.1949049962129
447.2496247702767
447.35195906538013
447.50011196519864
447.6921448195983
447.9259819973313
448.1994306924876
448.51016216748087
448.85573502625334
449.23361008073425
449.6411503737804
450.075641336653
450.53430713060436
451.0143231373435
451.5128312227252
452.0269535044838
452.5537934395576
453.0904657019721
453.634106814606
454.1818795582327
454.7309816934703
455.2786630636639
455.82225091260597
456.3591418721172
456.88683716634546
457.40292229386387
457.9050869180212
458.3911454357143
458.85905418906873
459.30690133965464
459.732928115735
460.1355113028712
460.5131877615832
460.8646797275861
461.18890421617215
461.4849756212677
461.7522148417923
461.9901386043663
462.1984572667577
462.37706554648753
462.5260721959169
462.64579467605796
462.7367363466948
462.7995785792947
462.8352117633164
462.84471810618646
462.82935668430855
462.79053036162543
462.7297975430918
462.6488497217645
462.54950277699174
462.4336934420312
462.3034611693821
462.16094166233137
462.00837690336573
461.84809847324294
461.68251275680285
461.5140815729425
461.3453288597089
461.17879479788155
461.01703124835205
460.862587870202
460.7180089869164
460.5858153143819
460.4684945816586
460.3684836977369
460.2881644924647
460.22986014707874
460.1958062492164
460.1881441947095
460.2089196602026
460.26007334046955
460.3434216840903
460.4606558392297
460.61333694056725
460.802888088917
461.03058710143364
461.29757325496445
461.6048288799889
461.9531836286693
462.3433085820725
462.77572866865444
463.2508207015313
463.7688057100996
464.3297617399402
464.93362904143675
465.5801877236678
466.2690883948937
466.99984838444533
467.77184856078355
468.5843392555555
469.436455297075
470.32723369075075
471.2556167924277
472.22043630199727
473.2204299931358
474.25425398636736
475.3205038403353
476.41770527411404
477.5443444811154
478.6988504682746
479.8796211146472
481.0850073747553
482.31332091783605
483.5628740039918
484.8319601019305
486.1188647550529
487.4218691070491
488.73927701918194
490.06941804841455
491.410641512899
492.76132348989177
494.1198843801005
495.48478001943556
496.85449685263296
498.2275594630626
499.6025263848448
500.97800924783405
502.3526541403963
503.72515286672007
505.0942513834894
506.45875154581927
507.81751065398555
509.1694297248989
510.51345905912683
511.8485948328009
513.1738931577621
514.4884648596694
515.7914573439689
517.0820493670851
518.3594871178514
519.6230462599707
520.8720426727645
522.1058322417294
523.3238103615797
524.5253851592029
525.7099875463622
526.8770697237088
528.026092479356
529.1565428392804
530.2679298386101
531.3597671892866
532.4315663809393
533.4828513118358
534.5131577528933
535.5220195291573
536.5089542850203
537.4734730771926
538.4150987016325
539.3333735805505
540.2278378855906
541.0980390800032
541.9435267089752
542.7638565309927
543.5585864642167
544.3272815798613
545.0695019145485
545.7848015212061
546.4727495256744
547.1328944024855
547.7648026739419
548.368058489702
548.9422570850566
549.4870115941524
550.0019557496194
550.4867249515759
550.9409787470162
551.3643946464003
551.7566726972902
552.1175553769726
552.4468040166347
552.7442145888198
553.0096135770189
553.2428714127078
553.4438874796541
553.612603219736
553.749004151868
553.8531108492201
553.9249869670394
553.9647448743482
553.972553409574
553.9486413915869
553.8932859947474
553.8068075213806
553.6895747030934
553.5420050689336
553.3645649533318
553.1577804283685
552.9222218174001
552.6585052010657
552.3673088758703
552.0493570767098
551.7054343112889
551.3363424926083
550.9429405477574
550.5261399992293
550.08690534605
549.626239307488
549.1451743666414
548.6447814590998
548.1261586165416
547.5904391003936
547.038777558347
546.4723601053854
545.8924101924271
545.3001551161049
544.6968448727533
544.0837513161781
543.4621587212811
542.8333455697167
542.1985855180876
541.5591478707818
540.9163089041173
540.2713171140745
539.62542164108
538.9798527426545
538.3358287618075
537.6945501717879
537.0571828981722
536.4248723534837
535.798722711797
535.1797870381577
534.5690811185507
533.9675687925268
533.3761582322484
532.7957178809964
532.2270467216327
531.6708904781204
531.1279271823096
530.5987816341955
530.0840295313359
529.5841472237738
529.0995445481811
528.6305849306309
528.1775515969807
527.7406293243486
527.3199539108268
526.9155747298307
526.5274482810348
526.1554601170543
525.7994052434058
525.458996912707
525.1338777105362
524.8236114023911
524.5276816978858
524.2455152358418
523.9764438074669
523.7197391287308
523.4746195159009
523.2402375108647
523.0156545697785
522.7998724257607
522.5918468774462
522.3904735981855
522.1946005509508
522.0030361661749
521.8145270623867
521.6277816214141
521.4414783362529
521.2542567215355
521.0647478485989
520.8715659677648
520.6733112700946
520.4685707390088
520.2559036957956
520.0338814359446
519.8010876972696
519.5561087260295
519.2975449942306
519.0240117307414
518.7341258584842
518.4265427618352
518.099942560055
517.7530489985716
517.3846263820836
516.9934942035245
516.5785265284632
516.1386537175466
515.6728622431862
515.1802118847804
514.659842052679
514.1109609204257
513.5328498841981
512.9248723624747
512.2864849543686
511.6172422684452
510.91678877755277
510.18487700297965
509.42135745114064
508.6261905512614
507.79943443012604
506.9412189487757
506.0517928502141
505.1315107743544
504.18086173902043
503.2004274118235
502.1908939932457
501.1530520204412
500.08780183014306
498.9961473064278
497.87921274427225
496.7382283960401
495.57454403219623
494.389635713102
493.1850822054469
491.9625696757139
490.72389627643895
489.4709551053344
488.2057234503001
486.9302559063019
485.64671206960855
484.3573317192774
483.06442539511585
481.77036226240097
480.47759468873653
479.18860391947106
477.9059349737616
476.6321698030766
475.36991117310856
474.1217988654711
472.89047517850764
471.6786092459023
470.4888886583686
469.3239764365504
468.18652245821966
467.0791462003875
466.00441904503475
464.9648878229928
463.96302627746775
463.00124324377146
462.0818730164779
461.20714139680086
460.37918852892204
459.6000633543177
458.87167879824096
458.1958173937277
457.5741415504511
457.0081403992515
456.4991597016015
456.048401743779
455.65691087366133
455.3255492000928
455.054990546756
454.845714509029
454.698014081622
454.61198670986994
454.58750835116564
454.62426949035125
454.72175100997714
454.8792313839984
455.09576638974653
455.37022041729176
455.7012617282177
456.0873346089891
456.5266914215204
457.0173773995375
457.55724009621025
458.1439549275712
458.7750256805009
459.4477927410585
460.15943376055276
460.90698050970377
461.6873146052154
462.4971748005209
463.3331952998283
464.19193646942193
465.0698335672133
465.9632616030637
466.8685613857128
467.78202754706695
468.69993024557544
469.61854180721394
470.53413319520047
471.44300558986225
472.3415043586021
473.226030813838
474.0930560114939
474.9391272643412
475.7609087573326
476.55519550605896
477.31891359054447
478.04911039570936
478.74299347764213
479.39795240351435
480.01156632638254
480.58161263335586
481.10606326595155
481.5831013585385
482.01111202642585
482.38872166785376
482.7147944133939
482.98844324102436
483.20906291855874
483.3762949937324
483.49002492478553
483.5503914735058
483.557802270874
483.51291229301506
483.41662399698174
483.2700913616101
483.07473038652773
482.83216388593024
482.5442355393098
482.21298109140054
481.8406022289568
481.42949771357735
480.9822121732364
480.50144892524725
479.99006391751533
479.4510546869482
478.8875556011236
478.30278446783825
477.7000516783672
477.08274260312464
476.4543107021146
475.81821766837095
475.1779825680163
474.53712158387947
473.8991250453515
473.2674803337549
472.64563363251887
472.0369917804017
471.4448788100976
470.872514404262
470.32302982676975
469.7994603510191
469.30474320195486
468.84168219782686
468.4129308255115
468.0209979905115
467.6682330398861
467.35681810731126
467.0887813023613
466.86596982267235
466.69003469453787
466.5624598945172
466.4845579562756
466.45745172704284
466.4820923720254
466.559241350473
466.6894595954654
466.873094615055
467.1103486131996
467.4012646307172
467.7457163817228
468.1434119325485
468.59389570977174
469.09656410244315
469.65067039162955
470.25534097966795
470.9095394125734
471.61212224104014
472.36184240575244
473.1573288252466
473.9971251669209
474.8797023638914
475.8034673429561
476.7667614944153
477.76785480456766
478.80496141564413
479.8762370880126
480.9798133661664
482.1137809885574
483.2762167296889
484.4651948114421
485.67878270140017
486.9150252959484
488.1720075615627
489.4478098384922
490.7404972072554
492.04816015489075
493.36891741600004
494.70090315248376
496.04229962530263
497.3913302743598
498.74622211005294
500.1052461265481
501.4667134265331
502.82897585600807
504.19041755160094
505.54946796050785
506.90457331474937
508.25427100348867
509.5971268678294
510.9317406399771
512.2567487306128
513.5708291492048
514.8726979282239
516.1611080067336
517.4348701334646
518.6928236054177
519.933828758586
521.1567897215142
522.3606440307758
523.544352266445
524.7068985361659
525.8472924921995
526.9645531100334
528.0577335556775
529.1259239857245
530.1682280908724
531.1837543870589
532.1716661827173
533.1311490168148
534.0614202418304
534.9617391472467
535.8313998883025
536.6697513901396
537.4761592123526
538.250022070301
538.9907597417122
539.6978226453544
540.3707123642763
541.0089632038014
541.6121611283119
542.1799321688065
542.71196645487
543.2079834182487
543.6677448066362
544.0910919674626
544.4779199179297
544.8281558637041
545.141778802462
545.4188342040277
545.6594555401502
545.8638383554476
546.0322229680264
546.1648914226793
546.2622052481935
546.3245905798497
546.3525451816791
546.3466344994505
546.3074918650482
546.2358073936379
546.1323494846379
545.9979403688471
545.8334507542793
545.639815318558
545.4180216613773
545.1691121018213
544.8941894735967
544.5944209056604
544.2710532213898
543.9253562351568
543.5586222542812
543.172180180453
542.7674046324101
542.3457164203937
541.9085615536517
541.4574053953909
540.9937174681316
540.5190043069891
540.034798682583
539.5426181861717
539.0440048242882
538.5405099898173
538.0336619225076
537.5249700234498
537.0159287915463
536.508023979797
536.0027061772853
535.5014147233474
535.0055490864123
534.5164731980851
534.0355154619248
533.5639666359857
533.1030516817417
532.653954255787
532.2177819737864
531.7955927900119
531.3883978673169
530.9971322940055
530.6226564124731
530.2657769806729
529.9272008582965
529.6075452407132
529.3073787386297
529.0271735708418
528.7673191971886
528.5281230607677
528.3098007354014
528.1124726410541
527.9362028359602
527.7809177883056
527.6464758852519
527.5326454200992
527.4390983670902
527.36541074792
527.311087192932
527.2755578315349
527.258158301602
527.2581296761834
527.2746448734988
527.3067892506673
527.3535476891935
527.4138418743354
527.4865417306338
527.5704404150607
527.664280129342
527.7667432678327
527.8764437015491
527.9919597604098
528.1118240244839
528.2344978133681
528.3584173834057
528.4819965542343
528.6036189633624
528.7216149123326
528.8342876308275
528.9399501977533
529.0369016346635
529.1234689930416
529.1979866215617
529.2587890179993
529.3042233631435
529.332657353846
529.3424736137072
529.3320989417442
529.2999855326811
529.2446404649368
529.1646110492123
529.0584741517079
528.9248712896822
528.7624975379474
528.5701116551701
528.346530115495
528.0906558847549
527.8014682186273
527.4780346264962
527.1194941206554
526.7250729005656
526.2940867124173
525.8259431982924
525.3201331901723
524.7762654966841
524.1940405598059
523.5732880435187
522.9139460435179
522.2160448914356
521.4797301386843
520.7052613988077
519.893000157704
519.0434060260612
518.1570474812909
517.2345880434548
516.2768313006939
515.2846893082869
514.2591724952289
513.201393840498
512.112576837742
510.9940499012018
509.8472446715558
508.6736914593081
507.4749850171937
506.25283230740285
505.0090404205082
503.7454864801103
502.464148358481
501.16710028983476
499.8565000389587
498.5345849391023
497.20369023848605
495.8662089715376
494.5245892029284
493.181328999707
491.8389731515746
490.5000809034725
489.1672676267296
487.84317194706205
486.5304557866049
485.23177999534136
483.9498186354901
482.6872622538709
481.44678882465985
480.23104321146417
479.0426578469457
477.884234058358
476.75830998294293
475.6673805984891
474.6138716017283
473.600141465939
472.6284855660207
471.7011122316422
470.82010787937475
469.9874829658315
469.2051263154377
468.47480561110694
467.7981726279248
467.176731891384
466.61183556885663
466.1046715298645
465.6562603339891
465.2674569634859
464.9389571455924
464.6712714584841
464.46473339151765
464.3194969937115
464.2354999819474
464.2125040242716
464.2500592222174
464.34751961601097
464.50404195996106
464.71856783790474
464.98985233637626
465.31646345851703
465.6967587078175
466.1288883315436
466.6108210031123
467.14036429778423
467.7151517216164
468.3326371701413
468.99012078044234
469.6847185027574
470.4133952638185
471.17298770702297
471.9602170264456
472.7716829627789
473.60389133826754
474.45324706846145
475.31611344764787
476.18878515052006
477.06749911530363
477.9484786366585
478.82795417879186
479.702183081717
480.56743742973987
481.42001403784843
482.2562526304404
483.0725820391377
483.8655074828189
484.6316347817999
485.3676762409856
486.07048605936393
486.73708400441984
487.364663676318
487.95056935652366
488.49233691583765
488.9876761556811
489.4344972545796
489.83092675606485
490.17533063311174
490.4662833965833
490.70260346445303
490.8833673590693
491.0078965060559
491.0757935580053
491.0869079673708
491.04135981793746
490.9395238976157
490.7820306114494
490.5697770996793
490.3039096718275
489.9858433119571
489.6172418194012
489.2000290609672
488.7363544510121
488.2285664752963
487.67921606666164
487.0910216499689
486.4668716339289
485.80980994475186
485.1230092179344
484.40974859454496
483.6734245975031
482.9175478233214
482.1457283527688
481.36164119837525
480.5690463956985
479.7717282542372
478.9734979344512
478.1781699030116
477.38956060340354
476.61143694502647
475.84750167319635
475.1014004340134
474.3767118681348
473.6769188067767
473.00538449408805
472.36537321850267
471.76001947448833
471.19232256365615
470.6651205214049
470.18106244227215
469.7426292956685
469.3521340692094
469.01168159793946
468.7231881222323
468.48836687886563
468.3087190866342
468.18556107921984
468.1200004371842
468.11293980368566
468.1650842835735
468.27696342995154
468.4488692304605
468.6809042370267
468.9729911709982
469.3248396852021
469.73597943887336
470.2057474117355
470.73333010036254
471.317738613315
471.9578278903541
472.65231180159464
473.39976302542226
474.19862399315593
475.04722480292696
475.94379928427446
476.88649039662107
477.87334927191506
478.902362795197
479.97143984808764
481.07843457383996
482.221173890826
483.3974438540054
484.60500423481903
485.84159602197855
487.10495299168304
488.39280632295157
489.7028886408894
491.03292592125047
492.38067201876044
493.7439253679939
495.1205191759715
496.50831531489683
497.9052080577914
499.30913579661
500.71808799940266
502.1301159013584
503.54331176911546
504.9558534019706
506.3659811069801
507.7720078565014
509.172291898874
510.5652389861657
511.9493081466394
513.3230216329819
514.684957108439
516.0337615989788
517.3681657808279
518.6869640008201
519.988990177786
521.2731594195404
522.5384489767582
523.7838926493449
525.0085645058159
526.2115732246932
527.3920710075433
528.5492423173881
529.6823142142102
530.7905489009082
531.8732312456733
532.9296929245785
533.959279314821
534.9613617717426
535.9353340670406
536.8806107679312
537.796629966586
538.6828715666164
539.5388566821633
540.364128117223
541.1582509286131
541.9208310510129
542.6515194825846
543.3499933020868
544.0159501893526
544.6491095112531
545.249220095774
545.8160504019007
546.3494005378126
546.8490947252624
547.3150065889398
547.7470387242163
548.1451420445796
548.5093137249959
548.8395953532171
549.136060086045
549.3988324546207
549.6280908313389
549.8240413609021
549.9869392280854
550.1170963366328
550.2148847328033
550.2807491905991
550.3151805744805
550.3187282954422
550.2920126767139
550.235700088709
550.1505149000409
550.0372422541295
549.8967193382865
549.7298305126012
549.5375216645891
549.3207944051302
549.0806776651082
548.8182666415604
548.5347024900572
548.2311733127601
547.9089217171979
547.5692506398858
547.2135010361025
546.8430337190954
546.4592610573957
546.0636307307634
545.6576163054424
545.2427032116925
544.820409378176
544.3922731136947
543.9598366984321
543.5246404757524
543.0882274654331
542.6521103340768
542.217820974299
541.7868659825754
541.3607212628651
540.9408524904508
540.5286962540961
540.1256587707223
539.7331147291809
539.35239990972
538.9848130076866
538.6316047510419
538.2939738241121
537.973049726884
537.6698909324724
537.3854895598242
537.1207673629141
536.8765787163144
536.6537099238789
536.4528657711078
536.274656421017
536.1195797030351
535.9880553482235
535.880415806437
535.7969043741905
535.7376650835643
535.7027481852139
535.6921204463563
535.7056585937369
535.7431412284999
535.8042276383057
535.888493277332
535.9954154540677
536.1243659145927
536.274616287341
536.4453324646196
536.6356042027753
536.8444424994101
537.0707666138967
537.3134199023431
537.5711773583207
537.842745093899
538.12676050044
538.421779454777
538.7263028704057
539.0387662514303
539.3575511571479
539.6809989165116
540.0074116544306
540.3350469252289
540.6621340761324
540.9868732833726
541.3074545318179
541.6220526077263
541.9288285624965
542.2259442361188
542.5115725099374
542.7839033627364
543.0411436185709
543.2815144939161
543.5032663682139
543.7046912153469
543.8841106951785
544.0398901542799
544.170428291048
544.2741811874471
544.3496463434069
544.3954031549318
544.4100897223364
544.3924277420748
544.3412366819664
544.2554155912583
544.1339445459134
543.9758858782717
543.7803763333112
543.5466515702101
543.274044132498
542.9619856160173
542.6100198999118
542.2178058178852
541.7851069960886
541.3117904588968
540.7978449181489
540.243375066222
539.6485936819481
539.0138356484646
538.339545686379
537.6262854382837
536.8747180219844
536.0856181674116
535.2598727561754
534.3984720797729
533.5025181357083
532.5732033303761
531.6118251267274
530.6197889376722
529.5985996938928
528.5498482304694
527.4752294072947
526.3765468219761
525.2556981049225
524.1146712866031
522.9555699513586
521.7805665505051
520.5919215834037
519.3919682280062
518.1830947757013
516.9677463399892
515.7484196250124
514.52764637176
513.3080003844367
512.0920800494563
510.88251229298925
509.6819429231931
508.49303772548245
507.3184793006475
506.1609487189765
505.0231027007935
503.9075765810082
502.81698459141484
501.7538893436243
500.72082602144036
499.72028530062437
498.75468318351255
497.82636761821465
496.93759889544936
496.0905520549843
495.2873039609089
494.52981593768453
493.81992932194714
493.15936547642053
492.54971315957135
491.99240504262013
491.48873797220966
491.0398479671688
490.64670538585904
490.31011922490467
490.0307179261003
489.80894591764286
489.64506300209166
489.5391378788969
489.4910312142196
489.50040319799695
489.56671951065255
489.68924523277406
489.86704183928316
490.09898037880134
490.3837252097338
490.7197360463536
491.1052751021192
491.5384107868581
492.01701776490637
492.538797592014
493.101271992201
493.7017923758631
494.3375480362897
495.0055730110347
495.7027601916825
496.4258652039445
497.1715286699998
497.93628857705806
498.7165827193102
499.50877136148557
500.30914736490763
501.1139492955587
501.91940382189534
502.72172306533923
503.5171401946723
504.3018757616723
505.0721936515213
505.8243912024989
506.5548194520386
507.2599070856635
507.936170756565
508.5802488345727
509.1889261222326
509.75912557687184
510.28792546987324
510.77256220398954
511.2104491668359
511.5991939066583
511.9366074448055
512.2207233554633
512.449787061284
512.622265299976
512.7368691287846
512.7925537013763
512.7885388613003
512.7242916753454
512.5995495831138
512.4143143743113
512.168834487845
511.86365002936634
511.49957219295794
511.0776848525243
510.5993308082141
510.0660956157498
509.4798195504139
508.84258305113946
508.1566740103498
507.424569006758
506.64893696500855
505.8326281807876
504.97863979685167
504.0901144512751
503.1703328451646
502.22270726549766
501.25077225434865
500.25815951596763
499.248583287664
498.22583639250865
497.1937600938448
496.156242561711
495.11718703885754
494.08048676146115
493.0500019647908
492.02954747283576
491.0228823038674
490.03370852536773
489.0656446166408
488.1221970686756
487.206776268725
486.3226629301929
485.47299725313866
484.6607733402938
483.8888190507449
483.1598096870141
482.47624590626583
481.84043951762953
481.25452441999954
480.72042937516835
480.23987809434425
479.81440772109204
479.4453494007443
479.1338230750457
478.8807660654162
478.68689541444525
478.55272140534936
478.4785570809487
478.4645154166107
478.510529156804
478.6163387164088
478.7815094054936
479.0054405317695
479.2873641383154
479.6263663364129
480.02137871560535
480.47117657154047
480.9744186515396
481.52964347608514
482.1352792594282
482.78966060648736
483.4910235348287
484.23752003769476
485.0272345279598
485.8581958879988
486.7283807921315
487.6357322651488
488.5781495187736
489.5535101298735
490.5596719535195
491.5944854543032
492.65582098613163
493.7415433042609
494.84953143159373
495.9776934754217
497.1239545350608
498.28626555826656
499.4626024407868
500.6510084019973
501.8495596321953
503.056391840935
504.26968929856423
505.4876844621582
506.70867466361835
507.9310077437973
509.15308026448844
510.3733550382015
511.5903567356957
512.8026851929261
514.0089984826366
515.2079915664375
516.398424740952
517.5791058227405
518.7489074366044
519.9067582627567
521.051643020347
522.1825980782813
523.2986939076137
524.3990610748293
525.4828592411635
526.5492852411516
527.597591844078
528.6270427987123
529.6369328289077
530.6265610639341
531.5952517433269
532.5423677929533
533.4672873714527
534.3694066170985
535.2481511677929
536.1029751449031
536.9333607504495
537.7388095995551
538.5188478403827
539.2730362866232
540.0009461584553
540.7021723128497
541.3763247168806
542.0230377695439
542.641966817921
543.232780448408
543.7951637462643
544.3288169852407
544.8334607122611
545.3088497382467
545.754774480223
546.1710605751339
546.5575599885968
546.9141574740395
547.2407748172172
547.5373775308719
547.8039531641103
548.040530836998
548.2471853081901
548.4240389466155
548.5712506163874
548.689019519589
548.7775842038068
548.8372411456409
548.8683127455945
548.8711871561042
548.846303439629
548.7941321776973
548.7152015533596
548.6100773118967
548.4793551741129
548.3237097524568
548.1438652584472
547.9405882984604
547.7146827241012
547.4669839579155
547.1983768661968
546.9097895934243
546.60217852759
546.2765260324957
545.9338420008397
545.5751694783606
545.2015970961158
544.8142256577191
544.4141761074358
544.0025908029214
543.5806171610634
543.1494240583753
542.7101854609544
542.2640748571915
541.8122593678775
541.3559067724257
540.8961683672634
540.4341946027525
539.9711223990864
539.5080648348586
539.0461183394799
538.5863390223818
538.1297649780225
537.6774017383833
537.2302122599566
536.7891244401457
536.3550169472205
535.9287249027645
535.5110170018154
535.1026163356388
534.7041863639332
534.3163302819601
533.9395951442916
533.5744608702885
533.221342538259
532.8805798757436
532.5524442907806
532.2371284471762
531.9347402702074
531.6453122779942
531.368822412907
531.1051651665229
530.8541646485689
530.615563968908
530.3890345964645
530.174163981156
529.9704607746303
529.7773712841424
529.594254647396
529.4204107063338
529.255077684464
529.0974104529698
528.9465114314878
528.8014136213362
528.6611232670699
528.5245823123779
528.3906680962168
528.2582147162946
528.1260148749293
527.9928152722566
527.8573317368038
527.718242504947
527.5742055757476
527.4238675506108
527.2658464334821
527.0987582842388
526.9212088900001
526.7318050798241
526.5291595028203
526.3118888947203
526.0786233129263
525.8280197533221
525.5587517828277
525.2695187767281
524.9590394366899
524.6260732258639
524.2694086340592
523.8878884100038
523.4804040094853
523.0458943397279
522.5833573792149
522.0918596840144
521.5705307344336
521.0185636890396
520.435211545532
519.8198137567107
519.1717900959796
518.4906457768014
517.7759679882496
517.0274467729852
516.2448414987466
515.4280104939936
514.5769188894566
513.6916271275221
512.7722972640186
511.8191840797553
510.8326210342085
509.813029288205
508.7609281429462
507.676958105976
506.5618492741947
505.4164219699922
504.2415950272836
503.03838467324675
501.80790737748316
500.5513623937862
499.2700396273693
497.9653133227824
496.6386525685419
495.2916205846946
493.92587821544583
492.5431877035131
491.1453907475958
489.73440650517585
488.31222743440145
486.8809107139908
485.44257377485394
483.99940054035255
482.5536147522081
481.1074856617599
479.6633443495286
478.22354985432315
476.79050118268066
475.366614104792
473.9543283350208
472.5560992651527
471.1743830219745
469.811632278164
468.47028738215596
467.15277810592704
465.86149676255286
464.5988058309534
463.3670409410438
462.1684878743093
461.0053661903234
459.87983215441295
458.7939794306411
457.7498071029011
456.74922692228665
455.79405741614863
454.8860160419204
454.02670052772686
453.21759439849814
452.4600465568476
451.7552839829188
451.1043898667437
450.50829977240727
449.96780040958765
449.48352001032293
449.0559324717915
448.6853359155996
448.3718577577274
448.1154625478846
447.9159365468831
447.77289272284355
447.6857521283859
447.6537629355152
447.67600502867487
447.75138454131843
447.878635846145
448.05632449069
448.2828487946079
448.5564531868844
448.8752227502088
449.2370872121375
449.6398410379798
450.08114256885693
450.5585204853286
451.0693852437374
451.61103228738807
452.1806589854347
452.77538219308815
453.39223889736087
454.0282116309519
454.6802415714683
455.34524912865396
456.0201246877177
456.7017614227442
457.3870490389943
458.072898115352
458.75625571488
459.43410997257587
460.10350960847944
460.76158298619936
461.40555023243996
462.0327416691044
462.6405893642838
463.2266415465711
463.78858224096757
464.32423653633674
464.8315788344784
465.30875744871014
465.75408298281087
466.16603254231603
466.54325663775614
466.8846130304177
467.18916485337746
467.4561849223669
467.6851705737994
467.87582768558605
468.02805400804976
468.14197432261426
468.2179295929159
468.2564659495197
468.2583386890128
468.22451391622985
468.1561725547425
468.05469496858166
467.92163896912535
467.75872817529216
467.5678370759715
467.35097013819615
467.1102477180952
466.847922962594
466.56636472739785
466.2680505820964
465.95556126390244
465.63156371399185
465.29879140905115
464.9600484976973
464.61818329665476
464.27605044157565
463.9365337382471
463.602505436992
463.27682493922515
462.962313308978
462.66175168656144
462.37786676172817
462.11334089377976
461.8707794909447
461.6526902837828
461.4614982946352
461.299513541042
461.16890589693884
461.0717262615922
461.009904676961
460.9852235084631
460.9993111910004
461.0536522123644
461.149574145055
461.2882422009015
461.4706568221592
461.6976609056721
461.9699195448636
462.2879465564327
462.6520836362118
463.062513166034
463.51926098107924
464.0221977670324
464.57103233947356
465.1653272488884
465.8045149902733
466.4878865816302
467.2145981169491
467.9836775976965
468.79404736159006
469.6445207880321
470.5338126646798
471.4605409422571
472.42323728399964
473.42035328330763
474.45027328986265
475.5113272314338
476.60178369115914
477.7198734148466
478.86379079091483
480.0316973727657
481.22174032625225
482.43206412737885
483.6608025398068
484.90609220496884
486.16608145542335
487.4389255181437
488.72280298469923
490.01592079959636
491.3165100266147
492.6228274852673
493.93317641238116
495.24589386884116
496.5593705147687
497.8720393450351
499.182383702315
500.4889405509491
501.7903100567949
503.08513215203084
504.372099867013
505.6499612176514
506.9175254371914
508.1736627960762
509.41729571363516
510.647405174121
511.86301967834453
513.0632303938949
514.2471802000284
515.4140618436118
516.5631271604589
517.6936632713247
518.805003488576
519.8965227653083
520.9676240530273
522.0177483331795
523.0463779309005
524.0530242938812
525.0372241795012
525.9985464560093
526.9365789478138
527.8509257592259
528.7412061188019
529.6070462235207
530.448103688941
531.2640594861859
532.054617066137
532.8195064061687
533.5584887777557
534.2713314316494
534.9578284557558
535.6177914038682
536.2510469158138
536.8574324070527
537.4367963220658
537.9889983569791
538.5139118689275
539.0114376023677
539.4814825711401
539.9239739955409
540.3388669088583
540.726147757721
541.0858252862379
541.4179347553938
541.7225135268005
541.999626523205
542.2493786078475
542.4718964737997
542.6673367776436
542.8358988876521
542.9778004803915
543.0932876428839
543.1826402983351
543.2461798181664
543.2842547042594
543.2972501392167
543.2855863511049
543.2497212094805
543.1901415882029
543.1073918264992
543.0020322784483
542.8746609656065
542.7259085289066
542.5564439200531
542.3669646237634
542.1582152646586
541.9309734333978
541.686037586984
541.4242387516822
541.1464389816903
540.8535320371149
540.5464241537377
540.2260516400465
539.8933787124073
539.5493845179775
539.1950610271199
538.8314194117754
538.4594876087486
538.080296883192
537.6949011543226
537.3043526618309
536.9097060821912
536.5120204231123
536.1123498551082
535.711727717879
535.3111852812904
534.9117442066905
534.5144090716149
534.1201752342262
533.7300105289914
533.3448586907243
532.9656339868502
532.5932247212429
532.2284813558083
531.8722244171153
531.5252262540254
531.1882212079706
530.8618961736031
530.5468921922509
530.2437840727898
529.9531059746549
529.6753400711277
529.4109098733785
529.1601803640968
528.9234452115975
528.7009381218577
528.4928202055597
528.2991982166983
528.1200992340717
527.955478321397
527.805235206574
527.6691963792134
527.5471106998166
527.4386581815963
527.3434457453741
527.2610142671796
527.1908350441477
527.132306523351
527.084757711749
527.0474561796419
527.0195988278017
527.0003291754019
526.9887266180217
526.9838068367776
526.9845420569977
526.9898421275562
526.9985685148349
527.0095375918188
527.0215263392221
527.0332650828701
527.0434566864438
527.050765151464
527.0538260191018
527.0512545870606
527.0416456056112
527.02358854873
526.9956611959564
526.9564365120582
526.904496092333
526.8384219595566
526.7568126403095
526.6582794462125
526.541444819304
526.4049535617858
526.2474706747618
526.0676965644794
525.8643601139521
525.6362330574414
525.3821221715689
525.1008853511997
524.791425498621
524.4527215218703
524.0838048245225
523.6837709213572
523.2517754941531
522.787063205961
522.2889553205817
521.7568530576779
521.1902367462458
520.5886716239131
519.9517871771579
519.2793284918688
518.5711379636234
517.8271637564808
517.047435764687
516.232080862432
515.3813112924431
514.4954320227336
513.5748453697679
512.6200550511694
511.63166745077064
510.61038588377903
509.5570175132955
508.47245553076544
507.35768652445574
506.2137992085202
505.04197311312424
503.8434774973203
502.6196781224849
501.37203927226625
500.1021101900617
498.81153099988205
497.5020386771788
496.1754535378322
494.83366590148967
493.4786446808408
492.1124262042006
490.737109456659
489.3548556845342
487.9678725617855
486.5784244831718
485.1888077716744
483.80136509382726
482.4184647524104
481.0424973303217
479.67586762669106
478.3209951342406
476.9802946420051
475.6561871165582
474.3510797818378
473.0673681414547
471.80741597573467
470.5735524391825
469.3680601446447
468.193160839173
467.0510314331741
465.94378498747994
464.87346508274743
463.8420249226141
462.85133477390616
461.903174376502
460.999208027616
460.14098589146573
459.32994994390805
458.56741400985686
457.85456382649824
457.19244439830203
456.58195650687827
456.0238536567588
455.5187351128595
455.067041522611
454.66905543571914
454.32489361750305
454.0345131540596
453.7977097364339
453.61410137876624
453.48313458273617
453.40408884580086
453.3760818592057
453.3980558598079
453.4688063025489
453.58696553798796
453.75101150828533
453.95927495848105
454.20992765684497
454.5010105914187
454.8304299310946
455.1959690688008
455.5952992755962
456.02597338248637
456.4854572144224
456.9711223719252
457.48026571968364
458.01012288029085
458.5578714717904
459.1206632866497
459.69562878727515
460.2798977872038
460.8705790476606
461.46481436223377
462.05976069710124
462.6526293787557
463.2406593614036
463.8211578343061
464.3915162184056
464.9492170521958
465.49182916194826
466.01702132269605
466.5225790610159
467.006426747457
467.46662683699816
467.9014024018198
468.3091124453977
468.688267014103
469.0375273518494
469.35574623107476
469.64196162906836
469.89540958421213
470.11552138575604
470.3019337125492
470.4544723281678
470.5731528492765
470.6581876209628
470.70998357145356
470.72915099299547
470.716479568538
470.6729381301335
470.59970258709075
470.498122944553
470.36970126386416
470.2160840589547
470.03905139756586
469.8405113841616
469.62247354588254
469.38705564137086
469.13648711203564
468.8730900439606
468.5992616677773
468.31747356991247
468.0302528584302
467.7401652185955
467.4497996010143
467.1617677536511
466.87867944022224
466.60314592146744
466.3377574582361
466.0850764599097
465.8476222094681
465.6278693354576
465.42821621140666
465.2509800522327
465.09839685535206
464.97260676401396
464.87563804663847
464.80941581076627
464.77576532494993
464.77637728367824
464.8127957843125
464.88643523291466
464.9985740126062
465.15034260893543
465.3427212480257
465.5765448941657
465.8525047497802
466.17114181317584
466.5328433615995
466.93785093673347
467.38626239977543
467.87803478647004
468.4129878296467
468.99081905552515
469.6110890472641
470.27322915086404
470.97654931158
471.72024391372236
472.50339786785577
473.3250018010706
474.1839546260597
475.07906637544454
476.0090610099699
476.97260342198564
477.96827620139396
478.9946153155839
480.0501065005528
481.13318389033225
482.2422591873243
483.3757070449456
484.5318785777249
485.7091167074922
486.905753866501
488.1201161406094
489.3505247236862
490.5953186723522
491.8528401089151
493.1214560869123
494.39956483439664
495.6855754647573
496.9779197643114
498.2750586981079
499.5754973438687
500.8777644361522
502.1804329421932
503.4821051890775
504.7814414076572
506.07714686820475
507.36796326826874
508.6526708068666
509.9300944556923
511.1991146559201
512.4586652217483
513.7077051673533
514.9452428720625
516.1703273549864
517.3820551434559
518.5795643503428
519.7620377523866
520.9286970304041
522.0788034942674
523.2116390918287
524.3265132521051
525.4227603528041
526.4997499761155
527.5568708979324
528.5935388076601
529.6091926188625
530.603288277802
531.575309908521
532.5247656674285
533.451159044793
534.3540098796675
535.2328578792401
536.0872641735529
536.9168197733458
537.7211349416169
538.4998511665074
539.2526318496334
539.9791445634341
540.6790805501403
541.3521526120813
541.9980823591188
542.6166136875056
543.2075222350019
543.7706079638479
544.3056968645225
544.8126363564553
545.2912884565673
545.7415446274067
546.1633230650489
546.5565703492296
546.9212542730627
547.2573805669797
547.564985678072
547.8441359852085
548.0949398631735
548.3175490245386
548.5121402391032
548.6789096540522
548.8180993553142
548.9300044040933
549.014956022149
549.0733199623951
549.1054925651641
549.1119227479145
549.0930924044808
549.0495208047496
548.9817620709676
548.890415674538
548.7761083867824
548.6395109378872
548.4813326991178
548.3023142793271
548.1032109788854
547.8848238899253
547.64799391062
547.3935807033089
547.1224720500877
546.8355841278291
546.5338551402872
546.218245484967
545.8897444072643
545.5493614646193
545.1981048924785
544.8370121662273
544.4671147659049
544.0894530057533
543.7050819566559
543.3150533467483
542.9204259018786
542.5222538572958
542.1215796518486
541.719439509998
541.3168648078271
540.9148771386664
540.5144811634652
540.1166663427097
539.7223933924624
539.3325870050448
538.9481569202102
538.5699886291342
538.198923363002
537.8357751637699
537.4813130460179
537.136276086376
536.8013536768211
536.4771788895819
536.164341180807
535.8633729424607
535.574762519764
535.298938955978
535.03627427052
534.7870703106657
534.5515830408269
534.3299946218735
534.1224314454496
533.9289517515069
533.7495555436861
533.5841751909339
533.4326661672806
533.2948085787643
533.1703263442271
533.0588762484864
532.960043919269
532.873337684856
532.7982176604554
532.7340706606082
532.6802138343752
532.6359005250597
532.6003175172968
532.5725933139083
532.5517957617388
532.5369387167412
532.5269801931412
532.5208338721501
532.5173522973189
532.5153452004765
532.5135825782457
532.5107892215984
532.5056658435074
532.496877621965
532.4830603698954
532.4628269163292
532.4347669247791
532.3974443613524
532.3494167107276
532.2892279349502
532.2154321885995
532.1265894441584
532.0212614505443
531.8980184988418
531.7554482252783
531.5921645415183
531.4067991194421
531.198025683628
530.9645450411749
530.7050764304674
530.4183721785258
530.1032340162308
529.7585250113835
529.3831508422699
528.9760735408709
528.5363074104885
528.0629366765919
527.5551267557308
527.0120962574492
526.4331522891796
525.81767344275
525.1651213606598
524.4750456774658
523.7470893005653
522.9809676842921
522.1764915269764
521.3335785553544
520.4522528723685
519.532627119945
518.5748974700764
517.579368977635
516.5464369378628
515.4765851438688
514.3703963977393
513.2285667429144
512.0518754974776
510.8411961775325
509.59751554507955
508.3219061318886
507.01554850148
505.67971154362976
504.3157451346115
502.9250981196546
501.5093182273169
500.0700453665704
498.60901149730137
497.12803381227604
495.62901884692974
494.11395142611843
492.5848792587361
491.04392353791735
489.49326316463157
487.9351495623838
486.3718710680213
484.80576942244943
483.2392364529487
481.6746954707733
480.11461099697715
478.56145681286426
477.0177318542797
475.4859497791034
473.9686195370576
472.4682541139505
470.9873528321731
469.52839881043246
468.09384307699105
466.68610809515326
465.3075757844717
463.960582155633
462.64739652430615
461.37022885811604
460.131210850662
458.93239671142004
457.77575318430456
456.6631519674238
455.5963555789201
454.57701640305265
453.6066650896112
452.6867080392471
451.8184052243148
451.0028874545303
450.24113922842025
449.53400180112016
448.88216154331656
448.2861410750078
447.7462996671463
447.2628254347985
446.8357477387849
446.4649152679291
446.1500055082228
445.8905305107889
445.6858149058138
445.5350205622054
445.4371347609857
445.3909744973279
445.3951959255479
445.44829820722435
445.54861519886987
445.69433853780606
445.88350862348307
446.1140326599602
446.3836705268667
446.6900626047741
447.030742997721
447.40313837863374
447.8045827671847
448.2323197208879
448.6835225888044
449.1553019649804
449.64472024298675
450.14882670657994
450.664658519947
451.1892446749269
451.7196123588717
452.252813055428
452.78592676295517
453.3160836130736
453.8404677291152
454.3563270330463
454.86099559700466
455.3519020138003
455.8265922988241
456.2827303915318
456.718095413048
457.1305994058844
457.51831481564767
457.8794592528402
458.2123917804017
458.51563578476123
458.7878893838571
459.02805021139733
459.2352089726692
459.4086602073295
459.54790640936164
459.6526553913041
459.72279309433185
459.7584105278555
459.75981068280026
459.7274912419618
459.66214253924323
459.5646408181854
459.43606086261406
459.27767127496213
459.09090786902334
458.8773485550929
458.63871991648034
458.37687632496556
458.0937930393842
457.79155336898117
457.47234975773904
457.13848184512125
456.79233202062835
456.43636885088625
456.07311060835684
455.70514745699046
455.3350934526976
454.9655863477157
454.5992651706623
454.2387605661051
453.88669811156
453.54567568745904
453.21825433652225
452.9069408824543
452.6141775681547
452.34233208844176
452.0936926730965
451.87045531794047
451.6747097016175
451.50842574717586
451.3734583941296
451.271538019012
451.20425521185484
451.17306825292906
451.1792874889135
451.2240781714379
451.30845544357277
451.4332780256003
451.5992491872752
451.8069207105073
452.056695592912
452.3488317055273
452.6834265881009
453.06044008934316
453.4796760562562
453.9407995658365
454.4433393409951
454.98670171617505
455.5701678190579
456.19289769671883
456.8539369686554
457.5522371020361
458.2866343695915
459.0558880893529
459.8586665177463
460.69355906479296
461.5590928561436
462.4537273895723
463.37587094574116
464.32389921228224
465.2961455927304
466.2909176047668
467.3065065065602
468.3411904573046
469.3932309253511
470.4608858292077
471.5424243582587
472.63611738250916
473.7402602046392
474.85317302493496
475.97319659495093
477.09871366511
478.22813494137597
479.3598997540085
480.49248923458185
481.6244346342321
482.75431003447665
483.8807378414221
485.0023873251237
486.1179793892255
487.22629549561196
488.3261779328772
489.416503851766
490.4961981411031
491.5642392832167
492.61965877404543
493.6615494669309
494.68904335695436
495.70132439651707
496.69764154166427
497.6772894692188
498.6396135650389
499.5839885265922
500.5098206128704
501.4165537548545
502.303662219011
503.17064070503125
504.0170247816101
504.8423806267962
505.64629005144013
506.42835254862933
507.1881892573538
507.92544451269276
508.6397739841345
509.3308390759486
509.9983120414827
510.6418921820435
511.2612962549271
511.8562582668315
512.4265364387451
512.9719054400111
513.4921513230515
513.987066701313
514.4564636528984
514.9001562946673
515.3179786942126
515.709756901346
516.0753421903058
516.4145942612789
516.7273998634045
517.0136633784952
517.2733019776401
517.5062495207336
517.7124538770603
517.8918895903131
518.0445553521644
518.1704671711974
518.26966011417
518.3421963297892
518.3881620975388
518.407677966475
518.4008956770193
518.3679885261406
518.3091634684688
518.2246509959646
518.1147254027532
517.9796922797218
517.8198957447656
517.635716964384
517.4275749068541
517.195922665517
516.9412436305397
516.6640494511587
516.3648952047417
516.0443681135439
515.7030959031102
515.3417464582441
514.9610187270548
514.5616399909014
514.1443759652699
513.7100144987095
513.2593818939366
512.7933217881439
512.3127176435365
511.8184757564178
511.31153004486043
510.7928446963222
510.26339707332636
509.72418891373724
509.17623769352537
508.62056774514065
508.0582273869858
507.4902666757097
506.9177302322629
506.34168468447376
505.7632114083216
505.1833931626657
504.6033051664268
504.0240237057917
503.44661722630246
502.87213513712834
502.30161835763045
501.7360833848168
501.1765236495337
500.6239130050889
500.07920484439535
499.5433180539357
499.0171448703427
498.501541316965
497.9973264855577
497.5052752598846
497.0261151840264
496.56052310807615
496.10914180540203
495.67255764553863
495.25130019799434
494.8458528390421
494.45662857422184
494.083991988633
493.72823996905555
493.38959779752844
493.0682261522674
492.76420854370224
492.47756509050123
492.20825346017415
491.95615046788123
491.7210688396481
491.5027481348917
491.30085698162134
491.11498450560697
490.9446428900777
490.78928316116816
490.648285169536
490.5209566796732
490.40653257154145
490.30418087035605
490.2130090427905
490.1320508202604
490.06027710787976
489.99661362098203
489.93991521982275
489.88898629306084
489.84258587237355
489.7994266181706
489.7581674178206
489.71743225477604
489.67580735050876
489.6318627096082
489.5841215272584
489.5310951947266
489.47127016522086
489.4031211992661
489.3251115886988
489.2357000308995
489.13334538158927
489.01650702841397
488.88364946647084
488.73326214180713
488.56386201928143
488.37397890208103
488.1621778822638
487.9270421779813
487.66718610236774
487.3812764122137
487.06802745383123
486.7262029028315
486.3546106025899
485.952118823619
485.51765478698997
485.0502117835403
484.5488496028942
484.01270143110673
483.440985162512
482.833008374508
482.1881648218585
481.50592891387123
480.78586553248965
480.0276244194151
479.23095424888135
478.39571024532967
477.5218488505422
476.60943367864127
475.65861753116974
474.66965475414776
473.6428933502937
472.57877730906864
471.47785256721744
470.34077224409504
469.1682971378608
467.9612806027244
466.7206766994759
465.4475519801393
464.1430551547778
462.8084386094122
461.44505538154505
460.0543445019
458.6378329688695
457.1971415914062
455.7339906838703
454.25019060708786
452.7476368102946
451.22831386603076
449.6942691387897
448.1476191182658
446.5905402170825
445.02527688853365
443.4541189704244
441.87940737156555
440.303519865662
438.72887637702144
437.15793109437055
435.5931712642087
434.0370919522216
432.4922011465166
430.96100475792565
429.4460155018281
427.94973333263835
426.4746256116122
425.0231439908514
423.5977016226543
422.20067875497415
420.8344065293861
419.5011573165459
418.2031481455848
416.94252231366477
415.72133308696897
414.541555740057
413.40506019850966
412.3136231376727
411.2689030970984
410.27244861033023
409.32569577673365
408.4299421331153
407.5863558318248
406.7959568058579
406.0596223616598
405.3780822714885
404.7519100048254
404.1815299141812
403.66720549168144
403.20902149796245
402.8069169174459
402.46065752130426
402.16983746039506
401.9338879231038
401.75207789992703
401.6235135768686
401.54713626473773
401.52171866947884
401.545896897393
401.6181443127162
401.73679634111767
401.90004098358565
402.10593629285563
402.3524131805304
402.6372855184231
402.9582587654534
403.3129458527183
403.6988574372612
404.11341652315264
404.55398449128455
405.017865885321
405.5023358276826
406.00463995893534
406.5219971008141
407.05161962559924
407.59072320055765
408.13654550971177
408.68634964582
409.23744046949105
409.78717409331983
410.3329778883625
410.87236130962026
411.4029239869565
411.92235205915426
412.42843519448206
412.91908675993244
413.3923410914575
413.84637142855735
414.27949345751387
414.69016306307003
415.0769812614721
415.4387107816315
415.77429603070675
416.08287167220135
416.3637623110557
416.6164822094158
416.84073263653596
417.0363899980421
417.2035109213925
417.34235458099283
417.45337010404546
417.5371686226192
417.5945519159749
417.6264949683022
417.63414596452213
417.6188063708695
417.5819236246302
417.52507635729614
417.4499583842
417.358374407044
417.252229941101
417.13351771549156
417.0043336697051
416.8668639229727
416.72336723074767
416.57614830304993
416.42755892725626
416.2799811882131
416.13582136139166
415.9974883013781
415.8673869265006
415.7478962803265
415.641380557809
415.55016114343454
415.4765131542259
415.42264485574236
415.39069071336297
415.3827204935001
415.40070541495794
415.4465156098884
415.5219159415963
415.62855824870593
415.7679789706124
415.94158450392416
416.1506526823057
416.3963330715874
416.67963508465994
417.00142573711935
417.36243032008707
417.7632360750235
418.20429025070194
418.6858922747426
419.20819538319654
419.7712087331856
420.3748153352039
421.0187688782673
421.70269129427464
422.426079630006
423.1883045396142
423.9886243774113
424.8261975966354
425.70007148450907
426.60920616507286
427.5524662510767
428.52863231491955
429.5364123449395
430.57444458933446
431.6413114833319
432.7355450238448
433.8556233502147
434.9999956335849
436.16706969572175
437.3552322798015
438.5628515623381
439.7882837470336
441.0298881285022
442.28602667170935
443.55505891349634
444.83535826143793
446.12531689304035
447.42336110706043
448.7279357787976
450.0375123454299
451.3505873334839
452.6657000024184
453.9814231936824
455.2963800817785
456.6092299839789
457.91868225092514
459.2234901568746
460.5224599028836
461.8144418780785
463.0983304022558
464.3730631209256
465.6376356439415
466.8910879515627
468.1325016917509
469.36101930257155
470.5758327954945
471.7761751193513
472.96132261541896
474.1306019621346
475.28338198021146
476.4190676124133
477.53708922301263
478.6369045738041
479.71800482049554
480.77990060143605
481.822129724825
482.8442579911504
483.8458686456954
484.82655349957304
485.78593670039044
486.7236480573307
487.6393332267384
488.53264390430803
489.4032476306151
490.25082680023297
491.0750845468495
491.8757380813248
492.6525213332716
493.40518583077534
494.1335087931052
494.8372711688584
495.5162488593896
496.1702366479853
496.79904186024595
497.4024850302056
497.9804073572172
498.5326588333924
499.05910631253766
499.55963068182916
500.0341395323068
500.48254937582976
500.9047962785325
501.30083323758504
501.67064055266184
502.0142319835539
502.3316347625493
502.6229044734659
502.8881289015204
503.1274164296968
503.3409060767842
503.5287685446039
503.6912071725304
503.82846098530837
503.9407988926756
504.0285203041668
504.091968721269
504.1315190231587
504.14758652890185
504.1406162642763
504.1110830133532
504.05951090668174
503.98646684876417
503.8925431007937
503.77835701669005
503.64457002274236
503.4918737282202
503.32100452747034
503.13272538357666
502.9278249680947
502.7071252082847
502.47146889924426
502.221737851661
501.95884046316576
501.6837036216006
501.3972774947887
501.1005313288762
500.7944512943691
500.48004480567664
500.15832282282287
499.83032134839806
499.4970880300431
499.15967767814567
498.81915212869933
498.47656461704065
498.132972276893
497.7894333589363
497.4470090644109
497.10675021155987
496.7696814747578
496.4368137362073
496.10914094874227
495.7876523465543
495.4733055621562
495.16703261160893
494.8697303761127
494.5822750714218
494.305499702253
494.0402043756084
493.787142498404
493.5470244402894
493.3205234061495
493.10825970914897
492.9108004503857
492.72866581480747
492.56232916520344
492.4121932444931
492.2785924722106
492.1618083166187
492.0620630922808
491.97951188434877
491.9142389744484
491.8662564888665
491.835507464191
491.8218668731004
491.82513405172233
491.84504949971574
491.8812816087376
491.9334290731943
492.00101467483233
492.08349247580327
492.18024207163455
492.2905827265274
492.4137616467845
492.54896443016094
492.6953126879147
492.8518641575181
493.0176085454647
493.1914853548754
493.3723801360997
493.55912536217346
493.750494785972
493.9452197138558
494.14200123003593
494.3394921073893
494.5363094561646
494.73104741816445
494.9222549361474
495.1084681871938
495.2882058693689
495.45997346716115
495.6222565857667
495.77354485345126
495.91233410847934
496.0371267379585
496.14642989904956
496.23875791683804
496.3126499244957
496.3666788545297
496.39943654362605
496.4095494802558
496.39566809310065
496.35647958596013
496.29071585671915
496.19715453881554
496.0746264174908
495.9220271574327
495.73831144039167
495.52249584679845
495.2736571865416
494.9909437162799
494.67359077615936
494.3209058791726
493.9322756068299
493.5071814275669
493.04519853219824
492.54598391164177
492.00929068683774
491.4349627127519
490.82295328471855
490.1733136703164
489.48618610424825
488.76180520826597
488.0004922068091
487.202659174216
486.3688213000643
485.4996019764666
484.5957200302718
483.6579984415619
482.68735059669257
481.68480101212896
480.65144858379875
479.5884858245597
478.4971953572163
477.37895456784366
476.23524212502497
475.0676203266737
473.87774351248663
472.6673488481561
471.43825813812015
470.19237333167763
468.9316810119703
467.6582220892785
466.37409177430476
465.0814478903723
463.7825061320232
462.47953539159994
461.17483331367254
459.8707497581578
458.5696599233143
457.2739702815673
455.9861046882477
454.7084923170887
453.44357276232165
452.1937856643048
450.96156224227354
449.7493164777041
448.5594514443853
447.3943461105415
446.2563420915007
445.1477345178546
444.070769295506
443.0276380939648
442.02048213908853
441.0513656645976
440.1222691353475
439.2350931827158
438.3916384314519
437.5936160484148
436.8426323086036
436.1401822661543
435.4876481362772
434.8862871033053
434.33722370043586
433.8414511636417
433.3998243799627
433.01305539163616
432.68171595079014
432.4062341644847
432.18688738545404
432.02379782809203
431.916930923461
431.8661051773768
431.8709874357817
431.9310757038521
432.0457174609181
432.2141198171912
432.43532759729396
432.7082569674525
433.03167521135634
433.4042095957139
433.8243546429055
434.2904867564516
434.8008511866866
435.35357562923804
435.9466820517872
436.57808823081314
437.24562076126136
437.94702624309735
438.6799652562744
439.442041755119
440.23081111519804
441.04381304530074
441.8785618067214
442.7325590506989
443.6032873787947
444.4882455105844
445.3849395977127
446.29089847163027
447.2036863786992
448.1209240944134
449.0403009105461
449.9595686852541
450.87654827475825
451.7891457422709
452.69535847662576
453.5932888857525
454.4811504561097
455.3572770713626
456.22011580022723
457.06823124675867
457.9003281201369
458.71525984370857
459.51205427978607
460.2899024778926
461.0481674555151
461.78637556113233
462.50419669511547
463.2014656748411
463.8781704434725
464.53447072497227
465.17066843145477
465.7872393052108
466.3848165534829
466.9641833818548
467.52626098685766
468.072089371462
468.6028313721685
469.11975157531697
469.6242136435037
470.1176763202575
470.60168617791777
471.07786268261214
471.5479153005753
472.01361655680313
472.47678995875566
472.9393016798393
473.4030451388369
473.8699450478955
474.34192400786566
474.82091474816906
475.30884615656083
475.8076275063253
476.3191418100214
476.84523948391524
477.38773036365194
477.94836768222973
478.5288392492249
479.13075247542696
479.7556373245968
480.4049432833426
481.0800284647481
481.7821539770092
482.51247898425265
483.27204313161906
484.0617889373883
484.882552438479
485.73504599762987
486.6198701587013
487.53749978989174
488.4882925823451
489.4724915904407
490.4902197028206
491.54149441313064
492.62621925658436
493.7441912197536
494.8950998821394
496.07853581630843
497.2939862901839
498.540846585915
499.8184184622306
501.1259242206009
502.4625101870029
503.8272438531702
505.2191153348414
506.6370673277548
508.0799947005493
509.54672890482993
511.03606609185533
512.5467578985341
514.0775305034516
515.6270774179485
517.194076100607
518.777186691138
520.3750747461949
521.9863880799236
523.609774748389
525.2438939659378
526.8874225111135
528.5390433695208
530.1974646754031
531.8614164713255
533.5296536602178
535.2009473318628
536.8740907518733
538.5479003570651
540.2212426249409
541.8930016794488
543.562101151836
545.2275017316714
546.8882096677202
548.5432633605978
550.1917284461166
551.8327057660144
553.4653460351057
555.0888341916386
556.702393592905
558.3052771813906
559.8967740615639
561.4762073717663
563.0429390681787
564.5963685505806
566.1359336423537
567.6610986659621
569.1713334979987
570.6661291526286
572.1449909611534
573.6074378248314
575.0530121932649
576.4812701591514
577.891788778206
579.2841511889783
580.6579621905686
582.0128264948245
583.3483505517676
584.6641505223198
585.9598448383239
587.2350687605767
588.4894695299378
589.7227130060219
590.9344822191883
592.1244677573908
593.2923739290478
594.4379187492045
595.560816737645
596.6607946311723
597.7375941944753
598.7909622619145
599.8206650414014
600.8264829604493
601.8082190625925
602.7656857928957
603.6987091539896
604.6071306876171
605.4908116556978
606.3496304210737
607.1834795911337
607.9922739111427
608.7759558765204
609.5344948360852
610.2678861001212
610.9761453793841
611.6593249086266
612.3175056050379
612.9507958417864
613.5593323136451
614.1432739974962
614.702813175549
615.2381820877117
615.7496444219664
616.2374999871522
616.7020762662355
617.1437285337842
617.5628551043944
617.9598753534754
618.3352470391785
618.6894572906501
619.0230201340148
619.336478173603
619.6303997299691
619.9053823274382
620.1620516436867
620.4010603972533
620.6230914992105
620.8288482144922
621.0190662912613
621.1944997289737
621.3559128574519
621.5041007068863
621.6398700439015
621.7640444251291
621.8774536890758
621.98095617023
622.0754150703759
622.161698852918
622.2406681192384
622.3132126142614
622.3802251357096
622.442601903314
622.5012340863433
622.557012470938
622.6108211551287
622.6635420555062
622.7160441230519
622.7691834280811
622.8238097927558
622.8807604838186
622.940849475354
623.004876404384
623.0736158937807
623.1478154949283
623.2281955936234
623.3154470072221
623.4102308523863
623.5131806388146
623.6248934159332
623.7459275790966
623.8768028651193
624.0180047797132
624.1699783449363
624.3331153997282
624.5077703177686
624.6942429875899
624.892774808783
625.1035510448876
625.3267120216367
625.5623426427695
625.8104708575326
626.0710706589641
626.344060966488
626.6293048240988
626.9266000697028
627.2356854018965
627.5562399735633
627.8878855188441
628.2301866950611
628.5826450754075
628.9447087315208
629.3157580341399
629.6951177064904
630.0820514308195
630.4757609429447
630.8753939459252
631.2800477684284
631.6887534540978
632.1005037311077
632.5142395819739
632.9288566727382
633.3432120452821
633.7561157519061
634.1663334329202
634.5725932158568
634.9735970744701
635.3680040156311
635.7544658845616
636.131608815695
636.4980413188163
636.8523537842032
637.1931290861236
637.5189379179938
637.8283517146715
638.1199425670914
638.3922898067339
638.6439690305809
638.8735715354768
639.079710584208
639.2610213468515
639.4161587281494
639.5438057466583
639.6426705698558
639.7114964005523
639.7490623128839
639.754194854544
639.7257752254947
639.6627244575233
639.564027833306
639.4287220952446
639.25591101133
639.0447723346108
638.7945541537354
638.5045956325735
638.1743044602312
637.8031782829011
637.3907912620203
636.9367959437278
636.4409556708225
635.9031270487194
635.3232493219464
634.70135326863
634.0375453873714
633.3320306045564
632.5851124117941
631.7971991414788
630.9688009282405
630.1005262636055
629.1930891853605
628.2473073111374
627.2640838013339
626.2444189386856
625.1894056089836
624.1002349633227
622.9782081043385
621.8247170148431
620.641253616976
619.4294076913443
618.1908605806416
616.9273831964334
615.6408274577718
614.3331198865116
613.006263751516
611.6623345277532
610.3034797463249
608.9319056747692
607.5498792178453
606.1597210740323
604.7637922444159
603.3644889741057
601.9642505692219
600.5655343142663
599.1708141032426
597.7825719837364
596.4033091479496
595.0355173798276
593.6816918966113
592.3443070077365
591.0258201688388
589.7286560911442
588.4552081940354
587.2078204478073
585.9887778944938
584.8002990300631
583.6445388420625
582.5235810103942
581.4394216467059
580.3939595789772
579.3889997311842
578.4262348227542
577.5072469401989
576.6335005186185
575.8063446112595
575.0269938435448
574.2965294996234
573.6158902351128
572.9858742200646
572.4071220053406
571.8801372175826
571.4052663867993
570.9826969479684
570.6124579695196
570.2944191973081
570.0282951870493
569.8136480704657
569.6498780243099
569.5362251685038
569.4717940360068
569.4555262762111
569.486224222469
569.5625380017866
569.6829926081024
569.8459849670143
570.0497884224843
570.2925513056983
570.5723199029936
570.8870334931784
571.234546328687
571.6126282528645
572.0189766447825
572.4512354828614
572.9070152779306
573.3838810260548
573.8793800547744
574.3910418573914
574.916395778869
575.4529844412447
575.9983640698489
576.5501266361829
577.1059020035676
577.6633793576644
578.2203062463327
578.774497737799
579.323851154073
579.8663354749073
580.4000297177932
580.9231119468151
581.4338843407705
581.9307689306271
582.4122887731622
582.877093132684
583.3239902124851
583.7519489402795
584.1601184906716
584.5478066390025
584.9144887861642
585.2597949990825
585.5834966675038
585.8855275200339
586.1659823603502
586.4251200885991
586.6633602966942
586.8812821376396
587.0796167323751
587.2592351344275
587.421126875565
587.5664170807497
587.6963302687352
587.8121945323945
587.9154313626344
588.0075508151659
588.0901478470313
588.1649024076033
588.2335615498541
588.2979254837692
588.3598396008061
588.4211838013056
588.4838592509698
588.5497725861059
588.6208416963941
588.6989796304143
588.786076412878
588.8840029316112
588.9945999843279
589.1196657438925
589.2609371454739
589.420089186697
589.5987127773658
589.7983324134984
590.0203918292691
590.2662340343959
590.5370950334362
590.834117739175
591.1583472381888
591.5107229162326
591.8920605262012
592.3030610378131
592.7443049366075
593.2162560768055
593.7192573226342
594.2535466022713
594.8192410942255
595.4163373630672
596.0447161861018
596.7041433953219
597.3942754603672
598.1146720206776
598.8647891800406
599.6439972897018
600.4515750527029
601.2867126825886
602.1485306933887
603.0360727649186
603.9483141183769
604.8841655250292
605.8424794244368
606.8220692018692
607.8217067783478
608.8401223436456
609.8760148461764
610.928051322634
611.9948988869053
613.0752042118795
614.1675989853674
615.2707180789248
616.3832132406395
617.5037338885954
618.6309447932792
619.7635302537881
620.9001913589327
622.0396471536515
623.1806416317107
624.3219455960132
625.4623669428436
626.6007344486945
627.7359225766165
628.8668432047398
629.9924327668082
631.1116630019469
632.2235425026721
633.3271201607461
634.421484110433
635.5057563368877
636.5791026659623
637.640723160859
638.6898691084698
639.7258231411422
640.7478949051666
641.7554188057572
642.7477691498242
643.724364847547
644.6846593581126
645.6281240967685
646.5542511682268
647.462542460008
648.3525114932015
649.2236759898205
650.0755760946163
650.9077795376957
651.7198629638885
652.5114127015854
653.2820207592758
654.0312849460913
654.75879336361
655.4641477985579
656.1469564246163
656.8068378502836
657.4434078402165
658.0562990989525
658.6451553097811
659.2096345533919
659.7493913972145
660.2640941671837
660.753411738685
661.2170181021934
661.6546037878613
662.0658614574807
662.4504958178728
662.8082227836511
663.1387821910613
663.4419201948972
663.7173979788421
663.9649895801806
664.1844884169591
664.3757027240463
664.5384640613543
664.6726336762047
664.7780937409681
664.8547562372356
664.9025562758425
664.9214472104181
664.911419672884
664.87250311205
664.8047584904386
664.7082642290934
664.5831345345368
664.429515559491
664.2475835137358
664.0375621769713
663.79971426206
663.5343393949888
663.2417696599451
662.9223737951503
662.5765592463143
662.2047719282427
661.8074982206269
661.3852692497933
660.9386499059493
660.468238854413
659.9746683090391
659.4585947722974
658.9207114257757
658.3617405039363
657.7824408582836
657.1836046563768
656.5660519680849
655.9306384086092
655.2782342219267
654.6097402954388
653.9260777582695
653.2281928834448
652.5170619800023
651.7936699720829
651.0590150764145
650.3141221262562
649.5600208844887
648.797750359215
648.0283629664367
647.2529201364811
646.472487868849
645.6881389005238
644.9009507002784
644.1119990954733
643.3223517148438
642.5330656778478
641.7451962967501
640.9597728397794
640.1778110757675
639.4003148670319
638.6282758136708
637.8626642424002
637.1044201995585
636.3544463944437
635.6136315407431
634.8828234948337
634.1628375227659
633.4544403290614
632.7583557482919
632.0752792741612
631.4058689598096
630.7507322874909
630.110426220971
629.4854485213936
628.8762465414625
628.2831997490265
627.7066262111417
627.1467978792767
626.6039279848121
626.0781543740317
625.569544503102
625.0781047978124
624.603768379743
624.146398213211
623.7057859905324
623.2816733164427
622.873714298325
622.481495114417
622.1045340429212
621.7422820000035
621.3941212597747
621.0593512789708
620.7371985826435
620.4268398793648
620.1273731244122
619.8378303194266
619.5571860075012
619.2843418734309
619.0181487103373
618.7574001638145
618.5008333069283
618.2471314662637
617.994933716627
617.742831543026
617.4893898045187
617.233130876177
616.9725453070657
616.7060937765013
616.432198096667
616.1492715163373
615.8557120770014
615.5499005723575
615.2302203966283
614.8950578889074
614.5427919032077
614.17180505353
613.7805081074915
613.3673274806961
612.9307213477538
612.4691762662864
611.9811926998718
611.4653049202549
610.9200872329278
610.3441511259427
609.7361639950043
609.0948546080393
608.4190120438903
607.7074890689919
606.9592031665875
606.1731439983926
605.3483897652037
604.4840931694434
603.5795114102331
602.6339884646317
601.64695733404
600.6179378017113
599.5465623837446
598.4325784740658
597.2758268996353
596.0762599115144
594.833917290832
593.5489432939255
592.2215852418924
590.8521955567561
589.4412439732049
587.989320691311
586.4971171994717
584.9654480203666
583.3952259609198
581.7874693760222
580.1433019523029
578.4639494683927
576.7507445453745
575.0051352284765
573.2286715075818
571.4229982837805
569.5898677758648
567.7311344358943
565.8487459167486
563.9447254438186
562.0211866962969
560.0803136066088
558.1243532512626
556.1556260063594
554.1765226363416
552.1894707192904
550.1969488855925
548.2014767825362
546.205609325836
544.2119330252962
542.2230510377104
540.2415722426936
538.2701109360893
536.3112752457147
534.3676684718318
532.4418770857033
530.5364718787798
528.6539830700851
526.7968903388663
524.9676255369147
523.1685755401141
521.4020591751183
519.6703239114507
517.9755361062331
516.3197780209812
514.7050319116553
513.133166248958
511.6059460348073
510.1250149887005
508.69188658264744
507.3079505666985
505.9744470249394
504.69249997661905
503.4630883697137
502.28703081709716
501.1650035397444
500.09752629666576
499.08495326497876
498.1274841517564
497.22515189286963
496.37782618400075
495.585219874912
494.84688520530875
494.1622129646035
493.53043900434767
492.95063160164347
492.4217143200588
491.94246558768043
491.5115169140652
491.12737166721934
490.7883982572396
490.4928414731814
490.238830279418
490.0243751959147
489.8473833902137
489.70568086758544
489.5970026507691
489.51901168742603
489.46930926070087
489.4454458690978
489.44493472744176
489.4652878909809
489.50400739066384
489.5585945474884
489.6265640584136
489.7054538205411
489.7928235950121
489.88627508965646
489.9834692973945
490.08212582184507
490.1800476909192
490.2751167953819
490.36531035042395
490.4486941963477
490.5234474008216
490.587870382378
490.6403985861606
490.67957541918014
490.7040692233802
490.71269966855635
490.7044523708784
490.6784847153036
490.63413194102293
490.57090680368583
490.48848415722995
490.38669185066834
490.2655228360337
490.12513382085905
489.9658414617439
489.7881337248022
489.5926617946213
489.38023427073875
489.15181352925805
488.90850096495905
488.65151718374426
488.3822009246636
488.1020027585044
487.81246229255794
487.51519689183965
487.2119152008943
486.9044211072023
486.59457124762304
486.2842886839815
485.9755565075966
485.6703850425564
485.37080255292136
485.0788520740754
484.7965814561655
484.52603105404353
484.2692390546613
484.02821227603687
483.8049127020144
483.60125740363696
483.4191079606682
483.26026487427663
483.12646052950157
483.0193310357793
482.94041698472864
482.8911691676683
482.87293986618494
482.8869684218207
482.93436963836353
483.01615116870323
483.1331901633939
483.28624793381636
483.4759503661556
483.7028085093021
483.9672007038658
484.2693817721977
484.6094797689405
484.98749792424957
485.40331270821844
485.8566922575462
486.3472759654248
486.8745915837911
487.4380575953474
488.03697932810263
488.67056274740605
489.33792415965775
490.0380958901054
490.7700280455913
491.5325971649505
492.3246040681756
493.1447870216483
493.9918305388038
494.8643743508123
495.7610094800701
496.680293850826
497.62074573088
498.58086329888874
499.5591264420011
500.5539982503661
501.56393711140254
502.58740857667283
503.622890651999
504.6688658677375
505.72382596001506
506.78629585010077
507.8548158355754
508.9279604891175
510.0043330848696
511.08257064174546
512.1613329178173
513.2393146765811
514.3152399424757
515.3878753828419
516.4560278055396
517.518558986744
518.5743765605016
519.622422710668
520.6616911643688
521.6912090118273
522.7100467803199
523.7173241744485
524.7122052052011
525.6939022938972
526.6616697084758
527.6147972751937
528.5526240657277
529.4745327900455
530.3799377882204
531.26826608578
532.1389793537292
532.9915582049935
533.8254925754115
534.6403000518065
535.4355309513918
536.2107493329355
536.9655378893968
537.6994915747629
538.4122151817701
539.1033271493033
539.772456654333
540.4192340662191
541.0433009429659
541.6443025947573
542.2218983400246
542.7757611783813
543.3055803247627
543.8110666770324
544.2919392148059
544.7479072256383
545.1786942340647
545.5840270862817
545.9636360173018
546.3172637912551
546.6446621683133
546.945608405688
547.2198937992059
547.467323641906
547.6876930943093
547.8808108191683
548.0465071794725
548.1846359990824
548.2950589953992
548.3776519194558
548.4323036151642
548.4589346999002
548.4574924053944
548.4279498724063
548.3703031877177
548.2845749671814
548.1708202113173
548.0291078850126
547.8595437628314
547.6622580636456
547.437412721246
547.1851930854776
546.9058278103183
546.599573824549
546.2667187926986
545.9075900753334
545.5225505460315
545.1119966280114
544.6763475593953
544.2160606445357
543.7316288808632
543.2235853254142
542.6925010244018
542.1389764076134
541.5636368410264
540.9671410406252
540.3501739544814
539.7134679210499
539.05778019961
538.3838967355382
537.6926246670433
536.9848153897099
536.2613307609163
535.5230725805844
534.7709661015001
534.0059588790099
533.229021684374
532.4411514828602
531.6433545970258
530.8366536631008
530.022092223956
529.2007306426273
528.3736397007875
527.541909483598
526.7066254666986
525.8688793334028
525.0297730015506
524.1904074064573
523.3518822469916
522.515306747332
521.6817843935829
520.8524085987658
520.0282493651058
519.2103592442177
518.3997857216375
517.5975508970764
516.8046596294229
516.0220901596274
515.2507889996084
514.4916788466365
513.7456401981259
513.01352132154
512.2961352145624
511.59425460254613
510.9085982709253
510.23984141328435
509.5886173863743
508.9555021324688
508.34101171317946
507.74561316533953
507.1697071217614
506.6136256705079
506.07763890142616
505.561955083789
505.06671672348335
504.5919968875062
504.1377890944008
503.7040124611371
503.2905235626356
502.89710244202865
502.52346533980534
502.16924940500843
501.8340195223828
501.5172644468729
501.2183974707145
500.9367572055324
500.671615347917
500.4221782576807
500.18757569164603
499.96686499199336
499.7590418310442
499.56304468185334
499.3777354091454
499.2019125132881
499.03431773473915
498.87365619427317
498.7185909229065
498.5677312629098
498.4196321849263
498.27283076209307
498.1258306771489
497.9771024744132
497.825085969239
497.66819907509586
497.50484437601597
497.33340919591245
497.1522788829491
496.9598414556521
496.75449477589245
496.53464518898534
496.2987083512867
496.0451232142935
495.7723462775506
495.4788476725897
495.1631307375858
494.82374477592776
494.4592737180738
494.0683354689382
493.6496004182155
493.2018098922578
492.72376205089745
492.21432189328596
491.6724159715267
491.0970422778365
490.48727788830627
489.8422912162073
489.161341515971
488.44378324168736
487.6890420532217
486.8966474635972
486.066237063133
485.1975589908055
484.2904505965627
483.3448542351399
482.3607953379136
481.3384031997329
480.27791344306286
479.1796786326017
478.04415428591346
476.87191508521244
475.66364222114714
474.42012105349596
473.1422488866645
471.83102231886187
470.4875346791744
469.11299014283475
467.70870635202243
466.27609909416253
464.816690819022
463.3321124749727
461.8240922119513
460.29445513064235
458.74511002938135
457.1780515170997
455.5953554453435
453.99916312016126
452.39169152613414
450.7752237580236
449.1521060120954
447.52474025025737
445.8955701594235
444.2670843883837
442.6417976987273
441.022251423503
439.410998252605
437.810610855481
436.2236661900913
434.65273611375727
433.1003777191304
431.5691299976416
430.0615058806702
428.5799864114132
427.12701500137143
425.70498296525005
424.31621940738205
422.96298535596077
421.6474613503184
420.3717548297822
419.1378793333842
417.9477403618613
416.80313649660496
415.70574965859936
414.65714219528945
413.6587477512635
412.71187126982875
411.81767200041355
410.9771643986475
410.1912173048277
409.46053397132727
408.7856676093804
408.16701360225375
407.6048024220486
407.09909311817177
406.6497872326477
406.25661954746533
405.9191540199129
405.63678242999697
405.40872345937964
405.23404651989017
405.11166826941883
405.0403324557526
405.01863613693405
405.0450282814433
405.1178245490652
405.23520532567323
405.39522320533376
405.5958111536884
405.83478909776545
406.10987091043813
406.41867624014736
406.7587449696557
407.12754790704975
407.5225024757792
407.94099127941246
408.3803751518702
408.8379938976219
409.3111673201789
409.7972225600605
410.29351732179225
410.79743050669873
411.3063721707319
411.8178059453037
412.32925775800675
412.83833281733246
413.34272318954146
413.8402188720661
414.3287024930827
414.8061688216644
415.270731898128
415.7206420600433
416.15428421886094
416.5701613599859
416.96692208130196
417.34338014196584
417.6985335147563
418.0315748325205
418.34188036300617
418.6290056884498
418.8926680025231
419.1327628293958
419.34935398549396
419.5426916275142
419.7132041007871
419.86148107478476
419.9882892406093
420.0945727041885
420.181429507625
420.25009212677884
420.3019267273522
420.3384205179776
420.3611612495286
420.3718370257337
420.37222590887376
420.3642019327808
420.34972948298076
420.33084191854573
420.30963949165675
420.28826717848796
420.2689029934693
420.2537458325715
420.2450051593982
420.24489051428185
420.2555965329265
420.27930113183186
420.31814423820236
420.3742331507383
420.4496243940501
420.54630621393363
420.66619914357744
420.8111398051157
420.9828764566222
421.1830542205448
421.4132184950975
421.67479945780286
421.9691127177666
422.2973564718467
422.66059864502654
423.0597846382457
423.4957195781045
423.96907970306285
424.4804136868624
425.0301361687541
425.61852426172226
426.2457256201869
426.91175402617995
427.6164942472235
428.3597096726976
429.1410396701687
429.96000607270946
430.8160267736042
431.70841023713893
432.6363678855263
433.5990071807233
434.5953512098059
435.6243321262587
436.68480435321607
437.77556442890085
438.89534493086893
440.0428261953032
441.21662382338775
442.415315134329
443.63744803344605
444.8815367768096
446.1460860122759
447.4295797567546
448.7304942453673
450.047297322438
451.3784605945408
452.7224711850175
454.0778279418357
455.44305275032445
456.81667953228896
458.1972776948089
459.583440043766
460.97378322626537
462.36695397094763
463.7616368831169
465.1565619419369
466.55049647559883
467.9422410044297
469.33064431840916
470.71460094868047
472.0930397474857
473.46493178934384
474.8292958361931
476.18519288943514
477.5317186128619
478.8680155445837
480.1932657107654
481.50668556997005
482.8075430326533
484.09513326308115
485.36880317951056
486.6279281544252
487.87191054795363
489.1001690589826
490.31213401645505
491.50724647058775
492.684965548816
493.8447757059506
494.9861721175578
496.108669985862
497.2117741745327
498.2950029606218
499.35788972169547
500.3999672221431
501.4207515388113
502.41976712330234
503.3965456938619
504.3506190147996
505.2815295489809
506.18882424400067
507.0720598666936
507.93080011888856
508.76460674663434
509.5730373484266
510.3556499081675
511.11200751554674
511.8416812122093
512.5442424396927
513.21926670325
513.8663417252158
514.485064959357
515.0750480099167
515.635912484433
516.1673013425677
516.6688663060177
517.1402726497314
517.5812104836631
517.991381943537
518.3705167008496
518.7183698955355
519.034730983965
519.3194128724027
519.5722584314323
519.793135849779
519.9819466951079
520.1386315630916
520.2631691339452
520.3555773834714
520.415912519863
520.4442676326704
520.4407777128375
520.4056246237734
520.3390354550256
520.2412831051826
520.1126846650203
519.9536040630192
519.7644591203513
519.5457046217083
519.2978414259248
519.0214187483
518.7170144487296
518.3852675160305
518.0268579274791
517.6425128465795
517.2330061926482
516.7991425840517
516.3417737396451
515.8617928874887
515.3601446223926
514.8378041683847
514.2957870113879
513.7351452942432
513.15695525218
512.5623283597615
511.95240700606536
511.328371102019
510.69142732700334
510.0427960344902
509.38372406406023
508.71547333863293
508.039335719183
507.3566041067702
506.66858706289867
505.9766014636377
505.28197610923763
504.58603561378345
503.89009948774316
503.1954897558029
502.5035233471059
501.8155045308684
501.132721632218
500.45645256197264
499.78795948008525
499.12847250517956
498.47918639884773
497.84127018595393
497.2158592401678
496.6040495361517
496.0069073056056
495.4254415475869
494.86062035489635
494.31336110349616
493.78452952307754
493.2749302072949
492.78530145475133
492.31632091769427
491.8686070025948
491.4427096170999
491.0391054891223
490.65819369306894
490.30029333346863
489.96566328629075
489.65447643180545
489.36681805428424
489.1026908647438
488.86202914130723
488.6446827134386
488.4504056574614
488.2788780075742
488.1296882913229
488.0023492975248
487.8962813489535
487.8108241513074
487.7452423676908
487.698718558665
487.6703574608372
487.6591750567956
487.664107198028
487.6840270883662
487.71774357820317
487.7639932927797
487.8214526453883
487.8887347718103
487.96439544411965
488.0469324888929
488.1347984377247
488.22640028952657
488.32010377252817
488.41423781183846
488.50710569779244
488.59698761962204
488.68213026646066
488.760771359005
488.83114021370864
488.8914739954827
488.94000801588265
488.9749771009901
488.99462552169473
488.9972145736404
488.98102574464326
488.94435715974345
488.88554371304156
488.80295720235944
488.6950041415691
488.560140814318
488.3968684461595
488.20374561297365
487.9793828030457
487.722465350422
487.4317479784543
487.1060515139128
486.7443013364583
486.3454939301309
485.90871828019016
485.4331577751227
484.91809454705174
484.362907560048
483.7670839068773
483.1302170310533
482.4520007489131
481.7322319293107
480.970806150458
480.16772138317975
479.3230853544151
478.43712214203276
477.51017379451247
476.5426839609388
475.5352158005653
474.48844962727657
473.403175653992
472.280299185582
471.1208188163638
469.9258519039486
468.6966133655128
467.4344419468995
466.1407758220387
464.8171697245067
463.46528594750407
462.08688762012116
460.6838298527047
459.2580552875625
457.81159388345054
456.3465582136895
454.8651188991769
453.3695190419472
451.86207966854334
450.34518996539254
448.8212889723592
447.29286475056193
445.762435686706
444.2325577119447
442.7058137987853
441.18480102725186
439.6721282284809
438.1704177734186
436.68229647372357
435.21037553468517
433.75724108398174
432.325452980812
430.9175346416139
429.5359825642474
428.18324323136574
426.86170532191056
425.57369190930297
424.32145507581237
423.10715533412883
421.9328517070365
420.8005044452908
419.711986689148
418.66904851772335
417.6733271990645
416.7263358455833
415.8294635696116
414.98395653646855
414.19091022506296
413.4512772463188
412.76586259575953
412.1353262999971
411.56016946113795
411.0407274387997
410.5771678008641
410.1694953946282
409.81754704769077
409.5209912736448
409.27933955349346
409.09194090431095
408.95798385507385
408.87650135632515
408.8463655466202
408.86630951916703
408.9349148244306
409.0506171141094
409.2117322059726
409.416445773979
409.6628190626947
409.9487928100618
410.2722045765794
410.63080672957165
411.0222698420679
411.4441976851841
411.8941385703413
412.3696107649371
412.8680937712293
413.38703760399164
413.9238833261241
414.4760662192636
415.04103651144726
415.6162646561585
416.1992572756285
416.7875704919513
417.3788139750052
417.970674185464
418.560901648105
419.1473364673498
419.7279130253172
420.3006721616168
420.8637567662788
421.41544323899046
421.9541147245816
422.47828525797246
422.98661373838956
423.477928101753
423.95122745809476
424.4056910356594
424.8406721205849
425.2556810584208
425.6503895963263
426.0246436082559
426.37845370710687
426.71200303012
427.0256374602411
427.31986661460166
427.5953845055875
427.8530336178342
428.09381492428594
428.3188447455903
428.5293695538616
428.7267423210079
428.91242154006693
429.087955639869
429.25499233438825
429.41526736253456
429.5705946964617
429.72285383958047
429.87399872129436
430.0260381548466
430.18100514990306
430.3409344057598
430.5078806787568
430.6838953455516
430.87102496733274
431.07128596047977
431.2866677789495
431.5191233246367
431.7705556685046
432.0428031001743
432.33763341878904
432.6567389811719
433.0017261091484
433.374103047131
433.7752817466318
434.20655623953576
434.66911224871683
435.1640068714178
435.6921729770135
436.25441986528176
436.85145025879075
437.4838524911743
438.15207867025606
438.85644311644523
439.5971322605027
440.37420201544955
441.18758428282524
442.0370830763007
442.9223865890982
443.843071159346
444.7986013806227
445.7883327906845
446.8115104911799
447.8672876801469
448.95472701450404
450.0728067420542
451.2204292762832
452.3964234229527
453.59956438483067
454.8285567567958
456.0820568490945
457.3586730365455
458.65697477233937
459.9755103242087
461.3127938587946
462.6673272725631
464.037604419805
465.42210421355975
466.8192985198198
468.2276705332179
469.64571973089113
471.0719644111249
472.50494392508045
473.94321833532445
475.3853762657644
476.8300334160947
478.275823856327
479.7214123251561
481.16550369587793
482.6068432788376
484.0442234124594
485.4764834072034
486.902505080666
488.32121040695455
489.7315588102655
491.132557300492
492.52325746946707
493.902750418233
495.27017273245616
496.6246993853479
497.9655410720745
499.29196139514414
500.6032461839645
501.89873649540397
503.17780512689126
504.4398639276739
505.6843358895265
506.91066169333624
508.11829457017404
509.30670554856914
510.47539072075557
511.62385445429214
512.7516229247129
513.8582355265588
514.9432295879459
516.0061575754805
517.0465756722148
518.0640232081709
519.0580563214278
520.0282270215217
520.9740955375894
521.8952276885485
522.7912036497556
523.6616056152371
524.5060257990395
525.3240551711689
526.1152899996001
526.8793277817696
527.6157678589473
528.3242077916032
529.0042418891123
529.655475198997
530.2775337428152
530.8700511440819
531.4326708211698
531.9650461843747
532.4668541462437
532.9377803706875
533.3775284700146
533.7858181908792
534.1623944655346
534.5070166950651
534.8194697333776
535.0995725027765
535.3471714093346
535.5621468011911
535.744412778049
535.8939169146059
536.0106442737429
536.0946192454587
536.1459049632521
536.1646022855554
536.1508461987961
536.1048174866257
536.0267346541043
535.916874087595
535.7755574332815
535.6031477117878
535.4000583928524
535.1667493205085
534.90372693915
534.6115421560239
534.2907945907594
533.9421280940575
533.5662326523408
533.1638438282774
532.7357465487477
532.2827678746266
531.8057828204172
531.3056981192278
530.7834664436302
530.240076386827
529.6765575389926
529.0939766929326
528.4934272689807
527.8760404022016
527.2429695591696
526.5953945323475
525.9345296451438
525.2616168244276
524.5779253225667
523.8847448160706
523.1833719852152
522.475120913138
521.761315888586
521.0432819831883
520.3223462895841
519.5998478877135
518.8771304912333
518.155533099861
517.4363828459515
516.7209876104796
516.0106370216319
515.3066010547898
514.6101352425508
513.9224662990695
513.2447929770918
512.5782736250544
511.9240399836122
511.28318044374504
510.6567452850314
510.0457411346527
509.45111888356763
508.8737901751931
508.3145938117262
507.77431676130544
507.25367783520534
506.7533421671385
506.2739054409536
505.81589581204827
505.379767178931
504.9658947545201
504.5745927873885
504.2060954193852
503.8605509122011
503.5380314913849
503.23852142663844
502.9619270182728
502.70807607829744
502.4767001031101
502.2674514065282
502.07991409531377
501.9135762730987
501.76783955999406
501.6420308276218
501.5353990467907
501.44711913031784
501.3762895969431
501.32193494834513
501.28300400961365
501.25837721291947
501.2468675095102
501.24722366011304
501.258135849177
501.2782283496258
501.3060763740516
501.34020558156243
501.37909391831283
501.42118671591567
501.46488798622283
501.5085672277096
501.5505617355785
501.5892007987468
501.6227930848648
501.6496315896583
501.66800951334903
501.67620999444307
501.6725307884279
501.6552740514317
501.6227625641111
501.5733473150158
501.50539776783705
501.4172940852301
501.30744490840914
501.1743046129852
501.0163818094689
500.83223031021885
500.6204508808664
500.37969937680595
500.1086879166396
499.8062010484832
499.4710965539479
499.1022998207317
498.6988155379484
498.2597350219693
497.7842415017691
497.2716046101326
496.7211859612299
496.1324403559145
495.5049148141746
494.8382629037374
494.13226140513325
493.38678597543094
492.6018111285496
491.77740537861195
490.9137389366087
490.01108847957033
489.0698369835289
488.09048182368224
487.0736225704096
486.0199766792816
484.93034431943505
483.80563119317935
482.64685515460087
481.45511513477055
480.2316181269407
478.97766828785086
477.6946775467667
476.3841605432595
475.04772295550373
473.6870651592507
472.3039815886872
470.90035601405776
469.4781460945943
468.03938537922267
466.5861807591464
465.1207012803204
463.64516472174193
462.1618500316677
460.6730788854643
459.18122116454794
457.6886762784796
456.1978805135376
454.7112880122218
453.23136682324366
451.76061670706684
450.3015347323641
448.8566026873403
447.4282957470445
446.0190667859463
444.6313459038753
443.26752880035116
441.9299695512982
440.62096872963457
439.34275899902667
438.0975189994585
436.8873633010446
435.71432840390264
434.5803567146334
433.48729803268174
432.4369024801943
431.4308136160692
430.4705462564145
429.5575083560226
428.69297752759303
427.87809757026434
427.113879623031
426.40118196416466
425.7407120409762
425.13302653696365
424.5785342198818
424.0774863722385
423.62997446285925
423.2359284125884
422.89511318026956
422.6071413810833
422.37146052470735
422.18736067819714
422.05397192902785
421.97026463083733
421.93505904739493
421.94703812793233
422.00473939450467
422.1065562225685
422.25075502378104
422.43547575241865
422.65873959359976
422.91846392056965
423.2124515887203
423.5384046717671
423.8939471540149
424.27662597071355
424.6839368061404
425.11334656929813
425.56229516163233
426.0281914262024
426.50843119474973
427.0003935423406
427.501482988319
428.00913028566725
428.5208131159472
429.03404164732814
429.5463806575988
430.0554797214468
430.5590613741321
431.05495226080603
431.54106082784085
432.0154063447605
432.4761246295851
432.92148125994066
433.3498814776108
433.7598614161993
434.15007307640934
434.51933737650785
434.86664164435
435.1911565249184
435.49223968564456
435.76942638596415
436.0224353381426
436.2511547055762
436.45564306463774
436.63612537595947
436.7930325465863
436.9269495479489
437.0386332902926
437.1290260720384
437.19922554463136
437.250487365177
437.2841946092609
437.3018435382049
437.3050410690097
437.29549641515166
437.2750111923062
437.24548565373374
437.20890883940166
437.16734387989464
437.12290378355857
437.077768125728
437.03416470112046
436.9943489974264
436.9605878424127
436.9351471562438
436.9202948218624
436.91826424017705
436.93126823311167
436.96146941483534
437.0109680382849
437.08181401507585
437.1760046969635
437.29543776315955
437.4419281351562
437.6171838679744
437.82281328140755
438.0603220659232
438.33108962480503
438.6363835783888
438.97734007964243
439.35495359417564
439.77009358736285
440.22349594264557
440.715759824727
441.24734753352203
441.81857847894844
442.42963913390247
443.08058049654016
443.7713228226613
444.5016654093268
445.27126191596074
446.0796617820856
446.926301944034
447.8105014716139
448.73147176694147
449.68832692043657
450.68009448028005
451.7057091887664
452.764026589301
453.8538278198275
454.9738354872815
456.12271228368337
457.2990816314638
458.50151352880556
459.72854313126345
460.9786692213592
462.2503699176428
463.54210500217386
464.8523266067031
466.1794830510535
467.52202892238586
468.87842166783366
470.2471375842277
471.6266964331851
473.015624791279
474.4124669629423
475.8158057952487
477.22424777469774
478.63642941882756
480.0510230161533
481.4667417009439
482.8823551894674
484.29666381088145
485.7085157632142
487.11678669621165
488.52040929467023
489.91836779669177
491.3096771590856
492.6934014952251
494.06863509229447
495.43452505906123
496.790257182344
498.135059442855
499.4681947548458
500.78895169208823
502.09666817037
503.3907207763744
504.67049687109676
505.9354143296419
507.1849038008011
508.4184124669228
509.6353942971407
510.83531090333213
512.0176341830643
513.1818619646752
514.3274922257964
515.4540099994687
516.560921977404
517.6477255819875
518.7139126921759
519.7589642945929
520.7823624368982
521.783589267951
522.7621376453205
523.7175115486763
524.6492208434685
525.5567811581493
526.4396922483946
527.2974535491153
528.1295689021199
528.935547443264
529.7148872478093
530.4671026217986
531.1917036184452
531.8882153714601
532.5561736274478
533.1951226164205
533.8046263337885
534.3842625403948
534.9336453664748
535.4524002833186
535.9401651819097
536.3965995538236
536.8213937110294
537.2142693367733
537.5749864810114
537.9033352196835
538.1991379322869
538.4622624417603
538.6926088686479
538.890107045041
539.0547419408066
539.1865328095442
539.2855492887145
539.3519142739704
539.3857981354656
539.3874195386508
539.3570461069597
539.2949970149284
539.2016455214676
539.0774016525876
538.922745098024
538.7381968404935
538.5243233512238
538.2817472486367
538.0111425947783
537.7132234876898
537.3887453988051
537.0385215472699
536.6634196564135
536.2643413351857
535.8422208876622
535.3980301309758
534.9327695342029
534.4474897348931
533.9432694415442
533.4212260510227
532.8825065228372
532.3282848675474
531.7597638175674
531.1781677551139
530.5847399783664
529.9807421227812
529.3674492784187
528.7461315606371
528.1180814607951
527.4846153775122
526.8470250714913
526.2066031685112
525.5646465017002
524.9224553511712
524.2813110878299
523.6424755439958
523.0072011820562
522.3767084629352
521.7522069529397
521.1348792273233
520.5258646754054
519.9262847369813
519.3372201222611
518.7597122236176
518.194762224193
517.6433324845656
517.1063327594823
516.5846261089163
516.0790263153566
515.5902821888488
515.1190858115441
514.6660876220576
514.2318680236044
513.8169485624123
513.4217768958255
513.0467403027518
512.6921576184188
512.3582845561174
512.045288415709
511.7532775121169
511.4822937833527
511.23229697496424
511.00317745113614
510.79474950398753
510.6067668356131
510.43889900688845
510.29074966203143
510.16184428349317
510.0516289530183
509.9594778341014
509.8846962986552
509.82653317350537
509.78417376330043
509.75673528041847
509.7432756206604
509.7428003166641
509.75424111476514
509.7764848874776
509.8083699837466
509.84868506662195
509.8961681457041
509.94952533984446
510.00742142614
510.0684703597881
510.13126946161475
510.194385815948
510.25635145423774
510.31569555469775
510.37093964974406
510.4205844653948
510.4631230364838
510.49704264018646
510.5208331819233
510.53300658746264
510.53210584957316
510.51668178502166
510.4853004425082
510.4365392334804
510.36899763044494
510.28130516030836
510.17212920748113
510.04017385394945
509.8841870892706
509.70296552662296
509.49535699724265
509.26025856413514
508.9966382769612
508.7035244065265
508.38001678725544
508.0252806724548
507.6385583486431
507.21917220154984
506.76652127456646
506.28006898747105
505.75938114583556
505.2041141048728
504.61401874157673
503.9889489722898
503.3288420251945
502.63373160899573
501.9037344892218
501.13906928080536
500.3400486124622
499.5070706966427
498.64064941133273
497.7413870873523
496.8099927913146
495.8472693814867
494.85411746926974
493.8315297269003
492.780581890625
491.7024690652326
490.5984850139694
489.47000978843914
488.31851416404027
487.1455746724884
485.952864776911
484.7421484012586
483.515291239606
482.2742352636551
481.0209928894131
479.7576607326884
478.4863806876597
477.2093595519936
475.92885977239575
474.6471854215758
473.3666850337443
472.08974523994635
470.81878186727124
469.5562591360106
468.30466535622395
467.0665086861149
465.84429299636867
464.6405218536413
463.4576869466172
462.2982628693293
461.16469074838074
460.059379049635
458.98468655232676
457.9429270680831
456.93634776884903
455.9671247304179
455.0373541072824
454.14904336196724
453.30410244891976
452.5043349023707
451.75143131192254
451.0469609060328
450.39236119064344
449.78894339243305
449.23787879666054
448.74018790588667
448.29673008090754
447.90820231240707
447.57512976320146
447.29785906177244
447.0765650759361
446.9112431070221
446.8016997140764
446.74755706450253
446.7482470661502
446.8030173293741
446.9109245621139
447.0708418146574
447.28146680246897
447.5413136603866
447.84872318691504
448.201880838236
448.59879195063553
449.03729469197555
449.51508472524785
450.0297191490677
450.5786192917733
451.15908313147077
451.7682741530588
452.40324096411837
453.06093939011083
453.7382619298409
454.43205090783755
455.1390953300571
455.85615257324395
456.5799685100288
457.30728970895814
458.03486095107223
458.75944461430066
459.4778552601574
460.1869615297676
460.8836723944549
461.56498591115104
462.2279932968406
462.86989541971053
463.48802291281254
464.0798422600948
464.642963068685
465.1751574604586
465.67434522959286
466.13863624575293
466.5663233720992
466.95586958560364
467.30594800555116
467.6154565914785
467.88352579272015
468.1095061187913
468.2929836273821
468.4337841751626
468.5319420639657
468.5877247890852
468.6016264520121
468.57438040332073
468.5069521954145
