508.9999999999998
508.3404574979314
507.68119474603344
507.0224913020158
506.3646263393608
505.70787845696816
505.0525254909779
504.3988443295307
503.7471107311627
503.09759914752954
502.4505825511454
501.8063322687694
501.1651178210531
500.5272067691026
499.8928645685998
499.26235443202654
498.63593719938206
498.01387121762747
497.3964122289793
496.7838132681174
496.176324568219
495.5741934755397
494.9776643720905
494.38697860590025
493.8023744283458
493.2240869379519
492.65234802997213
492.087386351005
491.5294272577886
490.97869277916965
490.4354015801243
489.8997689266586
489.3720066503445
488.85232311118665
488.34092315748927
487.83800808138955
487.3437755687081
486.8584196417609
486.3821305937764
485.91509491353264
485.4574951988252
485.009510057458
484.571313994518
484.14307728467713
483.7249658282573
483.3171409898092
482.9197594180063
482.5329728457502
482.15692786953207
481.7917657072016
481.4376219334187
481.09462619224496
480.7629018865311
480.4425658438729
480.13372795903814
479.8364908129249
479.55094926828417
479.2771900426344
479.01529125905756
478.7653219758391
478.5273416960679
478.301399858476
478.087535311035
477.88577576905766
477.69613725976575
477.5186235554738
477.353225597729
477.1999209149221
477.058673036036
476.92943090335
476.8121282871092
476.70668320534736
476.6129973521633
476.53095553789854
476.4604251448388
476.40125560219633
476.3532778841913
476.3163040350402
476.2901267246208
476.27451883855224
476.26923310638443
476.2740017715213
476.2885363064599
476.3125271768839
476.3456436581553
476.38753370773384
476.43782389699567
476.4961194058099
476.5620040829834
476.635040575346
476.7147705279151
476.80071485724983
476.8923740998022
476.9892288367255
477.09074019624285
477.196350434349
477.30548359428894
477.4175462448216
477.53192829685025
477.648003897674
477.7651324017814
477.88265941673035
477.99991792228417
478.11622946059003
478.2309053947941
478.34324823314387
478.4525530154434
478.55810875856406
478.6591999574701
478.7551081379214
478.84511345679584
478.9284963458795
479.0045391949832
479.07252807008524
479.1317544618267
479.1815170592675
479.22112354352896
479.249892395779
479.26715471388854
479.27225603187543
479.26455813607316
479.24344087186523
479.2083039347793
479.15856863970123
479.093679661953
479.01310674399986
478.9163463616835
478.802923344079
478.67239244131025
478.5243398349138
478.3583845856557
478.1741800140473
477.97141500910084
477.7498152611362
477.5091444147626
477.24920513840385
476.96984010691904
476.6709328940493
476.35240877167803
476.0142354132714
475.6564234992447
475.2790272223315
474.88214469127956
474.46591823146827
474.0305345814305
473.57622498475735
473.103265177261
472.61197526957676
472.1027195256724
471.5759060379859
471.03198630010917
470.4714546781304
469.894847781937
469.3027437379246
468.69576136464474
468.0745592529589
467.43983475228714
466.7923228646223
466.13279504809947
465.46205793195486
464.78095194477277
464.0903498580448
463.3911552471646
462.68430087204877
461.9707469796362
461.2514795305848
460.5275083526349
459.79986522328153
459.0696018844989
458.33778799230583
457.6055090041018
456.87386400686717
456.1439634894689
455.4169270623602
454.6938811279226
453.9759565047573
453.26428600932206
452.56000199841264
451.8642338761812
451.17810556962445
450.5027329766731
449.8392213911789
449.18866290926036
448.552133821636
447.9306919967687
447.32537425981
446.7371937725089
446.1671374194763
445.6161632064422
445.0851976764204
444.57513335001545
444.0868261963759
443.62109314160256
443.1787096217775
442.76040718813954
442.366871172216
441.99873841892975
441.6565950958322
441.3409745866879
441.05235547771724
440.79115964490757
440.55775045091394
440.35243106017026
440.17544288092904
440.0269641429822
439.90710861978994
439.81592450367776
439.7533934426701
439.71942974732826
439.71387977567923
439.7365215040216
439.78706429101135
439.8651488419014
439.9703473791536
440.1021640248903
440.2600353998721
440.44333144290744
440.65135645378456
440.8833503620099
441.1384902227931
441.41589194085776
441.7146122218074
442.0336507499102
442.37195259022815
442.72841081196754
443.1018693288519
443.49112595125325
443.89493564377733
444.312013980973
444.74104079274025
445.1806639898792
445.6295035591033
446.08615571580617
446.5491972018492
447.0171897145734
447.48868445214566
447.96222675929897
448.43636085659773
448.90963463560047
449.3806045017251
449.8478402461835
450.30992992800026
450.7654847467934
451.21314388665337
451.6515793111765
452.0795004894777
452.4956590329081
452.89885322228355
453.28793240564164
453.6618012467902
454.0194238053116
454.3598274292684
454.68210644250775
454.98542560918736
455.2690233589902
455.5322147573187
455.7743942055895
455.9950378576956
456.1937057397918
456.370043561763
456.5237842098505
456.65474891078827
456.76284805864964
456.8480816969767
456.9105396507011
456.9504013044606
456.9679350259109
456.9634972344843
456.9375311178291
456.8905650000004
456.82321036735135
456.73615955985633
456.63018313729003
456.5061269313744
456.3649087966959
456.20751507478764
456.034996787199
455.8484655746633
455.6490894006382
455.43808803849896
455.21672836252594
454.9863194635519
454.7482076107864
454.50377108195636
454.2544148845017
454.00156539112766
453.7466649135191
453.4911662383877
453.23652715019495
452.98420496487347
452.73565109864256
452.4923056956958
452.2555923381573
452.0269128611765
451.8076422953097
451.5991239575186
451.40266471128075
451.21953041539115
451.050941579987
450.898069247166
450.76203111232473
450.64388790105266
450.5446400150151
450.46522445880504
450.4065120582616
450.3693049792959
450.35433455480353
450.36225942574316
450.3936640009451
450.44905723873467
450.52887175193786
450.6334632362081
450.76311021996565
450.9180141325933
451.0982996859105
451.3040155624194
451.5351354023549
451.79155908013206
452.0731142594441
452.37955821505307
452.71057990821157
453.06580230160273
453.44478489869016
453.8470264915107
454.27196810019404
454.71899608680303
455.1874454255029
455.67660311064645
456.18571168403565
456.7139728624067
457.2605512460557
457.8245780895396
458.40515511554906
459.0013583533086
459.6122419831357
460.2368421691749
460.8741808628657
461.52326956028156
462.18311299709484
462.85271276560536
463.5310708390141
464.21719298891736
464.910092082832
465.60879124937946
466.3123268996942
467.01975159466934
467.73013674877666
468.44257516235876
469.15618337544845
469.8701038373098
470.5835068870579
471.2955925418683
472.0055920903892
472.7127694899816
473.41642256734025
474.115884022927
474.8105222404939
475.4997419037671
476.1829844231363
476.8597281759463
477.5294885647352
478.1918178985752
478.84630510351445
479.49257526901954
480.1302890382571
480.7591418509096
481.37886304792704
481.9892148481475
482.58999120709353
483.1810165684311
483.7621445186228
484.3332563553367
484.8942595802265
485.4450863266795
485.98569173306174
486.5160522719101
487.0361640453974
487.5460410572143
488.04571347074835
488.5352258631878
489.0146354849572
489.4840105336395
489.94342845118524
490.3929742527855
490.8327388953936
491.2628176935067
491.6833087894478
492.09431168502806
492.49592584105045
492.88824935051844
493.2713776906347
493.6454025578507
494.01041078949737
494.3664833749445
494.71369455874975
495.0521110378149
495.38179125413484
495.7027847842756
496.01513182628065
496.3188627842466
496.61399795029126
496.9005472830549
497.17851028136016
497.4478759511967
497.70862286372227
497.9607193015799
498.20412349048274
498.4387839126369
498.6646396981689
498.8816210904257
499.0896499809627
499.2886405102229
499.478499730087
499.65912832435737
499.8304213828331
499.99226922418364
500.14455826249673
500.28717191216276
500.4199915256485
500.5428973586245
500.655769556853
500.75848915922853
500.8509391113643
500.93300528415404
501.00457749176513
501.0655505035697
501.11582504460864
501.1553087793192
501.1839172734187
501.2015749290515
501.2082158886052
501.2037849029933
501.1882381606067
501.1615440734517
501.12368401728156
501.07465302278337
501.01446041512116
500.94313039942523
500.86070259010717
500.7672324821572
500.662791862865
500.54746916269323
500.4213697443611
500.2846161295701
500.13734816315923
499.9797231146961
499.81191571763856
499.63411814632195
499.4465399312696
499.2494078136428
499.04296553998836
498.82747359874713
498.6032089003218
498.3704644028671
498.12954868625997
497.8807854769169
497.62451312625984
497.36108404567466
497.090864100805
496.8142319679788
496.5315784554867
496.2433057924952
495.9498268885342
495.65156456667717
495.34895077372556
495.0424257708057
494.73243730778137
494.4194397848858
494.103893405012
493.7862633200491
493.46701877448334
493.1466322493197
492.82557860924106
492.5043342557843
492.18337628922814
491.863181681797
491.5442264646755
491.22698493115104
490.91192885797005
490.59952674677726
490.29024308734745
489.98453764412324
489.6828647673261
489.38567272965963
489.09340308940733
488.8064900804847
488.52536002974324
488.25043080163096
487.98211127012155
487.72080081765216
487.4668888606515
487.2207544010792
486.9827656032799
486.7532793953973
486.5326410944834
486.3211840542812
486.1192293344955
485.9270853902268
485.74504778014955
485.57339889197476
485.41240768364247
485.26232943849453
485.123405532525
484.9958632117909
484.87991537823075
484.775760382411
484.68358182197346
484.6035483448062
484.5358134562267
484.48051532978076
484.4377766214552
484.40770428715564
484.3903894032919
484.38590699029896
484.394315838828
484.41565833829986
484.44996030760115
484.49723082789995
484.55746207776406
484.63062917107607
484.7166899985573
484.81558507392316
484.92723738577496
485.05155225646234
485.18841720933136
485.33770184592777
485.4992577348409
485.67291831402457
485.85849880862594
486.055796166539
486.2645890140013
486.4846376335798
486.71568396684773
486.9574516440657
487.2096460431335
487.47195437998505
487.7440458324481
488.0255716993953
488.31616559675905
488.61544369186396
488.9230049775311
489.2384315874441
489.56128915429133
489.89112721212456
490.22747964421393
490.56986517745764
490.9177879240947
491.27073797110785
491.6281920172827
491.98961405761673
492.354456114654
492.72215901618785
493.0921532185831
493.4638596747989
493.8366907461439
494.2100511568678
494.5833389907808
494.9559467290996
495.32726232853315
495.6966703382714
496.06355305408505
496.4272917073046
496.78726768611557
497.1428637863681
497.49346548891504
497.83846226036184
498.1772488739769
498.50922674739803
498.8338052936362
499.1504032817665
499.45845020359667
499.7573876425957
500.0466706414253
500.32576906448014
500.59416895191265
500.8513738616947
501.09690619634915
501.3303085110612
501.55114479992557
501.7590017571434
501.95349000999
502.1342453203628
502.30092975176365
502.4532327986787
502.59087247542766
502.7135963616469
502.8211826016601
502.91344085500924
502.9902131954527
503.0513749558113
503.0968355161394
503.1265390327813
503.1404651059057
503.13862938313764
503.1210840969111
503.0879185332241
503.03925942960234
502.97527130020495
502.8961566860704
502.8021563284824
502.6935492634022
502.5706528349212
502.4338226256678
502.2834523020693
502.1199733723254
501.9438548549629
501.7556028559107
501.5557600521732
501.3449050803083
501.1236518280701
500.8926486278009
500.65257735030593
500.40415239806487
500.1481195967981
499.8852549845738
499.61636349783475
499.34227755395943
499.06385553021136
498.78198013913783
498.49755670078343
498.2115113124355
497.92478891702046
497.6383512716939
497.35317481862626
497.0702484604298
496.7905712431417
496.5151499501511
496.24499661094063
495.9811259289919
495.72455263367004
495.47628876139987
495.23734087198443
495.00870720645725
494.79137479339414
494.58631651119936
494.39448811449597
494.21682523331066
494.05424035423715
493.9076197932483
493.77782067031086
493.6656678963879
493.5719511838538
493.497422091757
493.4427911177023
493.4087248484222
493.3958431813428
493.40471662963915
493.43586372342344
493.489748519857
493.5667782350019
493.66730101021074
493.79160382584837
493.93991057509
494.1123803103551
494.3091056745601
494.5301115288787
494.77535378812667
495.0447184742251
495.3380209974156
495.6550056740254
495.9953454887291
496.3586421084603
496.74442615426847
497.15215773646105
497.58122725737746
498.03095648502904
498.50059989961267
498.989346313625
499.4963207650024
500.02058668137624
500.5611483121649
501.11695342390175
501.68689625291904
502.2698207082201
502.8645238160509
503.4697593963381
504.0842419598339
504.70665081347164
505.3356343600825
505.9698145772901
506.6077916591599
507.2481488030588
507.88945712318014
508.53028067123813
509.16918154400565
509.80472505672134
510.43548496086225
511.0600486843332
511.6770225718144
512.285037102742
512.8827520641837
513.4688616557416
514.0420995035547
514.6012435605495
515.145120870301
515.6726121722764
516.1826563267927
516.6742545387605
517.1464743602284
517.5984534525968
518.0294030901986
518.4386113878951
518.8254462365121
519.1893579311238
519.5298814783735
519.8466385700955
520.1393392115212
520.4077829937045
520.6518600016386
520.8715513516554
521.0669293538828
521.2381572976665
521.3854888599403
521.509267138528
521.6099233143472
521.6879749484601
521.7440239217963
521.7787540272539
521.7929282257063
521.7873855792324
521.7630378765061
521.7208659667157
521.661915819631
521.5872943306118
521.4981648903942
521.3957427404783
521.2812901358498
521.1561113375847
521.0215474586682
520.8789711870668
520.7297814107208
520.5753977695757
520.4172551599995
520.2567982169597
520.0954757991929
519.9347355022969
519.7760182242833
519.6207528076908
519.4703507818049
519.3262012278766
519.1896657894354
519.0620738488869
518.9447178905256
518.8388490689447
518.7456730006373
518.666345795318
518.6019703421457
518.5535928645671
518.522199755963
518.508714706712
518.5139961317166
518.5388349057949
518.5839524126739
518.6499989116089
518.7375522240121
518.847116740858
518.9791227500475
519.1339260813021
519.3118080645928
519.5129757965756
519.7375627080077
519.9856294237085
520.2571649053111
520.5520878657444
520.8702484431361
521.211430120698
521.5753518781003
521.9616705590032
522.3699834386418
522.7998309747039
523.250699724163
523.722025408251
524.2131961074189
524.7235555678952
525.2524066013076
525.7990145587797
526.3626108610031
526.9423965659525
527.5375459562297
528.1472101284619
528.7705205676466
529.406592689842
530.0545293372626
530.7134242105425
531.3823652237144
532.0604377682846
532.7467278736646
533.4403252521735
534.1403262177976
534.8458364689282
535.5559737263669
536.2698702189167
536.9866750098876
537.7055561588986
538.4257027144413
539.1463265337621
539.8666639277035
540.5859771291758
541.303555584896
542.0187170709678
542.7308086338265
543.4392073589638
544.1433209706336
544.8425882665226
545.5364793920664
546.2244959597535
546.9061710193574
547.5810688856496
548.2487848307172
548.908944648528
549.561204099791
550.2052482454342
550.8407906772651
551.4675726545831
552.0853621556632
552.6939528531663
553.2931630225702
553.8828343926699
554.4628309470665
555.0330376854314
555.593359353173
556.1437191479175
556.6840574109686
557.2143303115446
557.7345085312435
558.2445759558634
558.7445283813777
559.2343722404667
559.7141233556275
560.183805724507
560.6434503427072
561.0930940688769
561.5327785364432
561.9625491158765
562.3824539308757
562.7925429313226
563.1928670253209
563.5834772721447
563.9644241374616
564.3357568117779
564.6975225926616
565.0497663309017
565.3925299404077
565.7258519713303
566.0497672455255
566.3643065532186
566.6694964094675
566.9653588687843
567.251911395976
567.52916679109
567.7971331663116
568.0558139725978
568.3052080737439
568.5453098655522
568.7761094377734
568.9975927765848
569.2097420055752
569.4125356633105
569.6059490154593
569.7899543992264
569.9645215976881
570.1296182414743
570.2852102351695
570.4312622057471
570.5677379703505
570.6946010207022
570.8118150214374
570.9193443196694
571.0171544630779
571.10521272382
571.1834886256072
571.2519544714336
571.310585869647
571.3593622562524
571.3982674115138
571.4272899690693
571.4464239158843
571.4556690814728
571.4550316149598
571.4445244486107
571.4241677464604
571.3939893366952
571.3540251264918
571.3043194981493
571.2449256855125
571.175906129817
571.0973328141813
571.0092875760159
570.9118623966165
570.8051596671426
570.6892924301752
570.5643845960552
570.4305711332951
570.2879982323976
570.1368234424259
569.9772157797132
569.8093558080993
569.6334356901156
569.4496592086182
569.2582417584414
569.059410307666
568.8534033281057
568.640470694673
568.4208735533847
568.1948841578559
567.9627856741773
567.7248719540876
567.4814472764045
567.2328260567589
566.9793325257905
566.7213003760722
566.4590723780988
566.1929999657401
565.9234427916016
565.6507682528617
565.3753509882514
565.0975723469487
564.817819830195
564.5364865065084
564.2539704014303
563.9706738628613
563.6870029031415
563.4033665191131
563.1201759914569
562.8378441646768
562.5567847091819
562.2774113669218
562.000137182093
561.7253737184983
561.4535302651955
561.1850130321374
560.9202243375474
560.6595617888506
560.4034174590518
560.152177060539
559.9062191182899
559.6659141444613
559.4316238163751
559.2037001599331
558.9824847404982
558.768307863212
558.5614877847454
558.3623299385246
558.1711261754642
557.9881540221853
557.8136759586779
557.6479387173459
557.4911726053294
557.3435908520054
557.2053889836029
557.0767442268996
556.9578149439973
556.8487401001629
556.7496387666387
556.6606096602688
556.581730721727
556.5130587340774
556.4546289832656
556.4064549620635
556.3685281188787
556.3408176526946
556.3232703552864
556.3158105017976
556.318339790671
556.3307373337924
556.3528596974958
556.3845409949298
556.4255930301941
556.4758054945709
556.534946215088
556.6027614555604
556.6789762701846
556.7632949096934
556.855401279993
556.954959453014
557.0616142292179
557.1749917509196
557.2947001653554
557.4203303362135
557.5514566021402
557.6876375804806
557.8284170143394
557.9733246608351
558.12187721829
558.2735792899477
558.4279243816834
558.5843959310635
558.7424683650208
558.901608183266
559.061275064354
559.2209229911637
559.3800013924439
559.5379562970528
559.6942314975854
559.8482697202014
559.9995137974882
560.147407841212
560.2913984118666
560.4309356821185
560.5654745915617
560.6944759903473
560.8174077692372
560.9337459734966
561.0429758979543
561.1445931605118
561.2381047514311
561.3230300557607
561.3989018463352
561.4652672448804
561.521688648882
561.5677446219979
561.6030307459241
561.6271604318483
561.6397656898241
561.6404978546914
561.6290282674731
561.6050489115279
561.5682730030679
561.5184355359413
561.4552937808377
561.3786277393186
561.2882405533214
561.1839588710222
561.0656331701575
560.9331380400901
560.7863724241106
560.6252598236288
560.4497484659767
560.2598114376019
560.055446784479
559.8366775815842
559.6035519732513
559.3561431861674
559.0945495165951
558.8188942932844
558.529325817459
558.2260172812095
557.909166665497
557.5789966188546
557.2357543177864
556.87971130989
556.5111633406406
556.1304301645629
555.7378553413497
555.3338060172931
554.9186726921239
554.4928689710879
554.0568313018485
553.6110186955292
553.1559124309146
552.6920157404476
552.2198534762964
551.7399717544114
551.2529375741726
550.759338410946
550.2597817785813
549.7548947586475
549.2453234931145
548.7317326371293
548.2148047684825
547.6952397502732
547.17375404327
546.6510799644346
546.1279648880477
545.6051703859115
545.0834713031903
544.56365476661
544.0465191219927
543.5328727983704
543.0235330962206
542.5193248976826
542.0210792969935
541.5296321498089
541.0458225404922
540.5704911669059
540.1044786427937
539.6486237185094
539.2037614215091
538.7707211186757
538.3503245031875
537.9433835093232
537.5506981593402
537.1730543472645
536.8112215650375
536.4659505770468
536.137971049661
535.8279891431029
535.5366850737456
535.2647106556454
535.0126868308181
534.7812011984753
534.5708055539739
534.3820134486464
534.215297782166
534.0710884395148
533.94976998492
533.8516794253657
533.7771040565376
533.7262794041769
533.6993872738251
533.6965539218522
533.7178483604821
533.7632808093277
533.8328013057685
533.9262984863001
534.0435985506675
534.1844644202192
534.3485951014216
534.535625264692
534.7451250478343
534.9766000925505
535.2294918215539
535.5031779625903
535.7969733244279
536.1101308287033
536.4418428003185
536.791242517871
537.1574060243546
537.5393541970542
537.9360550741745
538.3464264342384
538.7693386226359
539.2036176180424
539.6480483299237
540.1013781170446
540.5623205157642
541.0295591657904
541.5017519199702
541.9775351235959
542.4555280476815
542.9343374596972
543.4125623143465
543.8887985460711
544.3616439441013
544.8297030901006
545.2915923377703
545.7459448130829
546.1914154131966
546.6266857816975
547.0504692377029
547.4615156364799
547.8586161393882
548.240607871031
548.6063784414257
548.9548703111068
549.285084977382
549.596086960488
549.8870075690934
550.1570484252851
550.4054847297724
550.6316682489174
550.8350300066003
551.015082665643
551.1714225852901
551.3037315430704
551.4117781111875
551.495418679423
551.5545981183576
551.5893500786269
551.5997969238838
551.5861492971374
551.5487053220924
551.4878494429687
551.4040509080561
551.2978619039427
551.1699153488817
551.020922355197
550.8516693720436
550.6630150212528
550.4558866404659
550.2312765492144
549.9902380548766
549.73388121653
549.4633683857423
549.1799095443549
548.884757460282
548.5792026832756
548.2645684035001
547.9422051965043
547.6134856787145
547.2797990980897
546.9425458850069
546.6031321888393
546.2629644259825
545.9234438650298
545.5859612744007
545.2518916570766
544.9225890963135
544.5993817353186
544.2835669128012
543.97640647503
543.6791222838145
543.3928919387133
543.1188447305498
542.858057842043
542.6115528100693
542.380292262739
542.1651769429691
541.9670430287056
541.7866597584909
541.6247273696515
541.4818753549099
541.3586610416291
541.2555684962243
541.1730077546287
541.1113143781249
541.0707493322267
541.0514991844989
541.0536766153953
541.0773212345574
541.1224006935438
541.1888120846189
541.2763836140223
541.3848765370541
541.5139873412448
541.6633501628561
541.8325394210618
542.0210726533389
542.2284135349278
542.4539750646787
542.697122899119
542.9571788161064
543.233424289122
543.5251041531221
543.831430342806
544.1515856841299
544.4847277198554
544.8299925499585
545.1864986678465
545.5533507736342
545.9296435461357
546.3144653557632
546.7069019011807
547.1060397534025
547.5109697920011
547.920790519188
548.3346112385573
548.7515550862121
549.1707619029694
549.5913909373061
550.0126233697204
550.433664650353
550.8537466430239
551.2721295700586
551.6881037534575
552.1009911492371
552.510146673022
552.914959316079
553.3148530519974
553.7092875352633
554.0977585939155
554.4797985193745
554.8549761574669
555.2228968054804
555.5832019207841
555.9355686471137
556.2797091652217
556.6153698752604
556.9423304190905
557.2604025515808
557.5694288706718
557.8692814167166
558.1598601523173
558.441091334392
558.7129257905046
558.9753371117804
559.2283197748251
559.4718872050398
559.7060697936495
559.9309128806858
560.1464747160918
560.3528244111682
560.5500398926096
560.738205871225
560.9174118370933
561.0877500924099
561.2493138326956
561.4021952864632
561.5464839227787
561.6822647354207
561.8096166115961
561.9286107924661
562.0393094321141
562.1417642610342
562.2360153596443
562.3220900468034
562.4000018879337
562.4697498270214
562.5313174463532
562.5846723572442
562.6297657241118
562.666531923312
562.6948883373544
562.7147352845788
562.7259560838877
562.7284172535789
562.7219688426561
562.7064448922835
562.6816640243954
562.6474301539639
562.6035333209554
562.549750637454
562.485847344781
562.4115779748786
562.3266876097413
562.2309132321938
562.1239851609233
562.0056285623053
561.8755650312006
561.7335142324608
561.5791955943871
561.4123300450057
561.2326417817989
561.0398600654315
560.8337210280374
560.6139694868352
560.3803607540923
560.1326624346766
559.8706562026912
559.5941395488223
559.3029274901347
558.9968542343071
558.6757747906992
558.3395665210649
557.9881306231223
557.6213935405019
557.239308292859
556.84185572013
556.4290456350416
556.0009178782154
555.557543270403
555.099024456555
554.6254966364354
554.1371281765498
553.6341210985179
553.1167114397474
552.5851694831597
552.0397998537474
551.4809414807999
550.9089674256098
550.3242845752925
549.7273332039789
549.1185864030845
548.4985493827478
547.8677586468563
547.2267810443598
546.5762126998695
545.9166778268727
545.2488274272486
544.5733378810279
543.8909094306296
543.2022645642576
542.508146303687
541.8093164021908
541.1065534588054
540.4006509554576
539.6924152238764
538.9826633496755
538.2722210214087
537.5619203326829
536.8525975456171
536.1450908239492
535.4402379441173
534.7388739926972
534.0418290587231
533.3499259294969
532.6639777984886
531.9847859937806
531.3131377352679
530.6498039285168
529.9955370029348
529.3510688017103
528.7171085307072
528.0943407731887
527.4834235769525
526.8849866201901
526.2996294622233
525.7279198851517
525.1703923323286
524.6275464493764
524.099845733182
523.5877162939345
523.0915457347604
522.6116821529457
522.148433266129
521.7020656662028
521.2728042030799
520.8608314998866
520.46628760061
520.0892697506965
519.7298323106696
519.3879868023412
519.063702086571
518.7569046709484
518.4674791452267
518.1952687418386
517.9400760182766
517.7016636576864
517.47975538371
517.2740369852983
517.0841574469779
516.909730179819
516.7503343481002
516.6055162864204
516.4747910018824
516.3576437558751
516.2535317197738
516.1618856985697
516.0821119160971
516.0135938551321
515.9556941451972
515.9077564905756
515.8691076308476
515.8390593262993
515.816910360668
515.8019485537553
515.7934527765885
515.7906949619993
515.7929421036384
515.7994582366496
515.8095063934339
515.8223505281275
515.8372574035825
515.853498434834
515.8703514832317
515.887102595722
515.903047684052
515.917494139008
515.9297623752167
515.9391873025528
515.9451197206807
515.9469276336905
515.9439974821175
515.9357352899824
515.9215677248552
515.9009430693044
515.8733321023362
515.8382288895847
515.7951514811673
515.7436425164213
515.6832697353541
515.6136263975914
515.5343316105015
515.4450305687592
515.3453947080137
515.2351217757445
515.1139358228428
514.9815871198946
514.8378520024726
514.6825326500233
514.5154568030837
514.3364774236223
514.1454723033819
513.9423436250581
513.7270174810287
513.4994433542345
513.2595935658578
513.0074626945324
512.7430669718851
512.4664436593789
512.177650411623
511.8767646314829
511.56388282232587
511.23911994263574
510.9026087679956
510.55449926508174
510.1949579820071
509.82416745906465
509.442325663577
509.04964545229547
508.6463540645307
508.2326926488046
507.8089158253726
507.375291286476
506.93209943563727
506.47963306679395
506.01819708357516
505.54810825860375
505.0696950323481
504.58329735063313
504.08926653951823
503.5879652159164
503.07976723210777
502.5650576520267
502.0442327567585
501.5177000760688
500.9858784421512
500.44919806112904
499.9081005971858
499.3630392636507
498.81447891503825
498.26289613378833
497.70877930527115
497.152628674516
496.5949563781111
496.0362864447739
495.4771547581731
494.91810897571384
494.3597083971418
493.8025237770541
493.24713707563706
492.6941411421143
492.1441393255173
491.5977450076389
491.0555810533488
490.5182791738638
489.9864791989964
489.46082825491294
488.941979844567
488.43059282863237
487.9273303054473
487.4328583892659
486.9478448868922
486.4729578734479
486.0088641686732
485.5562277158546
485.1157078662616
484.68795757283107
484.27362149774234
483.8733340394494
483.4877172856105
483.1173788991703
482.76290994563334
482.4248826703313
482.1038482352185
481.80033442539474
481.51484333609005
481.2478490513272
480.9997953259247
480.77109328289185
480.56211913859767
480.3732119684133
480.2046715258255
480.05675612826843
479.9296806231325
479.8236144474618
479.7386797947957
479.67494990252465
479.63244747295926
479.6111432410422
479.6109547011736
479.6317450050928
479.67332204219844
479.7354377130834
479.8177874063312
479.9200096877445
480.04168621026037
480.1823418518289
480.3414450874411
480.5184086003496
480.7125901363261
480.9232936035642
481.1497704195512
481.3912211048663
481.64679712243475
481.9156029593559
482.196698447114
482.4891013146819
482.79178996773163
483.10370648594613
483.42375982923727
483.7508292424415
484.0837678467515
484.42140640480613
484.76255724509394
485.1060183301662
485.45057745205634
485.7950165373174
486.1381160432396
486.47865942607154
486.81543766143375
487.1472537965812
487.4729275137268
487.79129968334325
488.1012368861572
488.40163588246503
488.69142800747414
488.96958347155544
489.2351155444837
489.48708460306085
489.72460202196106
489.9468338882865
490.15300452111484
490.34239977820476
490.51437013291337
490.6683335053347
490.80377783274724
490.9202633656935
491.01742467736307
491.09497237528944
491.15269450551807
491.19045764031364
491.208207641635
491.2059700942699
491.18385040437903
491.1420335610698
491.08078356043507
491.0004424933295
490.9014293000796
490.7842381972245
490.6494367832576
490.4976638321321
490.3296267849936
490.14609895231524
489.94791644030977
489.7359748170387
489.5112255349416
489.2746721275804
489.0273661993461
488.7704032276856
488.50491819812305
488.23208109297747
487.95309225524204
487.6691776496321
487.381584043272
487.0915741288258
486.800421613057
486.5094062938672
486.21980914879407
485.9329074576648
485.64996998165566
485.3722522205153
485.10099176912047
484.83740379384267
484.5826766484387
484.3379676483134
484.1043990210164
483.8830540497278
483.6749734253343
483.48115182151423
483.3025347059847
483.14001539969735
482.99443239431207
482.86656693681766
482.7571408887343
482.6668148658964
482.59618666328686
482.54578996784744
482.51609336066963
482.5074996084309
482.52034524239224
482.55490042179787
482.6113690771001
482.68988932708237
482.7905341626137
482.91331238848903
483.05816981361664
483.2249906787148
483.41359930963216
483.623761983421
483.8551889933998
484.1075368986932
484.380410943092
484.6733676275073
484.98591741983415
485.3175275857061
485.6676251234009
486.0355997859801
486.42080717363024
486.8225718791763
487.2401906698472
487.6729356886194
488.1200576587848
488.58078907587065
489.0543473715704
489.5399380349489
490.03675767683853
490.5439970240537
491.06084383081344
491.58648569560035
492.1201127725251
492.6609203672011
493.2081114080879
493.76089878526136
494.318507549532
494.88017696585456
495.44516241601343
496.012737146599
496.58219385928777
497.1528461414287
497.72402973589715
498.29510365006274
498.8654511046166
499.43448032388494
500.00162517005344
500.566345624535
501.1281281204947
501.6864857312744
502.2409582201086
502.7911119571159
503.33653971005504
503.87686031582507
504.41171824009416
504.9407830327703
505.4637486872945
505.9803329120132
506.4902763220835
506.9933415605115
507.4893123569898
507.9779925332148
508.4592049632884
508.93279049769495
509.39860685919217
509.85652751879906
510.3064405598591
510.7482475378899
511.1818623435828
511.6072100759857
512.0242259325065
512.4328541219162
512.8330468060752
513.2247630756709
513.6079679648323
513.9826315090721
514.3487278506044
514.7062343946309
515.0551310197258
515.3953993449892
515.7270220561239
516.049982292089
516.3642630934847
516.6698469133406
516.9667151905531
517.2548479857902
517.5342236792782
517.8048187295317
518.0666074917135
518.3195620939882
518.5636523699975
518.7988458453315
519.0251077756604
519.2424012339686
519.4506872441175
519.6499249578092
519.8400718719054
520.0210840830243
520.1929165763435
520.3555235455409
520.508858740842
520.652875842202
520.7875288548265
520.9127725245205
521.0285627705063
521.1348571332719
521.2316152348822
521.3187992491515
521.3963743790774
521.4643093389485
521.522576838541
521.5711540668215
521.6100231726241
521.6391717398533
521.6585932548729
521.6682875637935
521.6682613174623
521.6585284021057
521.6391103537487
521.6100367547434
521.5713456109916
521.5230837086859
521.4653069495878
521.3980806640155
521.321479900854
521.2355896939564
521.1405053044223
521.0363324383337
520.9231874396311
520.8011974578274
520.6705005903347
520.5312459992656
520.3835940026739
520.22771614027
520.0637952136709
519.8920253012735
519.7126117478797
519.5257711292571
519.3317311918747
519.1307307681258
518.9230196673523
518.7088585429703
518.4885187359683
518.2622820950196
518.0304407734482
517.7932970032989
517.551162846733
517.3043599249394
517.0532191247578
516.7980802832343
516.5392918503281
516.2772105300171
516.0122009000779
515.7446350108103
515.4748919630504
515.2033574658536
514.9304233742723
514.6564872076917
514.3819516491778
514.1072240262804
513.8327157737763
513.5588418789043
513.2860203096506
513.0146714266787
512.7452173795238
512.478081487772
512.2136876080161
511.95245948740705
511.69482010463497
511.44119099923154
511.1919915901398
510.94763848456256
510.70854477815317
510.47511934764964
510.247766137101
510.02688343886575
509.8128631706091
509.60609014955753
509.4069413652925
509.21578525240267
509.03298096436794
508.85887765008084
508.6938137344551
508.53811620459703
508.3920999030475
508.25606682963144
508.1303054534712
508.0150900367324
507.9106799716955
507.81731913275945
507.7352352449804
507.6646392707606
507.6057248163482
507.5586675598876
507.5236247027995
507.500734446234
507.49011549433146
507.4918665860145
507.50606605703337
507.5327714339386
507.5720190615745
507.6238237656324
507.6881785517791
507.765054342837
507.8543997554381
507.95614091756096
508.07018132833076
508.1964017614087
508.33466021319254
508.48479189694484
508.6466092838254
508.8199021916935
509.0044379224348
509.1999614484746
509.4061956490035
509.62284159631446
509.84957889251393
510.08606605677113
510.33194096317186
510.58682132912384
510.85030525410997
511.12197180841594
511.4013816712714
511.68807781764457
511.9815862527458
512.2814167930431
512.5870638922976
512.8980075109038
513.2137140266933
513.5336371852367
513.8572190876325
514.1838912136576
514.5130754780176
514.8441853172635
515.1766268047556
515.5097997909555
515.8430990663252
516.1759155441181
516.5076374603246
516.8376515880159
517.165344463339
517.4901036204826
517.8113188331292
518.1283833601078
518.4406951930409
518.747658303642
519.0486838882355
519.3431916069369
519.6306108148425
519.9103817825413
520.1819569032419
520.444801883795
520.6983969169365
520.9422378321404
521.1758372225722
521.3987255457553
521.610452195629
521.810586543754
521.9987189475614
522.1744617237392
522.3374500850477
522.4873430390437
522.623824247434
522.7466028449967
522.8554142172273
522.9500207360456
523.0302124529726
523.0958077492019
523.1466539420255
523.1826278471643
523.203636296605
523.2096166115614
523.2005370302448
523.1763970901903
523.1372279649433
523.0830927549501
523.0140867324942
522.9303375404887
522.8320053448708
522.7192829403054
522.5923958088252
522.4516021309688
522.2971927488807
522.1294910807883
521.948852986202
521.7556665810993
521.5503520022276
521.3333611195029
521.1051771953378
520.866314489559
520.617317808476
520.3587619965589
520.0912513691137
519.8154190842948
519.5319264527307
519.2414621829712
518.9447415609156
518.6425055613921
518.3355198900653
518.0245739538676
517.7104797582449
517.3940707295935
517.0762004614216
516.7577413829155
516.4395833487305
516.1226321489759
515.8078079385862
515.4960435855462
515.1882829378015
514.885479009102
514.5885920843992
514.2985877458409
514.0164348208424
513.7431032542116
513.4795619067986
513.2267762836215
512.9857061948826
512.7573033538005
512.5425089157433
512.3422509637
512.1574419457045
511.9889760704085
511.8377266675962
511.704543521022
511.5902501815306
511.4956412689648
511.42147977193525
511.3684943550607
511.3373766837855
511.32877877735035
511.3433104009028
511.38153650806834
511.44397474561197
511.53109303210846
511.6433072227531
511.7809788726153
511.9444131107532
512.1338566376265
512.3494958581857
512.5914551628705
512.8597953685526
513.154512331171
513.4755357414068
513.8227281142849
514.1958839830586
514.5947293071539
515.0189211033104
515.4680473082592
515.9416268803855
516.4391101469004
516.9598794020768
517.5032497611327
518.068470273253
518.6547252960639
519.2611361326504
519.8867629309074
520.5306068437061
521.1916124470351
521.8686704119424
522.5606204247807
523.2662543489213
523.9843196198096
524.7135228639077
525.452533730748
526.1999889260275
526.9544964323886
527.714639903315
528.4789832143404
529.2460751545997
530.0144542406798
530.7826536338183
531.5492061406826
532.3126492772952
533.0715303750633
533.8244117073938
534.5698756150489
535.3065296081868
536.0330114228832
536.7479940097707
537.4501904323862
538.1383586528708
538.8113061829125
539.4678945782367
540.1070437555176
540.7277361112933
541.3290204232401
541.9100155148843
542.4699136656972
543.0079837494735
543.5235740850054
544.0161149842187
544.4851209841191
544.9301927499672
545.3510186381651
545.747375908847
546.1191315801088
546.4662429178172
546.7887575570066
547.0868132529441
547.3606372619137
547.6105453537921
547.8369404604588
548.0403109660091
548.221228646608
548.380346269614
548.5183948633668
548.636180670762
548.734581801328
548.8145445979635
548.8770797357819
548.9232580717106
548.9542062645847
548.9711021864418
548.9751701465292
548.9676759502906
548.9499218162607
548.9232411744625
548.8889933705211
548.848558300124
548.8033309987018
548.7547162113377
548.7041229678904
548.6529591881153
548.602626341202
548.5545141836395
548.509995598719
548.4704215602435
548.4371162421802
548.4113722950741
548.3944463090298
548.3875544819532
548.3918685105298
548.4085117201333
548.4385554484651
548.4830156962495
548.5428500568039
548.6189549347607
548.7121630626405
548.823241322378
548.952888877269
549.1017356181403
549.2703409258565
549.4591927506057
549.668707006748
549.8992272804245
550.1510248455759
550.4242989825234
550.7191775917984
551.0357180945263
551.373908609375
551.7336693948037
552.1148545441513
552.5172539200092
552.9405953133183
553.3845468117505
553.8487193612034
554.332669503576
554.8359022734406
555.357874235743
555.8979966462799
556.4556387164718
557.0301309638262
557.6207686294651
558.2268151441813
558.8475056246664
559.4820503818637
560.1296384238332
560.7894409360872
561.4606147229848
562.142305594458
562.8336516830726
563.5337866772256
564.241842957129
564.9569546211252
565.6782603908155
566.4049063844926
567.136048749367
567.8708561441333
568.6085120645338
569.3482170056604
570.0891904558514
570.8306727181945
571.5719265567384
572.3122386655822
573.0509209600441
573.7873116901128
574.5207763773564
575.2507085774037
575.9765304710456
576.6976932878605
577.413677567054
578.1239932609676
578.8281796874121
579.5258053376215
580.2164675472071
580.8997920380083
581.5754323391053
582.2430690956609
582.9024092746153
583.5531852765529
584.1951539632529
584.8280956105175
585.4518127959522
586.0661292313872
586.6708885495732
587.2659530546796
587.8512024459707
588.4265325237964
588.9918538867632
589.5470906286508
590.0921790432626
590.627066344984
591.1517094123753
591.6660735616905
592.1701313567795
592.6638614613539
593.147247539092
593.6202772065992
594.0829410438348
594.535231666072
594.9771428608975
595.4086687931683
595.8298032802754
596.2405391394915
596.6408676085871
597.0307778403243
597.410256470897
597.7792872619106
598.1378508150952
598.4859243585777
598.8234816031833
599.1504926668772
599.4669240651028
599.7727387644308
600.0678962966143
600.3523529298948
600.6260618942307
600.888973657005
601.141036245655
601.3821956135743
601.6123960455575
601.8315805990853
602.0396915778963
602.2366710345137
602.4224612984659
602.5970055267896
602.76024827329
602.912136072936
603.0526180377443
603.181646460491
603.2991774226006
603.4051714026243
603.4995938817968
603.5824159432049
603.6536148612221
603.713174677995
603.7610867639298
603.7973503593187
603.8219730944606
603.834971485868
603.8363714063922
603.8262085273408
603.804528730922
603.7713884916013
603.726855225192
603.6710076047086
603.603935842158
603.5257419355053
603.4365398801749
603.3364558445527
603.2256283091103
603.1042081689382
602.9723587996217
602.8302560865257
602.6780884177309
602.5160566409687
602.3443739850374
602.1632659463171
601.9729701410706
601.7737361242334
601.5658251754204
601.3495100529092
601.1250747163953
600.8928140193614
600.6530333719343
600.4060483751551
600.1521844275973
599.8917763052625
599.6251677157459
599.3527108276529
599.0747657763178
598.791700146887
598.5038884358472
598.2117114920927
597.9155559385445
597.6158135753277
597.3128807655252
597.0071578045613
596.6990482742483
596.3889583825261
596.0772962899288
595.76447142385
595.4508937817259
595.1369732242867
594.8231187600594
594.5097378222974
594.1972355395313
593.886014000976
593.5764715180738
593.2690018834566
592.9639936286156
592.6618292815596
592.3628846257881
592.0675279619493
591.7761193735635
591.4890099982282
591.2065413057175
590.9290443843382
590.6568392368896
590.3902340875389
590.1295247009556
589.874993715097
589.626909989074
589.3855279675216
589.1510870629471
588.9238110575404
588.7039075259463
588.4915672805281
588.2869638406313
588.0902529273417
587.9015719852024
587.7210397323171
587.5487557402495
587.3848000451339
587.2292327913914
587.0820939094083
586.9434028285092
586.8131582265441
586.6913378173584
586.5778981773748
586.472774612489
586.3758810664145
586.2871100715513
586.206332743363
586.1333988191077
586.0681367416494
586.0103537890323
585.9598362503939
585.9163496486591
585.8796390103367
585.8494291826477
585.8254251980832
585.8073126863577
585.7947583335866
585.7874103884121
585.7848992146298
585.7868378896724
585.792822848162
585.8024345695314
585.815238308514
585.8307848671379
585.8486114067432
585.8682422984305
585.8891900101781
585.9109560287019
585.9330318140665
585.9548997849583
585.9760343323451
585.9959028590266
586.0139668424681
586.0296829182744
586.0425039816931
586.0518803045667
586.0572606652186
586.0580934888145
586.0538279958155
586.0439153563192
586.0278098482654
586.0049700175114
585.9748598377015
585.9369498677831
585.8907184049062
585.8356526303625
585.7712497461828
585.6970181000412
585.6124782961917
585.5171642901195
585.4106244646134
585.2924226850242
585.1621393315784
585.019372306737
584.8637380157297
584.6948723185154
584.5124314515531
584.3160929179028
584.1055563444003
583.8805443048685
583.6408031084998
583.3861035527002
583.1162416398856
582.8310392578427
582.5303448232797
582.2140338881863
581.8820097086361
581.534203775703
581.1705763081244
580.7911167063526
580.3958439676626
579.9848070620042
579.5580852682905
579.1157884708465
578.658057415717
578.1850639264591
577.697011078948
577.1941333346427
576.6766966316632
576.1449984329538
575.5993677307018
575.0401650061145
574.4677821435455
573.882642297801
573.2851997131972
572.6759394927816
572.0553773159544
571.4240591025806
570.7825606215837
570.1314870418943
569.4714724234649
568.8031791459856
568.1272972729248
567.4445438485207
566.7556621253486
566.0614207200593
565.3626126949176
564.6600545627927
563.9545852133567
563.2470647583805
562.5383732941801
561.8294095794283
561.1210896267373
560.414345206679
559.7101222631926
559.009379239686
558.3130853155151
557.6222185530313
556.93776395584
556.2607114393352
555.592053715039
554.9327840908043
554.2838941894473
553.6463715889312
553.0211973878078
552.4093437002176
551.8117710853736
551.2294259170744
550.6632376994495
550.1141163357591
549.5829493576813
549.0705991231205
548.577899991211
548.1056554838035
547.6546354432955
547.2255731972127
546.8191627404588
546.436055946593
546.0768598199477
545.7421338007878
545.4323871360778
545.1480763287138
544.8896026782934
544.6573099266471
544.4514820214
544.272341010816
544.120045083118
543.9946867633029
543.8962912802206
543.8248151163574
543.780144752338
543.7620956176681
543.7704112586814
543.8047627339904
543.8647482469781
543.9498930240336
544.0596494463332
544.1933974420074
544.3504451445016
544.5300298218126
544.7313190800612
544.9534123435932
545.1953426125057
545.4560784971794
545.7345265280597
546.0295337375253
546.3398905092816
546.664333689374
547.0015499514944
547.3501794078328
547.7088194553135
548.0760288457002
548.4503319666597
548.8302233195374
549.2141721783252
549.6006274130676
549.988022459762
550.3747804177773
550.7593192549123
551.1400570994152
551.5154175975694
551.883835314872
552.243761158389
552.5936677974634
552.9320550596046
553.2574552781377
553.568438568148
553.8636180072746
554.1416546979752
554.4012626881636
554.6412137276261
554.8603418382829
555.0575476770609
555.2318026708977
555.3821529041544
555.5077227395369
555.6077181545819
555.6814297769058
555.7282356025911
555.747603383153
555.7390926676911
555.7023564883683
555.6371426792052
555.543294820125
555.4207528002262
555.2695529963786
555.0898280653186
554.8818063493793
554.6458108979534
554.382258108862
554.0916559958152
553.7746020900721
553.4317809863214
553.063961544582
552.6719937615734
552.2568053265838
551.8193978783431
551.3608429807654
550.8822778366247
550.3849007593387
549.8699664240291
549.3387809198705
548.7926966265189
548.2331069381185
547.6614408591515
547.0791574971047
546.4877404774156
545.8886923064886
545.283528708683
544.6737729631363
544.0609502660496
543.4465821436868
542.8321809408106
542.2192444085954
541.6092504152919
541.0036518021011
540.4038714058079
539.811297268676
539.2272780549786
538.653118692299
538.090076254451
537.539356101453
537.0021082904511
536.4794242699462
535.9723338681483
535.4818025847128
535.0087291934811
534.5539436621592
534.1182053931486
533.702201788053
533.3065471367154
532.931781830012
532.5783718939779
532.2467088412268
531.9371098341036
531.649818152512
531.3850039579348
531.142765343797
530.9231296610707
530.7260551067735
530.5514325619001
530.3990876643029
530.2687831011066
530.1602211044242
530.0730461334853
530.0068477256924
529.9611634986421
529.9354822847413
529.929247379763
529.941859886596
529.9726821354107
530.0210411615512
530.0862322226682
530.1675223368991
530.2641538242754
530.3753478339947
530.5003078407626
530.6382230940198
530.7882720046308
530.9496254544008
531.1214500146896
531.3029110612898
531.4931757736574
531.6914160075567
531.8968110312301
532.1085501162461
532.3258349752393
532.5478820398553
532.7739245732919
533.003214612898
533.2350247393449
533.468649669952
533.7034076748222
533.9386418154746
534.1737210066367
534.4080409028231
534.6410246122383
534.8721232414331
535.100816274947
535.3266117949781
535.549046546821
535.7676858564395
535.9821234070837
536.1919808824099
536.3969074840693
536.5965793321419
536.7906987570951
536.978993492214
537.1612157756496
537.3371413714148
537.5065685187494
537.6693168192996
537.8252260715635
537.9741550619502
538.115980321663
538.2505948584419
538.3779068719572
538.497838461348
538.6103243330995
538.7153105171329
538.8127530986277
538.9026169726791
538.984874628495
539.0595049693749
539.1264921742323
539.1858246059782
539.237493771642
539.2814933386168
539.3178182108436
539.3464636681956
539.3674245717531
539.3806946371277
539.3862657774364
539.3841275170474
539.3742664767711
539.3566659307312
539.3313054346885
539.2981605251996
539.2572024886796
539.2083981990648
539.1517100223799
539.0870957861471
539.0145088112732
538.9338980038002
538.8452080037629
538.7483793883441
538.6433489264267
538.5300498815236
538.4084123599953
538.2783637015732
538.1398289092921
537.9927311159067
537.8369920837357
537.6725327347392
537.499273707505
537.3171359376992
537.1260412584702
536.9259130173025
536.7166767058195
536.4982605990241
536.270596400506
536.0336198901928
535.7872715712174
535.5314973125963
535.2662489845786
534.9914850836784
534.7071713445729
534.4132813362336
534.1097970398596
533.7967094063451
533.4740188912461
533.1417359654154
532.7998815996675
532.4484877219785
532.0875976457894
531.7172664680352
531.3375614355784
530.9485622788246
530.5503615114496
530.143064695285
529.7267906695297
529.3016717435634
528.8678538527763
528.4254966769491
527.974773720838
527.5158723567076
527.048993828657
526.574353218649
526.0921793741977
525.6027147977203
525.1062154975783
524.6029508008909
524.0932031282903
523.5772677309095
523.0554523899422
522.5280770791278
521.9954735905302
521.4579851240529
520.9159658411819
520.3697803835091
519.819803356661
519.2664187803056
518.710019504994
518.1510065966637
517.5897886896767
517.0267813093559
516.4624061651036
515.8970904152565
515.3312659048897
514.7653683778867
514.1998366646825
513.6351118471758
513.0716364024294
512.5098533268754
511.9502052427763
511.39313348875606
510.83907719629394
510.2884723541595
509.7417508628613
509.1993395812412
508.66165936738673
508.12912411608755
507.6021397951376
507.0811034828687
506.5664024093523
506.05841300373925
505.5574999502786
505.06401525560904
504.5782973299307
504.10067008464375
503.63144204900516
503.17090550833973
502.7193356663815
502.27698983433686
501.8441066492355
501.4209053241306
501.00758493269234
500.60432373069807
500.21127851686975
499.8285840354794
499.45635242312767
499.09467270203237
498.7436103220554
498.4032067535796
498.0734791332186
497.75441996422165
497.4459968732813
497.1481524253089
496.86080399758805
496.5838437145049
496.3171384438972
496.06052985592333
495.81383454521904
495.57684421690533
495.34932593676564
495.1310224457077
494.92165253846986
494.72091150633764
494.52847164342853
494.3439828158731
494.1670730929976
493.9973494393567
493.8343984661884
493.67778724062043
493.52706415072714
493.38175982431744
493.24138809914507
493.10544704207683
492.97342001459185
492.8447767817802
492.71897466176995
492.595459712314
492.4736679511279
492.3530266065385
492.2329553949885
492.11286782191274
491.99217250245846
491.8702744985028
491.7465766684419
491.6204810263514
491.4913901074023
491.35870833657543
491.2218433976997
491.0802075997285
490.9332192370777
490.78030394082754
490.6208960176154
490.45443977304177
490.2803908164094
490.098217343677
489.907401395597
489.7074400880964
489.4978468120524
489.27815239970846
489.04790625507155
488.8066774457517
488.5540557539109
488.2896526842898
488.0131024276061
487.72406277788934
487.42221600259705
487.10726966458907
486.778957395242
486.4370396181479
486.0813042229864
485.7115671892701
485.32767315975946
484.92949596345295
484.5169390882137
484.0899361032118
483.6484510314506
483.19247867272765
482.72204487744915
482.23720677169075
481.7380529338532
481.22470352323177
480.6973103607761
480.1560569622753
479.6011585241674
479.03286186211966
478.45144530247444
477.85721852660424
477.2505223681397
476.6317285629048
476.00123945126785
475.35948763247177
474.7069355703725
474.0440751498425
473.37142718295047
472.68954086387794
471.9989931714316
471.3003882179286
470.5943565431661
469.88155435212116
469.162662694981
468.43838658805913
467.7094540741024
466.9766152205044
466.2406410539656
465.50232243018
464.76246883722166
464.0219071314082
463.28148020456536
462.54204558174814
461.80447394864063
461.06964760815
460.33845886603916
459.6118083457533
458.8906032329454
458.1757554505767
457.4681797658494
456.7687918306404
456.0785061574887
455.39823403362584
454.7288813760121
454.0713465308111
453.4265180211951
452.7952722478806
452.1784711473551
451.5769598133082
450.9915640873462
450.42308812564403
449.8723119487056
449.3399889819139
448.8268435950647
448.33356864956244
447.8608230623898
447.40922939641115
446.9793714869624
446.5717921150195
446.1869907375696
445.8254212860792
445.4874900441497
445.1735536155816
444.8839169941584
444.6188317465014
444.37849431928817
444.16304448198207
443.97256391599694
443.80707496097574
443.6665395285633
443.55085819367724
443.45986947281256
443.393349298376
443.35101069744417
443.33250368259286
443.3374153616546
443.365270272432
443.415530947481
443.4875987130663
443.58081472532336
443.6944612455566
443.82776315547983
443.97988971203944
444.1499565403061
444.33702786174376
444.54011895397775
444.75819883694174
444.99019317908295
445.2349874160996
445.49143007342377
445.75833628241173
446.03449147899
446.3186552723528
446.60956547025324
446.90594224640057
447.2064924344305
447.509913931944
447.81490019723043
448.1201448205302
448.42434615108033
448.72621196071776
449.0244641244034
449.31784329767737
449.60511357079406
449.8850670791363
450.1565285494262
450.4183597611991
450.6694639031031
450.9087898038903
451.1353360184539
451.34815474987784
451.54635558908194
451.72910905424874
451.8956499128857
452.0452802701805
452.17737240819895
452.29137136146215
452.38679721553933
452.4632471162884
452.5203969782286
452.55800288159924
452.57590214919674
452.57401409587465
452.5523404454415
452.5109654114794
452.45005544041635
452.36985861703124
452.2707037344168
452.1529990322224
452.0172306087844
451.863960514477
451.69382453533836
451.5075296777259
451.305851366367
451.08963036961785
450.85976946702624
450.6172298753615
450.3630274501885
450.0982286809074
449.82394649797976
449.5413359117992
449.251589503392
448.9559327878253
448.65561947182033
448.3519266275218
448.04614980470427
447.739598103873
447.4335892326933
447.12944456803297
446.8284842456118
446.53202229890564
446.2413618685444
445.95779050294834
445.68257557035474
445.41695980166855
445.1621569827364
444.91934781370077
444.68967595208625
444.47424425516016
444.2741112359159
444.0902877457447
443.92373389556064
443.7753562257975
443.6460051342993
443.53647256967525
443.4474899962222
443.37972663507077
443.333787984758
443.3102146229756
443.30948128979054
443.3319962511727
443.378100940237
443.4480698722319
443.5421108279616
443.6603652990313
443.8029091870746
443.96975374795545
444.1608467708448
444.3760739810903
444.6152606548828
444.87817343290834
445.16452231941287
445.47396285245725
445.80609843061643
446.16048278089374
446.53662255224947
446.9339800188754
447.3519758771585
447.7899921202005
448.2473749738083
448.7234378780122
449.2174644984118
449.72871175200214
450.2564128325313
450.79978022090654
451.3580086667236
451.9302781276285
452.5157566538473
453.11360320590694
453.72297039432675
454.3430071308639
454.97286118175293
455.61168161424814
456.25862112869373
456.9128382692776
457.5734995075778
458.23978119389454
458.91087137228
459.5859714561176
460.2642977620428
460.94508290090283
461.6275770253163
462.31104893423384
462.99478703572925
463.67810017000613
464.36031829529156
465.0407930400063
465.71889812529236
466.3940296626033
467.0656063316085
467.733069444115
468.3958829000975
469.0535330422451
469.7055284157467
470.3513994403373
470.990698001865
471.6229969707849
472.2478896551094
472.86498919543334
473.47392790967
474.074356595078
474.6659437951005
475.24837503842156
475.821352057444
476.38459199310205
476.9378265926398
477.48080140669407
478.01327499167024
478.53501812302704
479.0458130247627
479.5454526200398
480.03373980751655
480.51048676754885
480.9755143019823
481.4286512107738
481.86973370829696
482.29860488180975
482.71511419419045
483.11911703263036
483.51047430450416
483.88905208116597
484.2547212900241
484.6073574548765
484.94684048410625
485.27305450596845
485.58588774992506
485.8852324727793
486.1709849281407
486.44304537750804
486.7013181410001
486.9457116854961
487.1761387477232
487.39251648975335
487.59476668433246
487.7828159274604
487.9565958756322
488.11604350516217
488.2611013910382
488.3917180029003
488.50784801600025
488.6094526352043
488.696499930137
488.76896517946466
488.8268312222467
488.8700888142852
488.8987369873954
488.912783409525
488.9122447436909
488.89714700372724
488.8675259048537
488.8234272071262
488.7649070498896
488.69203227537076
488.6048807395959
488.50354160889776
488.3881156404008
488.2587154450767
488.115465732196
487.95850353420695
487.7879784112406
487.60405263458927
487.40690134864474
487.1967127108319
486.973688009072
486.73804175634683
486.4900017619803
486.2298091792861
485.9577185292767
485.67399770020336
485.3789279227773
485.07280372092754
484.7559328379331
484.42863613773335
484.0912474812027
483.7441135771613
483.38759380788923
483.0220600289009
482.6478963426658
482.26549884591947
481.8752753501815
481.4776450750929
481.0730383141993
480.66189607284014
480.24466967784485
479.8218203587468
479.3938188002056
478.96114466529303
478.52428608929944
478.0837391437485
477.64000727035324
477.193600684733
476.74503574980486
476.29483431883375
475.8435230482292
475.39163268028426
474.93969729618215
474.4882535397298
474.0378398123924
473.58899544029566
473.1422598139863
472.6981715018479
472.25726733819744
471.8200814872463
471.38714448427226
470.9589822554775
470.53611511813995
470.11905676282123
469.70831321957337
469.30438181026165
468.9077500892652
468.5188947749517
468.138280674459
467.7663596044355
467.40356931052264
467.05033238852855
466.7070552103592
466.3741268578726
466.05191806794085
465.7407801921275
465.44104417445305
465.15301955076313
464.8769934732622
464.61322976382104
464.3619679996972
464.12342263532395
463.89778216382376
463.6852083219171
463.4858353418791
463.29976925412706
463.12708724391473
462.9678370654933
462.82203651701565
462.68967297932886
462.5707030216184
462.46505207671794
462.3726141887289
462.2932518353729
462.226795827288
462.1730452862277
462.13176770388566
462.10269908284783
462.08554416093097
462.0799767199016
462.08563997927246
462.10214707554826
462.12908162697295
462.1659983834814
462.2124239611721
462.2678576602475
462.3317723650349
462.4036155243776
462.4828102103262
462.5687562526909
462.66083144670665
462.7583928308202
462.8607780313264
462.9673066702682
463.0772818327236
463.1899915893301
463.30471056965337
463.42070158188346
463.5372172742524
463.65350183347124
463.76879271540093
463.8823224031168
463.993320187528
464.10101396584116
464.20463205332265
464.30340500382357
464.3965674344128
464.4833598493275
464.5630304583326
464.63483698452023
464.69804845661196
464.7519469809116
464.7958294881304
464.82900945034453
464.8508185633697
464.86060838990585
464.8577519589073
464.84164531680716
464.81170902647904
464.76738961012273
464.70816093257986
464.6335255219391
464.543015824667
464.4361953928632
464.31266000155944
464.1720386942625
464.0139947552137
463.8382266071089
463.64446863329886
463.4324919237829
463.2021049445813
462.95315413033063
462.6855244001771
462.3991395972587
462.09396285218116
461.76999687105325
461.4272841488007
461.0659071085889
460.68598816825374
460.2876897346944
459.8712141272243
459.4368034309598
458.9847392813425
458.5153425808642
458.028973149052
457.52602930675124
457.00694739571543
456.47220123447823
455.92230151136613
455.3577951153718
454.77926440553506
454.187326419378
453.5826320208167
452.96586498786985
452.3377410403966
451.6990068079887
451.0504387380564
450.3928419440988
449.7270489940928
449.05391863888593
448.3743344804293
447.6892035796523
446.99945500376316
446.30603831276795
445.60992198508404
444.91209178224676
444.21354905277354
443.5153089753333
442.8183987414554
442.1238556780995
441.4327253105583
440.7460593664161
440.06491372166647
439.39034629047893
438.72341486044843
438.06517487550207
437.41667716901264
436.77896565002123
436.1530749458343
435.540028004689
434.9408336626212
434.35648417913154
433.7879527466864
433.2361909795486
432.70212638793475
432.18665984401315
431.6906630467186
431.21497599283157
430.7604044622593
430.3277175258945
429.91764508484016
429.53087545018064
429.16805297283076
428.8297757333151
428.51659330160345
428.2290045773544
427.96745572108114
427.7323381868761
427.5239868673884
427.3426783617626
427.1886293771669
427.0619952743896
426.9628687677791
426.89127878955435
426.84718952817667
426.83049965006825
426.84104171346655
426.878581782649
426.9428192501396
427.03338687381216
427.1498510350171
427.29171222302057
427.4584057501523
427.64930270108226
427.86371111862917
428.1008774274741
428.35998809610993
428.640171536246
428.94050023770444
429.25999313566825
429.597618205965
429.95229528284256
430.3228990925046
430.7082624944985
431.107179921829
431.51841100946285
431.940684399707
432.3727017118074
432.8131416620579
433.26066431971026
433.71391548303495
434.17153115897764
434.63214212904836
435.0943785833913
435.5568748044466
436.0182738811331
436.4772324340481
436.93242533183906
437.3825503786878
437.8263329527717
438.2625305755727
438.6899373919414
439.10738854098605
439.5137643981945
439.90799466968167
440.2890623200426
440.65600731589933
441.0079301678264
441.3439952539644
441.6634339093969
441.9655472662611
442.2497088305991
442.51536678290387
442.76204599010083
442.98934971757376
443.19696103114535
443.38464388064546
443.55224385856275
443.699688629108
443.82698802481576
443.9342338095505
444.02159910849076
444.0893375074028
444.13778182529325
444.1673425663755
444.17850605909007
444.1718322916424
444.147952455151
444.10756620697885
444.0514386680709
443.9803971692354
443.89532776228043
443.79717151281545
443.68692059241266
443.56561418868404
443.43433425261185
443.2942011031893
443.14636891002567
442.992021075052
442.8323655348122
442.66863000502497
442.50205718914935
442.33389997264703
442.16541662448833
441.9978660272333
441.83250295671144
441.6705734318889
441.51331015498755
441.36192806129526
441.21761999737544
441.08155254552315
440.95486201135327
440.83865059038885
440.73398272847083
440.64188168964876
440.5633263440165
440.4992481866802
440.45052859768504
440.4179963513417
440.4024253820036
440.40453281192197
440.4249772453772
440.46435733186973
440.52321059973923
440.602012560152
440.7011760800148
440.8210510209883
440.9619241404197
441.12401924873194
441.3074976165809
441.5124586239285
441.73894064208247
441.98692213873255
442.2563229950749
442.5470060232408
442.8587786714478
443.1913949036406
443.5445572398396
443.9179189429543
444.3110863374749
444.7236212451903
445.1550435228642
445.60483368660005
446.07243560750663
446.55725926334577
447.05868353102346
447.5760590050248
448.1087108272561
448.65594151418776
449.2170337676575
449.79125325623266
450.3778513546306
450.976067829393
451.58513345972875
452.2042725832067
452.8327055567646
453.4696511243357
454.1143286832785
454.7659604426482
455.4237734672115
456.0870016020029
456.7548872731352
457.42668316147046
458.1016537466267
458.7790767196117
459.4582442632009
460.13846419998964
460.8190610088495
461.49937671126725
462.1787716297482
462.85662502114104
463.53233558839617
464.20532187487584
464.87502254583757
465.54089656215774
466.20242325175366
466.8591022845627
467.51045355728684
468.1560169943909
468.79535227206924
469.42803847208233
470.05367367247754
470.67187448225513
471.2822755270755
471.8845288930687
472.47830353568787
473.063284660347
473.639173081371
474.20568456559823
474.7625491667243
475.30951055621017
475.8463253563152
476.3727624805235
476.88860248632324
477.3936369449336
477.8876678322249
478.37050694472805
478.8419753442304
479.3019028340321
479.7501274694973
480.1864951051026
480.6108589797914
481.0230793420916
481.4230231160794
481.8105636088599
482.185580259856
482.54795843184905
482.89758924337116
483.23436944170567
483.55820131539485
483.86899264484913
484.1666566894267
484.45111220916465
484.7222835191227
484.9801005740875
485.22449908121484
485.4554206380823
485.67281289356634
485.87662972896345
486.0668314568254
486.2433850350385
486.40626429370246
486.5554501725265
486.69093096672304
486.81270257965537
486.9207687806183
487.01514146608685
487.09584092265123
487.16289608980907
487.21634482079423
487.25623413968674
487.28262049311314
487.29556999491047
487.295158662191
487.2814726412878
487.2546084220494
487.2146730389747
487.1617842577379
487.0960707457372
487.0176722254664
486.9267396096925
486.8234351176606
486.70793237176395
486.5804164742563
486.44108406366877
486.2901433506868
486.1278141333202
485.95432779127884
485.7699272595394
485.57486698114445
485.36941283931816
485.153842069077
484.9284431485848
484.6935156705776
484.4493701942235
484.19632807774275
483.9347212920482
483.66489221558703
483.38719341051376
483.1019873803077
482.80964630893214
482.5105517815868
482.20509448709385
481.89367390191813
481.57669795578596
481.2545826787972
480.9277518298853
480.59663650647525
480.261674735193
479.92331104346044
479.58199601174454
479.2381858061823
478.89234169127315
478.5449295223184
478.1964192173
477.84728420791635
477.49800086958476
477.14904793032065
476.80090585847415
476.4540562293815
476.1089810710646
475.7661621891743
475.4260804714506
475.08921517208023
474.75604317643104
474.42703824672276
474.10267024926884
473.7834043640243
473.46970027729867
473.16201135860473
472.8607838227493
472.56645587840177
472.2794568645536
472.00020637647725
471.7291133829439
471.46657533657134
471.2129772792492
470.9686909446833
470.7340738602182
470.5094684502361
470.2952011435489
470.0915814873057
469.8989012700447
469.71743365663485
469.54743233790964
469.38913069786986
469.24274100139553
469.1084536054563
468.9864361968522
468.8768330595616
468.7797643747831
468.69532555675124
468.6235866274132
468.56459163306636
468.51835810605985
468.4848765746306
468.4641101238628
468.45599401067136
468.46043533561414
468.47731277419854
468.5064763701843
468.5477473931682
468.6009182625453
468.66575253979664
468.7419849909088
468.8293217205669
468.9274403795492
469.03599044647495
469.1545935848025
469.282844075732
469.4203093273826
469.56653046029805
469.72102296903176
469.8832774592132
470.0527604591788
470.2289153049649
470.4111630972317
470.5989037284197
470.7915169781218
470.98836367431807
471.1887869178459
471.3921133672016
471.5976545804344
471.8047084105553
472.01256045064747
472.2204855247282
472.42774922028855
472.6336094583618
472.83731809691875
473.03812256334584
473.2352675117064
473.4279965005392
473.6155536870838
473.79718553393536
473.9721425240499
474.139680879846
474.29906428200195
474.44956558345524
474.59046851408533
474.7210693716091
474.84067869428935
474.9486229110922
475.04424596494624
475.12691090479643
475.19600144220414
475.2509234683141
475.29110652713086
475.3160052412755
475.3251006866625
475.317901712828
475.2939462059881
475.2528022922247
475.19406947849393
475.11737972942854
475.02239847815804
474.908825569584
474.7763961347832
474.6248813954585
474.4540893976096
474.26386567382343
474.0540938338094
473.8246960830263
473.57563366939297
473.30690725817607
473.0185572352387
472.7106639389497
472.3833478211406
472.03676953754695
471.67112996819486
471.2866701682482
470.88367124986183
470.46245419561046
470.0233796040525
469.5668473679845
469.09329628593827
468.6032036074286
468.09708451241335
467.5754915253535
467.03901386414634
466.4882767240917
465.92394049696304
465.34669992515524
464.75728319076876
464.15645093934853
463.5449952378917
462.92373846668573
462.2935321445608
461.6552556871537
461.0098150978121
460.3581415907606
459.70119014617177
459.0399379968282
458.3753830460937
457.70854221695055
457.0404497319322
456.3721553239131
455.7047223778732
455.0392260039261
454.3767510421264
453.71838999987756
453.065240923144
452.4184052030737
451.7789853200195
451.14808252737015
450.5267944780274
449.9162127967572
449.31742060201356
448.7314899812156
448.1594794238963
447.6024312175972
447.0613688118551
446.5372941561604
446.0311850182958
445.54399228996897
445.07663728713806
444.6300090529519
444.20496167174286
443.80231160296887
443.42283504443924
443.06726533456464
442.7362904037546
442.43055028541824
442.150634697295
441.89708070407426
441.670370472443
441.4709291298257
441.29912273821054
441.1552563945029
441.0395724688009
440.95224899186235
440.8933982028446
440.8630652681385
440.8612271817411
440.88779185717294
440.942597420478
441.02541171331336
441.1359320144696
441.27378498745065
441.4385268609423
441.6296438481289
441.846552809902
442.0886021660373
442.35507305738423
442.645180760988
442.9580763588599
443.29284865991787
443.64852637341914
444.0240805309872
444.4184271530641
444.8304301543632
445.25890448169065
445.7026194762905
446.16030245160914
446.6306424760816
447.1122943492958
447.6038827586318
448.10400660231045
448.6112434636975
449.1241542206769
449.64128777287897
450.1611858686634
450.6823880129922
451.2034364366865
451.7228811070087
452.2392847590617
452.7512279271022
453.2573139545481
453.7561739612817
454.24647174685026
454.72690860827606
455.19622805133633
455.6532203744028
456.0967271043446
456.5256452645777
456.9389314559497
457.3356057317663
457.7147552488944
458.0755376776047
458.41718435366226
458.7390031571858
459.040381103898
459.32078663541904
459.57977159612705
459.8169728852019
460.032113774027
460.2250048810149
460.3955447978171
460.54372036278124
460.66960657941803
460.7733661794501
460.8552488318397
460.91559000105997
460.9548094597802
460.97340946304047
460.9719725928245
460.9511592837215
460.911705042006
460.85441737190683
460.7801724241414
460.6899113829651
460.58463660899474
460.4654075560158
460.33333648090314
460.1895839666851
460.0353542796413
459.87189058205325
459.70047002281444
459.5223987285484
459.3390067182052
459.15164276428294
458.9616692238491
458.7704568624538
458.5793796938726
458.38980985836895
458.2031125617529
458.0206410970068
457.84373196965714
457.67370014739225
457.5118344536327
457.35939312385995
457.21759954250274
457.08763817707387
456.970650725053
456.867732487792
456.77992898441585
456.7082328173282
456.6535807994822
456.616851352052
456.59886217965186
456.60036822878885
456.6220599337742
456.66456175281
456.72843099544684
456.8141569411278
456.92216024709114
457.05279264246417
457.206336903975
457.38300710735103
457.5829491471707
457.80624151667826
458.0528963379204
458.3228606314886
458.6160178141635
458.93218941185654
459.27113697444616
459.6325641784292
460.01611910269065
460.4213966621638
460.8479411837239
461.29524910834306
461.7627718032572
462.2499184677038
462.7560591157297
463.28052761960765
463.8226247975554
464.3816215297283
464.956761886822
465.54726625607617
466.15233444998415
466.7711487836159
467.40287710710203
468.0466757805063
468.7016925790325
469.367069517289
470.0419455821879
470.72545936490536
471.41675158319975
472.1149674862959
472.81925913547315
473.52878755441833
474.24272474432223
474.96025555963683
475.68057944136035
476.40291200560046
477.126486486028
477.85055502971835
478.5743898467253
479.29728421450744
480.0185533390932
480.7375350755856
481.4535905113063
482.16610441552325
482.8744855603181
483.57816691769193
484.2766057384534
484.9692835188389
485.6557058612079
486.33540223550557
487.0079256484781
487.6728522278495
488.32978072882094
488.97833197031315
489.6181482083823
490.2488924542744
490.8702477446151
491.48191637116685
492.08361907744836
492.6750942293182
493.25609696645876
493.8263983414791
494.38578445307155
494.9340555793149
495.4710253168961
495.9965197316925
496.5103765258029
497.01244422579026
497.50258139652766
497.98065588464294
498.44654409518824
498.90013030482925
499.3413060144688
499.76996934382316
500.18602447003354
500.58938111198444
500.9799540615931
501.35766276293776
501.72243093972577
502.07418627121865
502.412860116334
502.7383872852928
503.0507058579182
503.34975704746205
503.6354851086148
503.907837288103
504.1667638160563
504.41221793617495
504.6441559726944
504.86253743213626
505.0673251378005
505.25848539492466
505.4359881844361
505.59980738331285
505.74992100975805
505.8863114915357
506.00896595580105
506.11787653860483
506.2130407121223
506.2944616275655
506.3621484716905
506.41611683476214
506.4563890877873
506.48299476679597
506.4959709618932
506.495362708759
506.4812233802636
506.4536150758595
506.41260900647495
506.358285872746
506.29073623456776
506.2100608700827
506.11637112237514
506.00978923231025
505.89044865608435
505.75849436611185
505.6140831338908
505.4573837935138
505.2885774845853
505.10785787340603
504.9154313513416
504.7115172093235
504.4963477874788
504.27016859896327
504.03323842713274
503.7858293952325
503.52822700784174
503.26073016334635
502.9836511367184
502.6973155318831
502.40206220296113
502.0982431436797
501.7862233442516
501.46638061504876
501.13910537643034
500.8048004140847
500.4638805992937
500.11677257355717
499.7639143970654
499.40575516062916
499.04275456075084
498.67538243755695
498.30411827533067
497.9294506654359
497.5518767315218
497.17190151700856
496.79003733498865
496.406803080812
496.0227235077994
495.63832846667293
495.25415210941867
494.8707320584259
494.4886085418835
494.1083234965294
493.7304196389885
493.3554395070997
492.98392447283175
492.6164137285028
492.25344324815086
491.89554472609234
491.54324449485085
491.1970624247416
490.8575108075473
490.5250932269199
490.20030341831074
489.883624121353
489.5755259277212
489.27646612759094
488.98688755793233
488.7072174559507
488.4378663210883
488.1792267890625
487.9316725214799
487.69555711463835
487.4712130311969
487.25895055842506
487.05905679672475
486.87179468210286
486.697402046274
486.5360907180623
486.38804566972277
486.2534242117456
486.1323552396287
486.0249385359769
485.93124413116874
485.8513117257389
485.7851501775189
485.7327370564292
485.69401826964724
485.6689077597067
485.6572872778933
485.65900623506553
485.6738816317502
485.70169806912605
485.7422078422444
485.79513111658383
485.86015618879543
485.9369398322488
486.02510772770086
486.12425497909476
486.23394671419925
486.3537187694935
486.4830784583915
486.62150542155496
486.7684525577052
486.92334703298627
487.08559136659244
487.25456459007444
487.42962347746027
487.6101038430501
487.7953219034704
487.9845757002945
488.17714657927
488.3723007219915
488.5692907256864
488.76735722662863
488.9657305626044
489.16363246980245
489.3602778094674
489.55487631964394
489.7466343872801
489.9347568358969
490.11844872415975
490.2969171509472
490.46937306267836
490.6350330585953
490.7931211895396
490.94287074567353
491.08352602858025
491.21434410323076
491.33459652543553
491.44357104052756
491.5405732491046
491.6249282357337
491.6959821565979
491.7531037821673
491.7956859911497
491.82314721218285
491.8349328099722
491.8305164128873
491.80940117943857
491.7711210014372
491.71524164197467
491.64136180663553
491.54911414664844
491.4381661929109
491.3082212200007
491.15901903947906
490.9903367220302
490.801989248196
490.593830087673
490.3657517073642
490.1176860085786
489.84960469389364
489.5615195642752
489.2534827471132
488.92558685589614
488.57796508227165
488.2107912212106
487.8242796299546
487.4186851213955
486.9943027924952
486.551467788331
486.0905550023077
485.61197871301954
485.1161921581707
484.60368704588575
484.0749930036471
483.53067696493065
482.97134249340536
482.39762904442784
481.8102111635226
481.20979762149153
480.59713048564737
479.9729841265345
479.33816415942454
478.6935063198416
478.0398752723262
477.37816335160187
476.7092892352664
476.034196547133
475.3538523903697
474.6692458096517
473.98138618166126
473.2913015334004
472.6000367879444
471.9086519374132
471.2182201431204
470.5298257631471
469.84456230785077
469.1635303241353
468.4878352096901
467.8185849588201
467.1568878419424
466.50385002130156
465.86057310591247
465.22815164921957
464.607670593411
464.00020266476696
463.40680572489043
462.82852008319634
462.26636577662634
461.72133982313466
461.1944134560999
460.68652934740794
460.1985988274729
459.73149911094555
459.28607053740507
458.8631138368432
458.4633874301639
458.08760477531894
457.7364317701157
457.4104842230739
457.1103254039462
456.83646368568947
456.589350289822
456.36937714723507
456.176874886558
456.01211096214007
455.8752879336159
455.76654190880333
455.6859411613917
455.633484934541
455.60910244106543
455.6126520703435
455.64392081150373
455.7026239018079
455.78840470845427
455.9008348511854
456.03941457216223
456.2035733585895
456.3926708225525
456.6059978414629
456.84277796141964
457.1021690645787
457.3832653003626
457.6850992790452
458.0066445249409
458.3468181850784
458.70448398785095
459.0784554448029
459.4674992874082
459.8703391294231
460.2856593440576
460.71210914389246
461.1483068502029
461.59284433712685
462.0442916349396
462.50120167558373
462.96211516253857
463.4255655461509
463.8900840846807
464.35420497062336
464.81647050133284
465.2754362725374
465.72967637297063
466.17778855804846
466.6183993803201
467.05016925431863
467.4717974334653
467.88202687680183
468.27964898357556
468.66350817413246
469.0325062960738
469.3856068352597
469.7218389119573
470.0403010431536
470.34016465284185
470.62067731301744
470.8811656991606
471.1210382452093
471.33978748432304
471.5369920628245
471.71231841564605
471.8655220928936
471.99644872898756
472.10503464796534
472.19130710061097
472.2553841311089
472.29747407290677
472.3178746753581
472.31697186461236
472.29523814414154
472.2532306422313
472.19158881568364
472.111031820893
472.01235556525603
471.8964294535147
471.7641928450909
471.6166512397052
471.4548722095815
471.27998109748006
471.0931565007344
470.89562556237735
470.6886590912926
470.4735665341229
470.25169082235436
470.02440311850967
469.79309748572393
469.5591855051485
469.324090865657
469.0892439502322
468.85607644319805
468.62601598214997
468.4004808780365
468.18087492632804
467.96858233153785
467.7649627665899
467.57134658768854
467.3890302244118
467.2192717636878
467.0632867451498
466.9222441840854
466.7972628368201
466.6894077219668
466.5996869095177
466.5290485882646
466.47837842048204
466.4484971912404
466.44015875820844
466.45404830623204
466.4907809093005
466.5509004008535
466.63487855180597
466.743114554132
466.87593480630653
467.0335929953714
467.2162704689327
467.4240768890566
467.6570511587675
467.91516261065715
468.19831244602153
468.5063354118891
468.8390017023383
469.1960190696196
469.5770351298442
469.98163984737675
470.4093681815575
470.85970287893485
471.33207739385796
471.82587892006677
472.3404515158236
472.87509930511777
473.4290897375497
474.00165688966285
474.59200479077066
475.19931075667483
475.82272871513504
476.4613925075311
477.11441915181774
477.78091205258596
478.45996414479526
479.15066095853985
479.8520835930413
480.5633115889665
481.28342568914167
482.01151047868774
482.7466568965403
483.4879646113172
484.2345442555766
484.98551951352425
485.74002905818026
486.4972283349709
487.2562911896855
488.01641133973055
488.7768036885468
489.53670548392125
490.29537732180444
491.05210399807453
491.806195211456
492.5569861215301
493.3038377664524
494.04613734559837
494.78329837292057
495.51476070731013
496.2399904666726
496.95847983276235
497.669746754124
498.3733345547682
499.06881145642774
499.7557700223719
500.43382653083245
501.1026202860972
501.7618128752579
502.4110873785404
503.0501475410351
503.67871691347506
504.29653796951953
504.90337120678714
505.4989942386583
506.08320088354816
506.6558002579692
507.21661587927406
507.76548478357347
508.3022566639533
508.8267930337254
509.3389664190162
509.83865958456084
510.32576479614477
510.8001831227204
511.2618237807841
511.7106035231662
512.1464460739257
512.5692816105428
512.9790462941428
513.3756818480504
513.7591351845803
514.1293580795991
514.4863068940929
514.8299423416814
515.1602293007386
515.477136669512
515.7806372623987
516.0707077453396
516.3473286081322
516.6104841713125
516.860162625204
517.0963560987318
517.3190607555803
517.5282769152553
517.7240091966099
517.9062666814114
518.0750630956991
518.2304170070357
518.3723520359631
518.5008970799468
518.6160865479569
518.7179606037647
518.8065654159312
518.8819534124391
518.9441835379585
518.9933215117916
519.0294400845761
519.0526192919299
519.0629467032603
519.0605176640023
519.0454355295592
519.0178118893009
518.9777667790886
518.9254288810155
518.8609357093176
518.7844337816456
518.6960787750322
518.596035666016
518.484478854426
518.3615922703536
518.2275694638563
518.0826136770152
517.9269378980423
517.7607648972365
517.5843272446787
517.3978673096082
517.201637241454
516.9958989325226
516.7809239623605
516.5569935238024
516.3243983306934
516.0834385072526
515.8344234589974
515.57767172509
515.3135108118998
515.0422770075477
514.7643151772315
514.4799785391359
514.1896284207022
513.8936339949992
513.5923719969179
513.2862264189465
512.9755881863068
512.660854811212
512.342430025973
512.0207233946913
511.6961499032671
511.3691295274614
511.0400867787852
510.7094502280503
510.3776520064897
510.0451272844708
509.7123137279379
509.37965093281684
509.04757983767894
508.71654211501607
508.3869795415549
508.0593333481317
507.7340435497395
507.4115482564636
507.09228296611917
506.77667983951164
506.4651669593771
506.1581675741756
505.8560993280172
505.55937347806105
505.26839410081965
504.98355728891613
504.7052503399686
504.43385093938514
504.16972633894983
503.9132325332002
503.6647134357055
503.4245000574105
503.1929096893006
502.97024509172394
502.75679369280795
502.5528267984818
502.35859881665607
502.1743464981162
502.00028819675015
501.8366231518006
501.68353079482773
501.5411700840042
501.409678868367
501.28917328468134
501.1797471895943
501.0814716297169
500.99439435221484
500.91853935844176
500.8539065030797
500.80047114113984
500.7581838250127
500.72697005363256
500.70673007570434
500.69733874881223
500.6986454560743
500.7104740818317
500.7326230476734
500.7648654099815
500.8069490200338
500.8585967475018
500.91950676794636
500.98935291472077
501.0677850954983
501.15442977343093
501.24889051270725
501.35074858801863
501.4595636571395
501.5748744955531
501.6961997917937
501.82303900190516
501.9548732611533
502.09116635086036
502.2313657180179
502.3749035451798
502.5211978680237
502.66965373781227
502.8196644257908
502.9706126663484
503.1218719356032
503.2728077619804
503.4227790653139
503.5711395209712
503.7172389455104
503.86042470035454
504.0000431099895
504.13544089135394
504.26596659133475
504.3909720293435
504.5098137417871
504.6218544250866
504.72646437377
504.82302291009194
504.91091980165845
504.98955666360297
505.05834834190676
505.1167242744566
505.1641298264712
505.2000275970197
505.223898693427
505.2352439704685
505.2335852314463
505.2184663884565
505.18945457939253
505.1461412395098
505.0881431257089
505.0151032919458
504.9266920143948
504.8226076651728
504.70257753355196
504.566358593726
504.4137382184125
504.24453483774045
504.05859854301
503.8558116350676
503.63608911718364
503.39937913238276
503.14566334522607
502.8749572680977
502.5873105320745
502.2828071024885
501.961565439322
501.6237386025425
501.2695143024212
500.89911489483984
500.5127973215734
500.1108529955153
499.69360763081363
499.2614210178798
498.81468674316244
498.3538318534735
497.8793164645406
497.3916333133226
496.89130725347445
496.3788946932238
495.85498297484224
495.32018969481044
494.775161963703
494.2205756047457
493.6571342899628
493.0855686127929
492.50663509603646
491.9211151340299
491.3298138680107
490.73355899368994
490.13319950009054
489.5296043387666
488.9236610226122
488.3162741536258
487.7083638791892
487.10086427659917
486.49472166577146
485.89089285028564
485.29034328726533
484.6940451869466
484.1029755432407
483.5181140970397
482.9404412344186
482.3709358222783
481.81057298441783
481.26032182144695
480.72114307835324
480.19398676398947
479.67978972722705
479.17947319508767
478.69394027873403
478.2240734537696
477.7707320218321
477.3347495609966
476.9169313730003
476.51805193576115
476.13885237009356
475.7800379299485
475.44227552591076
475.1261912920673
474.83236820670203
474.5613437775568
474.31360780261264
474.0896002175417
473.8897090411491
473.71426843019873
473.5635568550179
473.4377954072422
473.3371462509061
473.2617112278075
473.2115306277344
473.1865821337744
473.1867799525056
473.21197413840173
473.26195012121616
473.3364284444204
473.4350647220391
473.5574498204601
473.7031102709352
473.87150891754993
474.0620458044289
474.2740593048885
474.50682749416865
474.75956976621865
475.0314486938422
475.3215721302889
475.6289955491725
475.9527246183488
476.2917180021179
476.64489038486374
477.01111570801027
477.3892306109706
477.7780380655359
478.17631119190116
478.5827972433425
478.99622174545095
479.41529277474984
479.83870536051387
480.2651459926848
480.6932972179234
481.12184230510263
481.54946996095833
481.9748790761645
482.3967834817039
482.8139166950827
483.22503663566835
483.6289302882502
484.0244182939114
484.41035944737166
484.7856550800942
485.1492533086796
485.50015312845886
485.8374083327681
486.1601312390842
486.46749620398236
486.7587429096757
487.03317940571367
487.290184890373
487.5292122173152
487.74979011423324
487.95152510139525
488.13410309900996
488.29729071327904
488.44093619238123
488.56497004551846
488.6694053201371
488.7543375343935
488.8199442638808
488.8664843835037
488.89429696722283
488.9037998502144
488.8954878598508
488.869930723729
488.82777066468356
488.7697196944234
488.6965566190005
488.60912377074266
488.50832348260184
488.3951143220589
488.2705071027104
488.1355606925271
487.9913776385973
487.8390996289296
487.6799028126452
487.5149930006033
487.34560076908065
487.1729764894858
486.9983853073553
486.8231020940265
486.64840639435835
486.4755773936887
486.3058889269272
486.14060455226956
485.98097271150215
485.82822199827353
485.6835565550128
485.5481516183492
485.4231492319837
485.30965414498894
485.2087299124319
485.12139521402196
485.0486204052066
484.99132431376336
484.950371293485
484.9265685451362
484.9206637134224
484.9333427672036
484.96522816861176
485.01687733517764
485.0887813975383
485.18136425376326
485.294981919781
485.42992217386706
485.58640449166927
485.7645802667981
485.9645333106326
486.18628062366
486.4297734293666
486.6948984604654
486.98147948609665
487.28927906759174
487.61800052950144
487.9672901318042
488.33673942845064
488.72588779670116
489.134225121135
489.5611946157856
490.0061957674977
490.46858738337994
490.9476907250921
491.4427927126477
491.9531491804493
492.47798816845517
493.01651323165953
493.567906751451
494.1313332328446
494.70594257213827
495.2908732801893
495.8852556472144
496.48821483572766
497.0988738889875
497.7163566431389
498.33979053211795
498.9683092753156
499.6010554389626
500.2371828632019
500.87585894782114
501.51626679063213
502.1576071735288
502.79910039227985
503.43998792710835
504.07953395209614
504.7170266824413
505.3517795595189
505.98313227454526
506.6104516324914
507.23313225869987
507.85059715139965
508.46229808410004
509.06771586257236
509.6663604417997
510.257770908859
510.8415153381802
511.41719052605976
511.9844216116637
512.5428615921128
513.0921907395265
513.6321159280982
514.1623698794361
514.6827103345084
515.1929191605751
515.6928014014933
516.1821842797311
516.6609161582994
517.1288654706697
517.5859196265376
518.0319839010737
518.4669803150135
518.8908465126469
519.3035346443863
519.7050102602103
520.0952512198511
520.4742466251832
520.8419957798549
521.198507180782
521.5437975456846
521.8778908804165
522.2008175893861
522.5126136318771
522.813319726634
523.1029806066476
523.3816443255872
523.6493616168668
523.9061853059076
524.1521697757478
524.3873704858526
524.6118435437077
524.8256453284315
525.0288321653393
525.2214600501359
525.4035844212284
525.5752599784504
525.736540546272
525.8874789793482
526.0281271081011
526.1585357219382
526.2787545876752
526.388832500691
526.4888173663483
526.5787563092174
526.658695807763
526.728681852339
526.7887601246894
526.8389761972873
526.8793757508271
526.9100048081174
526.9309099825471
526.9421387392275
526.9437396668939
526.935762758687
526.918259700008
526.8912841616673
526.854892096559
526.809142038146
526.754095399079
526.6898167683913
526.6163742058679
526.5338395323486
526.4422886148462
526.3418016455768
526.2324634141866
526.1143635726132
525.9875968921224
525.8522635121201
525.7084691803587
525.556325484133
525.3959500721073
525.2274668664384
525.0510062648337
524.8667053321786
524.6747079813722
524.4751651430511
524.2682349239329
524.0540827535265
523.832881518979
523.6048116877431
523.3700614176993
523.1288266543311
522.8813112144749
522.627726856121
522.3682933337025
522.1032384382463
521.8327980216865
521.5572160046336
521.2767443668438
520.9916431195243
520.7021802585762
520.4086316978899
520.111281181863
519.8104201763028
519.5063477368559
519.1993703541137
518.8898017745618
518.5779627965145
518.2641810401983
517.9487906911684
517.6321322162786
517.3145520515209
516.9964022611393
516.678040167568
516.3598279518262
516.0421322240927
515.7253235642548
515.409776032348
515.0958666489273
514.7839748455522
514.4744818857439
514.167770256938
513.8642230340707
513.5642232155136
513.2681530321869
512.9763932308007
512.6893223323267
512.4073158669612
512.1307455870126
511.8599786593134
511.5953768389078
511.3372956259362
511.0860834077623
510.8420805885367
510.60561870849216
510.37701955538677
510.1565942706302
509.9446424527559
509.74145126098307
509.54729452170665
509.36243184087124
509.1871077252941
509.0215507160517
508.86597253706475
508.7205672620461
508.58551050301213
508.46095862353445
508.3470479799057
508.2438941934106
508.1515914569104
508.0702118789368
507.9998048684963
507.94039656370603
507.8919893073172
507.8545611720942
507.82806553887616
507.81243073002366
507.8075597008136
507.81332979119765
507.8295925401582
507.85617356472744
507.89287250556276
507.9394630407677
507.9956929693968
508.06128436584953
508.13593380610547
508.21931266648784
508.3110674953847
508.4108204580809
508.51816985456253
508.63269070985564
508.7539354361363
508.88143456554127
509.01469755232176
509.1532136427181
509.2964528106701
509.44386675725053
509.5948899714695
509.7489408498655
509.9054228720618
510.06372582923757
510.2232271022495
510.3832929859073
510.5432800557445
510.7025365735428
510.8604039277748
511.01621810504264
511.1693111885122
511.3190128793136
511.46465203688257
511.6055582343802
511.74106332547086
511.87050301866776
511.99321845527874
512.1085577867827
512.2158777473697
512.3145452173595
512.4039387732184
512.4834502199061
512.5524861013344
512.6104691848125
512.6568399154606
512.6910578367127
512.7126029731326
512.7209771719151
512.7157053995907
512.6963369906914
512.6624468454078
512.6136365735351
512.5495355823042
512.4698021060324
512.3741241758145
512.2622205276859
512.1338414478613
511.98876955377267
511.8268205098212
511.64784367690845
511.451722695049
511.23837599860576
511.0077572638783
510.7598557888481
510.4946968049597
510.2123417209348
509.91288829871195
509.59647076167937
509.26325983546775
508.9134627216158
508.5473230044287
508.165120491342
507.7671709871539
507.3538260025063
506.9254723970049
506.48253195736237
506.0254609109715
505.5547493752756
505.0709207432286
504.5745310050577
504.0661680064158
503.54645064290594
503.016027990928
502.4755783747739
501.9258083698429
501.367451741844
500.8012683218237
500.22804281682386
499.64858355599154
499.0637211720268
498.4743072178921
497.8812127187664
497.2853266593338
496.68755440662255
496.08881606873126
495.49004478987234
494.89218498231935
494.2961904960585
493.7030227271852
493.11364866633187
492.5290388887492
491.9501654880233
491.3779999557785
490.8135110100937
490.2576623756782
489.7114105191842
489.17570234342355
488.65147284464683
488.13964273745825
487.6411160523491
487.1567777112941
486.687491087326
486.2340955544693
485.797404034813
485.3782005499129
484.97723778415497
484.5952346681733
484.2328739908372
483.8908000487166
483.5696163422766
483.2698833283275
482.9921162385275
482.73678297398664
482.50430208619264
482.2950408545898
482.1093134711718
481.9473793424445
481.80944151910865
481.69564526374916
481.6060767666403
481.540762019527
481.4996658569601
481.48269117440447
481.48967833187965
481.5204047513542
481.57458471550206
481.65186937479393
481.75184696920303
481.87404327001303
482.01792224636966
482.1828869603522
482.36828069339634
482.5733883058814
482.7974378305815
483.0396022995446
483.2990018028028
483.57470577613475
483.8657355139018
484.17106690180833
484.4896333632706
484.8203290119073
485.1620120014802
485.5135080634453
485.8736142211214
486.2411026683553
486.6147247994679
486.99321537625303
487.37529681678814
487.7596835898938
488.14508669823846
488.5302182322918
488.9137959766384
489.2945480496026
489.6712175567257
490.0425672383238
490.40738409110406
490.76448394365866
491.1127159655727
491.45096708985375
491.7781663284905
492.09328896114886
492.3953605773464
492.68346095287467
492.95672774178894
493.2143599659657
493.4556212850902
493.67984303079106
493.8864269894572
494.07484791922496
494.2446557877029
494.3954777181669
494.52701963317134
494.63906758568555
494.73148876882595
494.8042321964428
494.85732904849584
494.8908926771139
494.9051182712266
494.9002821795696
494.876740893723
494.834929694745
494.7753609687846
494.6986221988089
494.60537364131517
494.4963456985657
494.3723359985001
494.2342061960395
494.08287851094957
493.9193320187836
493.74459871258165
493.5597593539841
493.3659391332781
493.1643031586184
492.95605179530855
492.74241587666205
492.52465180855467
492.3040365902834
492.0818627747555
491.8594333912756
491.6380568543481
491.4190418818776
491.2036924458678
490.9933027783445
490.78915245482
490.5925015771097
490.404586076671
490.22661315890304
490.0597569079833
489.905154070817
489.7639000376322
489.63704503565583
489.52559055112374
489.4304859935709
489.3526256149516
489.2928456947097
489.2519220004572
489.2305675323784
489.22943055796566
489.2490929421766
489.2900687765606
489.35280330935615
489.4376721770511
489.5449809363577
489.6749648940139
489.8277892303273
490.0035494109146
490.20227187968334
490.42391502477585
490.6683704079235
490.93546424643705
491.22495913592047
491.53655600075325
491.8698962584616
492.22456418322923
492.60008945304645
492.995949864357
493.41157419752193
493.8463452159567
494.2996027814554
494.7706470680332
495.2587418565026
495.76311789194074
496.28297628626063
496.81749194827967
497.36581702402657
497.9270843304728
498.50041076633227
499.0849006841536
499.67964920858725
500.28374548639715
500.8962758545268
501.5163269133491
502.142988493126
502.77535650264736
503.4125356499876
504.0536420263305
504.6978055448335
505.3441722275403
505.99190633439906
506.6401923295175
507.28823668083163
507.9352694903794
508.58054595336074
509.2233476451488
509.86298363638434
510.49879143725985
511.13013777305173
511.756419193819
512.377062521983
512.9915251422871
513.5992951393686
514.1998912888511
514.7928629084352
515.3777895760035
515.9542807222048
516.5219751054774
517.0805401778476
517.6296713501129
518.1690911652594
518.6985483891442
519.2178170275441
519.7266952786977
520.2250044304493
520.7125877110839
521.1893091028244
521.6550521268169
522.1097186081978
522.5532274296469
522.985513281515
523.4065254162861
523.8162264147126
524.2145909705691
524.6016047005253
524.9772629851898
525.3415698468704
525.6945368691022
526.0361821624826
526.3665293809078
526.6856067918291
526.9934464036116
527.2900831525975
527.5755541519972
527.8498980042449
528.1131541779052
528.3653624496718
528.6065624115147
528.8367930425605
529.0560923448944
529.2644970421172
529.4620423391593
529.6487617415265
529.8246869318409
529.9898477012614
530.1442719331886
530.2879856364854
530.4210130252196
530.5433766418024
530.6550975203481
530.7561953870493
530.8466888943017
530.9265958853312
530.9959336861152
531.0547194214957
531.1029703526763
531.1407042334954
531.167939682904
531.1846965710179
531.1909964160603
531.1868627894738
531.1723217264945
531.1474021394845
531.1121362313781
531.0665599067227
531.0107131779022
530.9446405642261
530.8683914816844
530.7820206212808
530.6855883140056
530.5791608806526
530.4628109649175
530.3366178484466
530.2006677467427
530.0550540850614
529.8998777536547
529.7352473419277
529.5612793512346
529.3780983861417
529.1858373240582
528.9846374632075
528.7746486489508
528.5560293784757
528.3289468839603
528.0935771944545
527.850105176782
527.5987245558276
527.3396379146321
527.0730566746919
526.7992010568385
526.5183000230971
526.2305911999351
525.9363207832812
525.6357434256556
525.329122105715
525.0167279805238
524.6988402208677
524.3757458298861
524.0477394452656
523.7151231252084
523.3782061182843
523.0373046172274
522.692741496707
522.3448460350673
521.9939536200059
521.6404054381753
521.2845481486661
520.9267335403031
520.5673181726277
520.2066630004297
519.8451329816868
519.4830966688471
519.1209257834579
518.7589947741567
518.3976803580241
518.0373610453227
517.6784166477041
517.3212277700195
516.9661752859259
516.613639797571
516.2640010797065
515.9176375085743
515.5749254759694
515.2362387889791
514.9019480559735
514.5724200595453
514.2480171171251
513.9290964300462
513.616009421917
513.3091010672421
513.0087092113247
512.7151638826207
512.4287865988323
512.1498896681302
511.8787754869583
511.6157358359628
511.3610511756618
511.1149899435482
510.8778078543797
510.64974720550015
510.4310361890705
510.22188821312335
510.0225012334422
509.83305709833974
509.65372090849445
509.48464039407406
509.32594531143724
509.17774686175454
509.04013713391987
508.9131885741207
508.7969534844402
508.6914635528672
508.5967294170541
508.51274026411465
508.43946346871627
508.37684427170933
508.32480550147847
508.28324734007214
508.25204713605297
508.2310592659132
508.22011504576705
508.21902269493575
508.2275673529657
508.2455111514902
508.2725933422041
508.3085304820783
508.35301667677334
508.4057238830174
508.4663022705204
508.53438064372006
508.60956692337083
508.69144868773515
508.7795937729132
508.8735509316077
508.9728505493824
509.07700541723824
509.18551155911246
509.2978491127553
509.4134832622765
509.53186522041574
509.65243325835667
509.7746137807401
509.89782244334015
510.02146531066063
510.14494005054826
510.2676371628316
510.3889412389626
510.50823224960345
510.62488685701646
510.7382797491103
510.84778499214195
510.9527773992395
511.0526339119195
511.1467349916302
511.2344660182025
511.3152186919056
511.38839243566804
511.45339579400263
511.50964782515877
511.556579483043
511.59363498546816
511.62027316529196
511.63596880102364
511.6402139235491
511.6325190957422
511.612414661866
511.5794519638663
511.53320452183283
511.4732691760729
511.39926718845925
511.31084530097525
511.207676749648
511.08946223231595
510.95593082887996
510.8068408727967
510.6419807726474
510.4611697826618
510.26425872113504
510.05113063576295
509.8217014150283
509.5759203448418
509.31377060970016
509.0352697377162
508.74046998900644
508.4294586870574
508.102358492713
507.75932762038343
507.4005599960722
507.02628535681214
506.63676929104867
506.2323132194859
505.81325431588397
505.379965367325
504.93285457343933
504.4723652839611
503.9989756738663
503.5131983552198
503.01557992471635
502.5067004458117
501.9871728643204
501.4576423563126
500.9187856070692
500.37131001982067
499.81595285298016
499.25348028455215
498.68468640234835
498.11039211859645
497.5314440075685
496.9487130649231
496.36309338750897
495.77550077252107
495.18687123507755
494.59815944343876
494.0103370712633
493.42439106651324
492.8413218368516
492.26214135169784
491.6878711614838
491.1195403350946
490.5581833169484
490.00483770557435
489.4605419559023
488.92633300785525
488.40324384432614
487.8923009821521
487.3945219002468
486.91091240959133
486.44246397042707
485.99015096256306
485.5549279152342
485.1377267035426
484.73945371913993
484.36098702338523
484.00317349176
483.6668259588386
483.3527203736004
483.0615929753472
482.79413750099025
482.5510024348856
482.33278831279773
482.1400450919143
481.9732695991079
481.8329030698309
481.719328790195
481.6328698548686
481.5737870534815
481.5422768982085
481.53846980511275
481.5624284416109
481.61414625217714
481.69354617416803
481.80047955530404
481.9347252838034
482.0959891415468
482.2839033899537
482.498026597477
482.7378437167806
483.0027664187229
483.29213368926395
483.6052126943346
483.9411999165445
484.29922256637724
484.67834026928483
485.0775470288197
485.4957734646543
485.93188932300313
486.3847062555844
486.8529808619333
487.33541798850615
487.83067427662576
488.33736194994714
488.8540528307111
489.3792825725808
489.9115550965021
490.44934721472026
490.991113426816
491.5352908704765
492.08030440862825
492.62457183352285
493.16650916749944
493.70453603941405
494.23708111501895
494.7625875589776
495.27951850572526
495.78636251602137
496.2816389957869
496.7639035536396
497.23175327337844
497.68383187767677
498.11883475947167
498.5355138578962
498.9326823560611
499.30921917861247
499.66407326776414
499.99626761731207
500.30490304498
500.5891616843716
500.8483101789111
501.0817025614282
501.2887828042313
501.46908702555737
501.6222453394096
501.7479833373685
501.84612319296747
501.9165843813032
501.95938400863827
501.9746367488485
501.9625543856309
501.9234449614004
501.85771153581453
501.7658505589267
501.64844986608614
501.50618630373526
501.3398229971537
501.1502062730105
500.93826225129834
500.7049931227934
500.451473129642
500.17884426803556
499.8883117331744
499.5811391277779
499.25864345629014
498.92218992777106
498.5731865912828
498.21307882839966
497.84334372819325
497.46548437069185
497.0810240453354
496.6915004312258
496.2984597660278
495.90345103027795
495.5080201735961
495.1137044088247
494.72202659948664
494.334489765177
493.9525717286434
493.57771992740294
493.2113464117153
492.854823049655
492.50947695888067
492.17658618338464
491.8573756320647
491.5530132944516
491.26460674733875
490.9931999644548
490.7397704396936
490.5052266326909
490.29040574381963
490.09607182392597
489.9229142223161
489.771546374709
489.6425049311188
489.536249221857
489.4531610581181
489.39354486197146
489.3576281190356
489.3455621455747
489.35742316022595
489.3932136491775
489.4528640123734
489.5362344770633
489.64311726384784
489.7732389893722
489.92626328887764
490.1017936410046
490.2993763766091
490.51850385277356
490.758617772703
491.01911263179613
491.29933926990685
491.5986085097342
491.9161948613758
492.25134027327425
492.6032579100395
492.97113593796126
493.35414129948333
493.7514234584407
494.1621180984167
494.58535075727286
495.02024038175773
495.4659027870095
495.92145400669216
496.38601352051376
496.8587073469539
497.3386709901285
497.8250522308535
498.31701375313435
498.81373559844945
499.3144174413839
499.8182806813255
500.3245703460417
500.83255680411213
501.34153728438366
501.85083720179523
502.3598112900425
502.86784454260203
503.3743529646394
503.87878413930946
504.38061761289043
504.87936510400965
505.37457054288916
505.8658099471862
506.3526911416544
506.8348533294824
507.3119665237308
507.78373084776575
508.2498757139962
508.71015889057384
509.16436546595514
509.612306721498
510.0538189225168
510.48876203828615
510.9170184014437
511.33849131722036
511.753103632775
512.1607962766939
512.5615267784559
512.9552677773354
513.3420055298144
513.7217384242115
514.0944755108025
514.4602350552676
514.8190431228926
515.1709322005265
515.5159398628118
515.8541074886812
516.1854790335626
516.5100998622028
516.8280156464635
517.1392713318492
517.4439101759172
517.7419728612173
518.0334966848714
518.3185148263022
518.5970556940415
518.8691423520023
519.1347920251632
519.3940156842733
519.6468177087921
519.8931956268342
520.1331399305334
520.3666339649371
520.5936538881926
520.8141687004672
521.028140338783
521.2355238347332
521.4362675319178
521.6303133597654
521.8175971602619
521.9980490641495
522.1715939133072
522.3381517261892
522.4976382031855
522.6499652686082
522.7950416459124
522.9327734627565
523.0630648824206
523.1858187580473
523.3009373061356
523.4083227957908
523.5078782502786
523.599508157391
523.6831191850736
523.7586208988581
523.8259264778125
523.8849534258297
523.9356242752154
523.9778672796856
524.0116170940432
524.036815437976
524.0534117417025
524.0613637714982
524.0606382333452
524.0512113531047
524.0330694316576
524.0062093735054
523.970639187307
523.9263784568016
523.8734587806031
523.8119241794802
523.741831469825
523.6632506021581
523.5762649636644
523.4809716439115
523.3774816630586
523.2659201620488
523.1464265543639
523.0191546388891
522.8842726734437
522.7419634085404
522.5924240809566
522.4358663667412
522.2725162933027
522.1026141102768
521.9264141189485
521.7441844600901
521.5562068601388
521.362776335697
521.1642008563704
520.9608009660478
520.75290936283
520.5408704378971
520.3250397737306
520.1057836022122
519.8834782231986
519.6585093842165
519.4312716220677
519.202167567322
518.9716072127023
518.7400071464414
518.50778975185
518.2753823745151
518.0432164586537
517.8117266543388
517.5813498974088
517.352524463893
517.125689000872
516.9012815358607
516.6797384669652
516.461493536215
516.2469767885476
516.0366135189864
515.8308232106065
515.6300184659664
515.4346039348239
515.2449752410789
515.0615179119671
514.8846063125516
514.714602588648
514.5518556213622
514.3966999964148
514.2494549914029
514.110423584111
513.9798914849463
513.8581261965501
513.7453761036088
513.6418695958595
513.5478142273091
513.4633959146593
513.3887781778467
513.3241014256015
513.2694822888719
513.2250130048062
513.1907608538089
513.1667676520283
513.1530493015254
513.14959540018
513.1563689131798
513.1733059077781
513.200315352923
513.2372789851966
513.2840512423329
513.3404592654003
513.4063029705402
513.4813551909044
513.5653618892455
513.6580424413632
513.7590899904316
513.8681718720271
513.9849301093985
514.1089819781951
514.2399206396753
514.3773158411851
514.520714682381
514.6696424453467
514.8236034864657
514.9820821877145
515.1445439648647
515.3104363299313
515.4791900050591
515.6502200849649
515.8229272450236
515.9966989919808
516.170910954022
516.3449282067584
516.5181066315504
516.6897943025454
516.8593328987774
517.0260591376523
517.1893062261894
517.3484053264596
517.5026870316714
517.6514828495024
517.7941266894975
517.929956351519
518.0583150123034
518.1785527072092
518.2900278042109
518.3921084671633
518.4841741053888
518.5656168066798
518.6358427508402
518.6942736009555
518.7403478696423
518.7735222576317
518.7932729621874
518.7990969529867
518.7905132132989
518.767063944553
518.7283157325408
518.6738606737011
518.6033174601495
518.5163324223554
518.4125805285296
518.2917663399196
518.1536249212967
517.9979227059634
517.8244583147008
517.6330633281585
517.4236030122179
517.1959769958437
516.9501199010311
516.6860019245852
516.4036293714469
516.1030451391631
515.7843291530703
515.447598751758
515.0930090223474
514.7207530851031
514.3310623268047
513.9242065821204
513.5004942620589
513.0602724284125
512.603926812933
512.1318817798405
511.64460023016545
511.1425834463171
510.62637087512485
510.0965398473675
509.55370523156586
508.99851901967264
508.4316698421289
507.8538824096204
507.26591687877317
506.66856813891167
506.06266501689635
505.4490693970403
504.828675253223
504.2024075903878
503.5712212926477
502.93609987536325
502.2980541386749
501.6581207201228
501.0173605441767
500.37685716663765
499.73771501212843
499.10105750328654
498.4680250807011
497.8397731131374
497.21746969805645
496.602293352843
495.995430597638
495.3980734312314
494.81141670206347
494.23665537706756
493.67498171179017
493.1275823258304
492.59563518831135
492.08030651890454
491.58274761068566
491.1040915818029
490.64545006366194
490.20790983406243
489.79252940448805
489.40033557153686
489.0323199432367
488.6894354517136
488.37259286434016
488.0826573061297
487.820444806739
487.5867188860074
487.38218719243764
487.20749820941063
487.0632380443206
486.9499273160615
486.86801815638756
486.8178913408354
486.7998535650992
486.8141348827389
486.86088631991515
486.9401776826357
487.05199557175246
487.1962416205956
487.3727309696571
487.5811909921831
487.8212602838887
488.09248792922494
488.3943330556508
488.7261646863169
489.08726190050646
489.47681431000575
489.8939228583046
490.3376009482608
490.80677590245864
491.30029075899597
491.81690640386967
492.35530403960314
492.9140879882786
493.49178882546727
494.08686683981193
494.69771581134785
495.3226671000212
495.95999403420547
496.60791658735394
497.26460632928064
497.928191636937
498.59676314796855
499.26837943880804
499.94107290762224
500.61285584109146
501.28172664275036
501.94567619944337
502.60269436145103
503.25077651100827
503.88793019331786
504.51218178360494
505.12158316318295
505.7142183770482
506.28821024521926
506.8417268997618
507.3729882192738
507.88027213257413
508.3619207635789
508.8163463899324
509.2420371886741
509.6375627429751
510.00157928480195
510.33283464930645
510.6301729178505
510.89253872771246
511.1189812277446
511.3086576606393
511.46083655382625
511.5749005024725
511.650348529841
511.6867980122027
511.6839861575472
511.6417710295983
511.5601321110338
511.439170402195
511.279108053903
511.0802875353043
510.84317034003357
510.5683352363598
510.256476069318
509.90839912513843
509.525020070523
509.1073604812753
508.6565439765682
508.1737919768638
507.6604191051499
507.1178282526731
506.5475053317426
505.9510137395097
505.3299885578601
504.6861305156358
504.02119974054057
503.33700932912444
502.6354187640506
501.91832720846776
501.1876667076989
500.4453953285994
499.693490266955
498.93394095322805
498.1687421867577
497.3998873280554
496.6293615781787
495.85913537342645
495.0911579227442
494.32735091425025
493.5696024162139
492.8197609966322
492.0796300842241
491.3509625922474
490.63545582499984
489.93474668517524
489.25040719846714
488.5839403700955
487.93677638623956
487.3102691715664
486.7056933121391
486.1242413510648
485.5670214622238
485.035055505351
484.5292774637642
484.0505322641654
483.599574976077
483.1770703865071
482.78359294347507
482.4196270602568
482.0855677706153
481.7817217238067
481.50830850671935
481.26546227913997
481.0532337069588
480.87159217695836
480.72042827571215
480.5995565141271
480.5087182782862
480.44758498659075
480.4157614327167
480.41278929347726
480.4381507803241
480.49127241299277
480.57152889370127
480.6782470603816
480.8107098976928
480.9681605849206
481.1498065602624
481.354823581511
481.58235976370116
481.8315395749793
482.10146777281733
482.39123326353354
482.699912868997
483.02657498543635
483.3702831203475
483.7300992945842
484.10508729779315
484.4943157864633
484.89686121506355
485.31181059202413
485.73826405361723
486.17533725005177
486.6221635394284
487.0778959865721
487.54170916494115
488.01280076082037
488.4903929800817
488.9737337589299
489.4620977811585
489.9547873054191
490.4511328068729
490.95049343846176
491.45225731779726
491.9558416463889
492.4606926685831
492.9662854782797
493.47212368217345
493.9777389286989
494.48269031218575
494.9865636621442
495.4889707279147
495.9895482691221
496.4879570625535
496.98388083621086
497.47702514125757
497.9671161723442
498.45389954659777
498.93713905136815
499.4166153705616
499.89212479908196
500.3634779545453
500.83049849502265
501.2930218511535
501.7508939806139
502.2039701525153
502.652113768814
503.0951952292728
503.5330908460108
503.9656818131398
504.3928532364018
504.81449322711785
505.2304920641352
505.64074142672337
506.04513370067747
506.4435613593094
506.8359164204374
507.2220899800036
507.60197182256456
507.975450108455
508.3424111369567
508.7027391843517
509.0563164152569
509.40302286521296
509.7427364921743
510.07533329426064
510.4006874908722
510.7186717640261
511.0291575566426
511.332015424394
511.6271154375787
511.9143276294229
512.1935224871892
512.4645714823512
512.7273476360808
512.9817261162918
513.2275848623384
513.4648052333437
513.6932726760677
513.9128774082167
514.123515113127
514.3250876417721
514.5175037180255
514.7006796431145
514.8745399951506
515.0390183196628
515.1940578072475
515.3396119547623
515.4756452068391
515.6021335747281
515.7190652296244
515.8264410678315
515.9242752453434
516.0125956795938
516.0914445163484
516.1608785599301
516.2209696650452
516.271805088576
516.3134877998026
516.3461367477253
516.3698870844529
516.3848903438217
516.3913145744864
516.3893444268057
516.3791811930439
516.3610428005987
516.3351637580629
516.301795054036
516.261204008703
516.2136740783103
516.1595046127579
516.0990105666457
516.0325221641998
515.9603845185648
515.8829572060637
515.8006137961484
515.7137413376856
515.6227398021397
515.5280214842097
515.4300103605018
515.3291414068344
515.2258598749678
515.1206205297684
515.0138868479482
514.9061301795426
514.7978288733466
514.6894673677166
514.5815352484648
514.4745262757657
514.3689373819232
514.2652676418129
514.164017217882
514.0656862816581
513.9707739138074
513.8797769848827
513.7931890189564
513.7114990423776
513.6351904199786
513.5647396810831
513.5006153377705
513.4432766979901
513.3931726762796
513.3507406049824
513.3164050488721
513.2905766260596
513.2736508380598
513.2660069119313
513.2680066574691
513.2799933425234
513.3022905896223
513.3352012971509
513.3790065882932
513.433964790953
513.5003104518884
513.5782533882731
513.6679777798978
513.7696413051625
513.8833743240153
514.0092791109429
514.1474291410718
514.2978684323813
514.4606109469992
514.6356400544624
514.8229080596285
515.0223357976774
515.23381229849
515.4571945226036
515.6923071708509
515.9389425696478
516.1968606335896
516.4657889068054
516.7454226844062
517.0354252151993
517.3354279866409
517.6450310928207
517.9638036860541
518.2912845123213
518.6269825303685
518.970377614106
519.3209213378095
519.6780378431855
520.041124786872
520.409554366642
520.7826744243425
521.1598096232651
521.5402626974294
521.92331577016
522.308231739219
522.6942557255737
523.0806165826682
523.4665284628493
523.8511924373597
524.2337981661152
524.6135256132625
524.9895468042494
525.3610276199794
525.7271296235629
526.087011915063
526.4398330094923
526.7847527332597
527.120934134427
527.4475454022842
527.763761791804
528.0687675485699
528.3617578298398
528.641940617484
528.9085386185488
529.1607911491022
529.3979559970172
529.6193112594453
529.8241571508214
530.0118177772605
530.1816428732525
530.3330094965213
530.465323676912
530.5780220152727
530.6705732284611
530.742479636875
530.7932785911676
530.8225438351751
530.8298868024795
530.8149578443754
530.7774473873574
530.7170870185168
530.6336504973548
530.5269546925961
530.3968604427317
530.2432733391148
530.0661444304997
529.8654708479826
529.641296349355
529.3937117820195
529.1228554637269
528.8289134805716
528.5121199018683
528.1727569115901
527.81115485607
527.4276922075967
527.0227954434198
526.5969388397045
526.1506441802148
525.6844803795449
525.1990630206384
524.6950538062955
524.1731599243018
523.6341333256299
523.0787699149492
522.5079086525714
521.9224305669451
521.3232576767805
520.7113518217492
520.0877134006158
519.4533800157656
518.8094250231449
518.15695598666
517.4971130361932
516.8310671285386
516.1600182106555
515.4851932847005
514.8078443743774
514.1292463922614
513.4506949078717
512.7735038164944
512.0990029090234
511.4285353433923
510.7634550185143
510.1051238521247
509.4549089644653
508.81417977027616
508.1843049821339
507.5666495287493
506.9625713922693
506.3734183690927
505.80052475924276
505.2452079899198
504.7087651794419
504.19246964836645
503.6975673850834
503.2252734737759
502.77676849341873
502.3531948972191
501.955653382523
501.5851992618344
501.24283884616943
500.9295258525207
500.6461578478676
500.39357274279695
500.1725453483412
499.9837840100572
499.8279273336775
499.7055410169265
499.617114802304
499.56305956585254
499.54370455716304
499.55929480599525
499.60998871086616
499.6958558248072
499.81687485319543
499.97293187823396
500.16381882427356
500.3892321776669
500.6487719742408
500.9419410667878
501.2681446842506
501.6266902934209
502.0167877730042
502.4375499088584
502.8879932181199
503.36703910874945
503.8735153797336
504.4061580657559
504.96361362867725
505.5444414966222
506.1471169499302
506.7700343516655
507.4115107187316
508.06978962796705
508.7430454498959
509.4293879011152
510.12686690470076
510.83347774643096
511.54716651292324
512.2658357960865
512.9873506467018
513.7095447583657
514.4302268615126
515.1471873058351
515.8582048082056
516.5610533419563
517.2535091422224
517.9333578011482
518.5984014260418
519.2464658328437
519.8754077466457
520.4831219805241
521.0675485635453
521.6266797884825
522.1585671496786
522.6613281415637
523.1331528885107
523.5723105770878
523.9771556623682
524.3461338207491
524.6777876226319
524.9707618993427
525.2238087796527
525.4357923724164
525.6056930731778
525.7326114741231
525.8157718582988
525.8545252604767
525.8483520785394
525.7968642210693
525.6998067789488
525.5570592109084
525.3686360351846
525.1346870218041
524.8554968824945
524.531484457584
524.1632014016786
523.7513303724634
523.296682729513
522.8001957525006
522.2629293907125
521.6860625581759
521.0708889909321
520.4188126850078
519.7313429354438
519.010088998442
518.2567544001882
517.4731309172663
516.6610922548471
515.8225874500574
514.9596340289919
514.0743109469023
513.1687513420565
512.2451351345879
511.3056815023082
510.3526412659521
509.3882892166499
508.41491641855515
507.43482251944545
506.4503081018371
505.4636671066336
504.4771793605868
503.49310323806395
502.51366848670483
501.54106924552025
500.5774572828527
499.6249354802346
498.6855515866151
497.7612922658663
496.85407745895407
495.96575508046465
495.0980960673067
494.2527897955554
493.4314398795632
492.6355603655296
491.8665723296764
491.12580088904775
490.41447263091084
489.7337134646705
489.0845468980533
488.4678927372215
487.884566208469
487.33527749714983
486.82063169748216
486.3411291649783
485.8971662614887
485.4890364812188
485.1169319445178
484.780945244771
484.48107163235636
484.21721151836397
483.98917327959504
483.7966763453309
483.639354545418
483.51675969835213
483.4283654172953
483.373571111376
483.3517061591941
483.362034231226
483.4037577377404
483.4760223788687
483.57792177365485
483.70850214517384
483.8667670392025
484.0516820544285
484.2621795627492
484.4971633988459
484.755513498986
485.0360904699295
485.3377400698025
485.6592975838388
485.99959207898445
486.35745052246307
486.73170175049376
487.1211802744847
487.52472991326187
487.94120724118517
488.369484843317
488.8084543701101
489.25702938531157
489.71414800194714
490.1787753025132
490.6499055407917
491.1265641239455
491.6078093747574
492.09273407496653
492.5804667916849
493.07017298991644
493.5610559352678
494.0523573918473
494.54335812115846
495.0333781885496
495.52177708450984
496.0079536687603
496.49134594566726
496.97143067995813
497.44772286213396
497.91977503333294
498.3871764797024
498.8495523065787
499.3065624029566
499.7579003068606
500.20329198233225
500.64249451876896
501.07529476323657
501.50150789621597
501.92097596103514
502.3335663569104
502.7391703052263
503.13770129841174
503.52909354037087
503.913300387004
504.2902927949875
504.66005778662384
505.0225969381075
505.3779248980116
505.7260679422644
506.0670625714129
506.40095415543647
506.727795630819
507.0476462540465
507.36057041513186
507.66663651429064
507.96591590443205
508.2584819015907
508.5444088649248
508.8237713474592
509.09664331832204
509.363097456752
509.6232045177106
509.87703276855245
510.12464749587394
510.36611058140954
510.60148014560957
510.830810257301
511.0541507076439
511.27154684640834
511.48303947853253
511.6886648189561
511.8884545036476
512.0824356545438
512.2706309959724
512.4530590200459
512.6297341983766
512.80066723736
512.9658653741873
513.1253327106216
513.2790705814225
513.4270779542151
513.5693518575346
513.7058878336924
513.8366804130458
513.9617236062547
514.0810114111785
514.1945383311712
514.3022999016815
514.4042932222085
514.5005174909111
514.5909745393316
514.675669364829
514.7546106584373
514.8278113260104
514.8952890005664
514.9570665437769
515.0131725345465
515.0636417426947
515.1085155858
515.1478425673693
515.18167869459
515.2100878740055
515.2331422835599
515.250922719626
515.263518917743
515.2710298458777
515.2735639691051
515.271239484681
515.2641845265583
515.2525373384461
515.236446414557
515.2160706071865
515.1915792002866
515.1631519483014
515.1309790796186
515.0952612640586
515.0562095438864
515.014045227903
514.9689997482908
514.921314479909
514.8712405217949
514.8190384407403
514.7649779769163
514.7093377115469
514.652404696683
514.5944740472534
514.5358484957538
514.4768379100874
514.4177587751582
514.3589336389167
514.300690523658
514.2433623034466
514.1872860486234
514.1328023384697
514.0802545432176
514.0299880767019
513.9823496210952
513.9376863253062
513.896344978754
513.8586711623301
513.8250083784957
513.7956971625637
513.7710741773319
513.7514712933018
513.7372146567802
513.7286237482315
513.7260104333017
513.7296780090501
513.7399202479706
513.7570204424511
513.7812504523723
513.8128697585522
513.8521245247532
513.8992466709794
513.9544529608087
514.0179441055509
514.0899038881082
514.1704983094687
514.2598747608063
514.3581612241146
514.4654655042553
514.5818744952984
514.7074534840626
514.8422454937211
514.9862706702007
515.1395257139933
515.3019833599365
515.4735919075068
515.6542748041197
515.8439302838054
516.0424310634297
516.2496240984818
516.4653304002895
516.6893449163599
516.9214364753755
517.1613477982464
517.4087955764473
517.6634706187375
517.9250380672154
518.193137683489
518.4673842054749
518.7473677751127
