529.5730895442622
529.5679637358381
529.5628377287641
529.5577115234063
529.5525851201315
529.5474585193066
529.5423317212986
529.5372047264751
529.5320775352037
529.5269501478521
529.5218225647878
529.5166947863787
529.5115668129926
529.5064386449973
529.5013102827608
529.4961817266513
529.4910529770374
529.4859240342877
529.480794898771
529.4756655708562
529.4705360509121
529.4654063393076
529.4602764364114
529.4551463425915
529.4500160582162
529.4448855836537
529.4397549192723
529.4346240654405
529.4294930225261
529.424361790897
529.4192303709211
529.4140987629663
529.4089669674007
529.403834984592
529.3987028149082
529.3935704587176
529.3884379163882
529.3833051882881
529.3781722747857
529.3730391762489
529.367905893046
529.3627724255451
529.3576387741144
529.352504939122
529.3473709209358
529.3422367199233
529.3371023364524
529.3319677708902
529.3268330236039
529.3216980949607
529.316562985328
529.3114276950736
529.306292224565
529.3011565741696
529.2960207442544
529.2908847351865
529.2857485473331
529.2806121810617
529.2754756367395
529.2703389147342
529.2652020154129
529.2600649391428
529.2549276862911
529.2497902572251
529.2446526523116
529.239514871918
529.2343769164114
529.229238786159
529.2241004815281
529.2189620028859
529.2138233505997
529.2086845250366
529.2035455265635
529.1984063555475
529.1932670123552
529.1881274973538
529.18298781091
529.177847953391
529.1727079251642
529.1675677265968
529.1624273580557
529.1572868199081
529.1521461125218
529.1470052362644
529.1418641915035
529.1367229786066
529.1315815979411
529.1264400498741
529.1212983347726
529.116156453004
529.1110144049359
529.1058721909359
529.1007298113715
529.0955872666101
529.0904445570194
529.0853016829668
529.0801586448198
529.0750154429458
529.0698720777119
529.0647285494857
529.0595848586348
529.0544410055269
529.04929699053
529.0441528140124
529.0390084763425
529.0338639778887
529.0287193190194
529.0235745001031
529.0184295215082
529.0132843836033
529.0081390867573
529.0029936313391
528.9978480177177
528.9927022462624
528.9875563173424
528.9824102313268
528.9772639885847
528.9721175894855
528.9669710343984
528.9618243236929
528.956677457738
528.951530436903
528.9463832615571
528.9412359320696
528.9360884488095
528.9309408121456
528.925793022447
528.9206450800822
528.9154969854195
528.9103487388271
528.9052003406733
528.9000517913265
528.894903091155
528.8897542405269
528.8846052398109
528.8794560893756
528.8743067895895
528.8691573408211
528.864007743439
528.8588579978115
528.853708104307
528.8485580632938
528.8434078751403
528.8382575402148
528.8331070588862
528.8279564315231
528.8228056584948
528.8176547401698
528.8125036769173
528.8073524691064
528.8022011171057
528.7970496212839
528.7918979820098
528.7867461996522
528.7815942745798
528.7764422071615
528.7712899977665
528.7661376467644
528.7609851545243
528.7558325214158
528.7506797478085
528.7455268340724
528.7403737805774
528.7352205876938
528.7300672557918
528.7249137852419
528.7197601764143
528.7146064296791
528.7094525454064
528.7042985239665
528.6991443657295
528.6939900710651
528.6888356403427
528.6836810739318
528.6785263722014
528.6733715355214
528.6682165642616
528.663061458792
528.6579062194822
528.6527508467021
528.6475953408209
528.6424397022078
528.6372839312322
528.6321280282638
528.6269719936719
528.621815827826
528.6166595310957
528.6115031038506
528.60634654646
528.6011898592934
528.5960330427203
528.5908760971098
528.5857190228313
528.580561820254
528.5754044897475
528.5702470316809
528.5650894464235
528.5599317343446
528.5547738958136
528.5496159312
528.5444578408734
528.5392996252027
528.5341412845565
528.5289828193032
528.5238242298116
528.5186655164504
528.5135066795887
528.5083477195955
528.5031886368398
528.4980294316903
528.4928701045156
528.4877106556843
528.482551085565
528.477391394527
528.4722315829396
528.4670716511718
528.4619115995923
528.4567514285703
528.4515911384743
528.4464307296731
528.4412702025357
528.4361095574315
528.4309487947293
528.4257879147982
528.4206269180073
528.4154658047258
528.4103045753233
528.4051432301686
528.3999817696307
528.3948201940783
528.3896585038807
528.3844966994071
528.3793347810266
528.374172749108
528.36901060402
528.363848346131
528.3586859758099
528.3535234934253
528.3483608993462
528.3431981939412
528.3380353775793
528.3328724506292
528.3277094134602
528.3225462664417
528.3173830099432
528.3122196443343
528.3070561699843
528.3018925872631
528.2967288965402
528.2915650981851
528.2864011925668
528.2812371800547
528.2760730610181
528.2709088358264
528.2657445048491
528.2605800684556
528.2554155270158
528.2502508808994
528.2450861304766
528.2399212761169
528.2347563181899
528.229591257065
528.2244260931117
528.2192608266995
528.2140954581984
528.2089299879777
528.2037644164067
528.1985987438542
528.1934329706893
528.188267097281
528.1831011239984
528.1779350512107
528.1727688792872
528.1676026085967
528.1624362395079
528.1572697723899
528.152103207612
528.1469365455433
528.1417697865533
528.1366029310112
528.131435979287
528.1262689317501
528.1211017887705
528.1159345507177
528.1107672179616
528.1055997908717
528.1004322698178
528.0952646551694
528.0900969472963
528.0849291465682
528.0797612533553
528.0745932680271
528.0694251909537
528.0642570225051
528.0590887630514
528.0539204129626
528.048751972609
528.0435834423603
528.0384148225863
528.0332461136574
528.0280773159435
528.0229084298154
528.0177394556437
528.0125703937989
528.0074012446518
528.0022320085731
527.9970626859337
527.9918932771042
527.9867237824552
527.9815542023572
527.9763845371805
527.9712147872953
527.9660449530717
527.9608750348799
527.9557050330897
527.9505349480706
527.9453647801928
527.940194529826
527.9350241973399
527.9298537831038
527.9246832874875
527.9195127108607
527.914342053593
527.9091713160543
527.9040004986147
527.8988296016438
527.8936586255112
527.8884875705866
527.8833164372392
527.8781452258378
527.8729739367515
527.8678025703495
527.862631127001
527.8574596070758
527.8522880109432
527.8471163389723
527.8419445915325
527.836772768993
527.831600871723
527.8264289000923
527.8212568544701
527.8160847352259
527.8109125427287
527.8057402773476
527.8005679394515
527.7953955294096
527.790223047591
527.7850504943648
527.7798778701
527.7747051751652
527.7695324099292
527.764359574761
527.7591866700294
527.7540136961032
527.7488406533513
527.7436675421426
527.7384943628464
527.7333211158317
527.7281478014676
527.722974420123
527.7178009721675
527.7126274579706
527.7074538779021
527.7022802323321
527.6971065216302
527.6919327461661
527.6867589063098
527.6815850024315
527.676411034901
527.6712370040879
527.6660629103616
527.6608887540916
527.6557145356477
527.6505402553993
527.6453659137161
527.6401915109678
527.6350170475242
527.629842523755
527.6246679400298
527.6194932967179
527.6143185941888
527.6091438328123
527.6039690129579
527.5987941349953
527.593619199294
527.5884442062244
527.5832691561565
527.5780940494607
527.572918886507
527.5677436676655
527.5625683933064
527.5573930637996
527.5522176795149
527.5470422408217
527.5418667480895
527.5366912016881
527.5315156019873
527.5263399493571
527.5211642441674
527.5159884867877
527.5108126775875
527.5056368169363
527.5004609052036
527.4952849427588
527.4901089299711
527.48493286721
527.4797567548445
527.474580593244
527.4694043827773
527.4642281238126
527.4590518167189
527.4538754618646
527.4486990596182
527.4435226103477
527.4383461144217
527.4331695722086
527.4279929840769
527.422816350395
527.4176396715314
527.4124629478548
527.4072861797337
527.4021093675366
527.3969325116319
527.391755612388
527.3865786701732
527.3814016853556
527.3762246583038
527.3710475893864
527.3658704789719
527.3606933274287
527.3555161351256
527.3503389024314
527.3451616297149
527.3399843173446
527.3348069656887
527.3296295751157
527.3244521459945
527.3192746786939
527.3140971735826
527.3089196310294
527.303742051403
527.2985644350719
527.2933867824046
527.2882090937698
527.2830313695355
527.2778536100699
527.2726758157411
527.2674979869176
527.2623201239677
527.2571422272596
527.2519642971619
527.2467863340433
527.2416083382733
527.2364303102212
527.2312522502567
527.2260741587498
527.2208960360705
527.2157178825886
527.2105396986743
527.2053614846978
527.2001832410293
527.1950049680391
527.1898266660979
527.1846483355768
527.1794699768467
527.174291590279
527.1691131762449
527.163934735115
527.1587562672604
527.153577773052
527.1483992528612
527.1432207070592
527.1380421360171
527.1328635401061
527.1276849196971
527.1225062751613
527.1173276068697
527.1121489151934
527.1069702005035
527.1017914631713
527.0966127035682
527.0914339220659
527.0862551190359
527.0810762948494
527.0758974498777
527.0707185844927
527.0655396990659
527.0603607939689
527.0551818695739
527.0500029262527
527.0448239643775
527.0396449843203
527.0344659864523
527.0292869711449
527.0241079387689
527.018928889696
527.0137498242974
527.0085707429445
527.0033916460085
526.9982125338607
526.9930334068725
526.9878542654147
526.9826751098582
526.9774959405739
526.9723167579328
526.9671375623058
526.9619583540635
526.9567791335772
526.951599901218
526.9464206573563
526.9412414023628
526.9360621366083
526.9308828604632
526.9257035742982
526.9205242784841
526.915344973392
526.9101656593926
526.9049863368567
526.8998070061556
526.8946276676608
526.889448321744
526.8842689687766
526.8790896091301
526.873910243176
526.8687308712857
526.8635514938306
526.8583721111821
526.8531927237115
526.84801333179
526.8428339357891
526.8376545360803
526.8324751330348
526.8272957270239
526.822116318419
526.8169369075919
526.8117574949139
526.8065780807561
526.8013986654897
526.7962192494857
526.7910398331156
526.7858604167508
526.7806810007622
526.775501585521
526.7703221713986
526.7651427587658
526.7599633479937
526.754783939453
526.7496045335141
526.744425130547
526.7392457309221
526.7340663350097
526.7288869431806
526.7237075558047
526.7185281732521
526.7133487958928
526.7081694240966
526.7029900582339
526.697810698675
526.6926313457901
526.6874519999495
526.6822726615236
526.6770933308832
526.6719140083993
526.6667346944429
526.6615553893845
526.6563760935943
526.6511968074425
526.6460175312992
526.6408382655346
526.6356590105194
526.6304797666238
526.6253005342184
526.6201213136734
526.6149421053595
526.6097629096472
526.6045837269068
526.5994045575081
526.5942254018215
526.5890462602171
526.5838671330649
526.5786880207353
526.5735089235983
526.5683298420246
526.5631507763843
526.5579717270472
526.5527926943829
526.5476136787612
526.5424346805518
526.5372557001245
526.532076737849
526.5268977940951
526.5217188692328
526.5165399636318
526.5113610776617
526.5061822116924
526.5010033660934
526.4958245412346
526.4906457374858
526.4854669552166
526.4802881947961
526.4751094565937
526.4699307409784
526.4647520483192
526.4595733789848
526.4543947333442
526.4492161117661
526.4440375146197
526.4388589422744
526.4336803950997
526.428501873466
526.4233233777433
526.4181449083018
526.4129664655117
526.4077880497426
526.402609661364
526.3974313007446
526.3922529682542
526.3870746642618
526.3818963891364
526.3767181432464
526.3715399269605
526.3663617406472
526.3611835846754
526.3560054594137
526.3508273652311
526.3456493024959
526.3404712715768
526.3352932728429
526.3301153066631
526.3249373734058
526.3197594734394
526.3145816071325
526.3094037748536
526.304225976971
526.2990482138526
526.2938704858667
526.2886927933813
526.2835151367645
526.2783375163846
526.2731599326095
526.2679823858076
526.2628048763471
526.2576274045961
526.2524499709226
526.2472725756944
526.2420952192789
526.2369179020435
526.2317406243552
526.2265633865815
526.2213861890897
526.2162090322473
526.2110319164218
526.2058548419808
526.200677809292
526.1955008187234
526.1903238706433
526.1851469654197
526.1799701034203
526.1747932850127
526.1696165105647
526.1644397804436
526.1592630950173
526.1540864546538
526.1489098597211
526.1437333105874
526.1385568076211
526.1333803511903
526.1282039416636
526.1230275794097
526.1178512647972
526.1126749981951
526.1074987799726
526.1023226104986
526.0971464901419
526.0919704192714
526.0867943982563
526.0816184274655
526.0764425072681
526.0712666380333
526.06609082013
526.0609150539268
526.0557393397927
526.050563678096
526.0453880692047
526.0402125134871
526.0350370113107
526.0298615630433
526.0246861690522
526.0195108297045
526.0143355453666
526.0091603164052
526.0039851431872
525.9988100260797
525.99363496545
525.9884599616659
525.9832850150946
525.9781101261038
525.9729352950613
525.9677605223343
525.9625858082901
525.957411153296
525.9522365577196
525.9470620219287
525.9418875462908
525.9367131311736
525.9315387769446
525.9263644839713
525.9211902526214
525.9160160832627
525.910841976263
525.9056679319903
525.9004939508123
525.8953200330972
525.8901461792126
525.884972389527
525.8797986644089
525.8746250042269
525.8694514093496
525.8642778801458
525.859104416984
525.8539310202328
525.8487576902609
525.8435844274364
525.8384112321279
525.833238104704
525.8280650455337
525.8228920549851
525.8177191334267
525.8125462812267
525.8073734987532
525.8022007863743
525.7970281444581
525.7918555733723
525.7866830734853
525.7815106451648
525.7763382887784
525.771166004694
525.7659937932791
525.7608216549016
525.755649589929
525.7504775987283
525.7453056816659
525.7401338391086
525.7349620714234
525.7297903789776
525.7246187621382
525.7194472212726
525.7142757567477
525.7091043689308
525.7039330581885
525.6987618248874
525.693590669394
525.6884195920749
525.6832485932963
525.6780776734241
525.6729068328247
525.6677360718642
525.6625653909094
525.6573947903274
525.6522242704851
525.6470538317495
525.6418834744878
525.6367131990675
525.6315430058559
525.6263728952205
525.6212028675285
525.6160329231471
525.6108630624432
525.6056932857836
525.6005235935351
525.5953539860644
525.5901844637384
525.5850150269235
525.5798456759863
525.5746764112934
525.5695072332109
525.5643381421054
525.5591691383435
525.5540002222921
525.5488313943177
525.5436626547868
525.5384940040652
525.5333254425192
525.5281569705149
525.522988588419
525.5178202965982
525.5126520954192
525.5074839852488
525.5023159664539
525.4971480394016
525.4919802044589
525.4868124619926
525.4816448123696
525.4764772559566
525.4713097931209
525.4661424242294
525.4609751496492
525.4558079697473
525.4506408848903
525.4454738954447
525.4403070017767
525.4351402042522
525.4299735032374
525.4248068990984
525.4196403922007
525.4144739829097
525.4093076715909
525.4041414586096
525.3989753443312
525.3938093291212
525.3886434133443
525.3834775973652
525.378311881548
525.3731462662569
525.3679807518553
525.3628153387068
525.3576500271748
525.3524848176224
525.3473197104132
525.3421547059107
525.3369898044783
525.3318250064791
525.3266603122767
525.3214957222345
525.3163312367161
525.3111668560847
525.3060025807036
525.3008384109365
525.2956743471469
525.2905103896986
525.2853465389554
525.2801827952809
525.2750191590382
525.2698556305901
525.2646922102996
525.2595288985291
525.2543656956406
525.2492026019958
525.2440396179562
525.2388767438835
525.233713980139
525.2285513270841
525.2233887850804
525.2182263544888
525.2130640356701
525.2079018289847
525.2027397347937
525.1975777534575
525.1924158853366
525.1872541307911
525.1820924901812
525.1769309638668
525.171769552208
525.1666082555654
525.161447074299
525.1562860087689
525.1511250593354
525.1459642263588
525.1408035101996
525.135642911218
525.130482429775
525.1253220662312
525.1201618209476
525.1150016942851
525.1098416866045
525.1046817982666
525.0995220296319
525.0943623810609
525.0892028529146
525.0840434455532
525.078884159337
525.0737249946261
525.0685659517804
525.0634070311602
525.0582482331257
525.0530895580379
525.0479310062575
525.0427725781457
525.0376142740635
525.0324560943719
525.0272980394317
525.0221401096034
525.0169823052478
525.0118246267258
525.0066670743983
525.001509648626
524.9963523497696
524.9911951781897
524.986038134247
524.980881218302
524.9757244307153
524.9705677718476
524.9654112420593
524.9602548417107
524.9550985711618
524.9499424307725
524.9447864209027
524.9396305419124
524.9344747941615
524.9293191780099
524.9241636938174
524.9190083419436
524.9138531227485
524.908698036592
524.903543083834
524.8983882648344
524.8932335799524
524.8880790295476
524.8829246139795
524.8777703336078
524.8726161887927
524.8674621798942
524.8623083072722
524.8571545712867
524.852000972298
524.8468475106662
524.8416941867514
524.8365410009138
524.8313879535134
524.8262350449103
524.8210822754642
524.8159296455343
524.8107771554797
524.8056248056595
524.8004725964323
524.795320528157
524.7901686011925
524.7850168158969
524.7798651726285
524.774713671745
524.7695623136038
524.7644110985624
524.7592600269776
524.7541090992062
524.7489583156051
524.7438076765317
524.7386571823428
524.7335068333952
524.7283566300456
524.7232065726508
524.7180566615672
524.7129068971509
524.7077572797581
524.7026078097446
524.6974584874662
524.6923093132783
524.6871602875364
524.6820114105957
524.6768626828117
524.6717141045398
524.6665656761353
524.6614173979532
524.6562692703486
524.6511212936763
524.6459734682909
524.6408257945469
524.635678272799
524.630530903402
524.6253836867103
524.6202366230779
524.615089712859
524.6099429564082
524.6047963540799
524.5996499062288
524.5945036132094
524.589357475376
524.5842114930823
524.5790656666819
524.5739199965284
524.5687744829748
524.5636291263742
524.5584839270792
524.5533388854427
524.5481940018168
524.5430492765537
524.5379047100058
524.5327603025254
524.5276160544646
524.5224719661759
524.5173280380119
524.5121842703253
524.5070406634687
524.5018972177951
524.496753933657
524.4916108114068
524.4864678513965
524.4813250539781
524.4761824195037
524.4710399483248
524.4658976407926
524.4607554972582
524.4556135180727
524.4504717035871
524.4453300541528
524.4401885701208
524.4350472518419
524.4299060996672
524.4247651139473
524.4196242950328
524.4144836432739
524.4093431590205
524.4042028426226
524.3990626944297
524.3939227147918
524.3887829040585
524.3836432625802
524.378503790707
524.373364488789
524.3682253571759
524.3630863962172
524.3579476062624
524.3528089876608
524.3476705407614
524.3425322659137
524.3373941634669
524.3322562337704
524.3271184771739
524.321980894027
524.316843484679
524.3117062494795
524.3065691887779
524.3014323029234
524.2962955922657
524.291159057154
524.2860226979375
524.2808865149647
524.2757505085839
524.2706146791435
524.2654790269913
524.2603435524753
524.2552082559429
524.250073137741
524.2449381982166
524.2398034377167
524.2346688565882
524.2295344551782
524.2244002338333
524.2192661929004
524.2141323327261
524.2089986536565
524.2038651560375
524.1987318402149
524.1935987065341
524.1884657553402
524.1833329869788
524.1782004017954
524.1730680001355
524.1679357823447
524.1628037487682
524.1576718997509
524.152540235638
524.1474087567748
524.142277463507
524.1371463561799
524.1320154351389
524.1268847007292
524.1217541532957
524.1166237931828
524.1114936207351
524.1063636362973
524.1012338402139
524.0961042328296
524.0909748144887
524.0858455855356
524.0807165463144
524.0755876971695
524.0704590384449
524.0653305704851
524.0602022936342
524.0550742082365
524.049946314636
524.0448186131767
524.0396911042031
524.0345637880592
524.0294366650893
524.0243097356375
524.0191830000482
524.0140564586651
524.008930111832
524.0038039598927
523.9986780031912
523.9935522420714
523.9884266768771
523.9833013079525
523.9781761356415
523.973051160288
523.9679263822358
523.9628018018287
523.9576774194112
523.952553235327
523.9474292499195
523.9423054635323
523.9371818765081
523.9320584891894
523.9269353019189
523.9218123150393
523.9166895288932
523.9115669438223
523.9064445601681
523.9013223782719
523.8962003984747
523.8910786211173
523.8859570465407
523.8808356750852
523.8757145070914
523.8705935428999
523.8654727828513
523.8603522272862
523.8552318765452
523.8501117309685
523.8449917908962
523.8398720566687
523.8347525286264
523.8296332071099
523.8245140924597
523.8193951850166
523.814276485121
523.8091579931134
523.8040397093338
523.7989216341217
523.7938037678167
523.7886861107578
523.783568663284
523.7784514257343
523.7733343984477
523.768217581763
523.7631009760192
523.7579845815554
523.7528683987108
523.7477524278244
523.7426366692347
523.7375211232799
523.7324057902975
523.7272906706256
523.7221757646017
523.7170610725635
523.7119465948482
523.7068323317932
523.7017182837359
523.6966044510135
523.6914908339633
523.6863774329221
523.6812642482272
523.6761512802158
523.671038529225
523.6659259955919
523.6608136796536
523.6557015817476
523.6505897022113
523.6454780413823
523.6403665995978
523.6352553771952
523.6301443745118
523.6250335918845
523.6199230296503
523.6148126881459
523.6097025677078
523.6045926686724
523.599482991376
523.5943735361553
523.5892643033468
523.5841552932872
523.5790465063134
523.573937942762
523.5688296029697
523.5637214872728
523.5586135960078
523.5535059295113
523.5483984881199
523.5432912721704
523.5381842819994
523.5330775179433
523.5279709803386
523.5228646695224
523.5177585858315
523.5126527296026
523.507547101172
523.5024417008764
523.4973365290517
523.4922315860339
523.4871268721587
523.482022387762
523.4769181331791
523.4718141087457
523.4667103147973
523.4616067516691
523.4565034196961
523.4514003192127
523.4462974505533
523.4411948140527
523.4360924100453
523.4309902388655
523.4258883008475
523.4207865963248
523.4156851256308
523.410583889099
523.4054828870627
523.4003821198554
523.3952815878107
523.3901812912624
523.3850812305437
523.3799814059877
523.3748818179268
523.3697824666939
523.3646833526215
523.3595844760422
523.3544858372885
523.3493874366924
523.3442892745858
523.3391913513007
523.3340936671688
523.3289962225218
523.3238990176914
523.3188020530084
523.3137053288038
523.3086088454085
523.3035126031533
523.298416602369
523.2933208433861
523.2882253265353
523.2831300521474
523.2780350205531
523.2729402320834
523.2678456870686
523.2627513858389
523.2576573287246
523.2525635160558
523.2474699481626
523.2423766253747
523.237283548022
523.232190716434
523.2270981309404
523.2220057918704
523.2169136995539
523.2118218543204
523.2067302564998
523.2016389064214
523.196547804415
523.19145695081
523.1863663459359
523.1812759901219
523.176185883697
523.1710960269905
523.1660064203317
523.1609170640492
523.1558279584716
523.1507391039275
523.145650500746
523.1405621492555
523.1354740497846
523.1303862026622
523.1252986082169
523.1202112667771
523.1151241786707
523.110037344226
523.1049507637712
523.0998644376338
523.0947783661414
523.0896925496219
523.0846069884029
523.0795216828125
523.0744366331784
523.0693518398285
523.0642673030908
523.0591830232926
523.0540990007618
523.0490152358262
523.0439317288136
523.0388484800513
523.0337654898666
523.0286827585861
523.0236002865369
523.0185180740456
523.0134361214385
523.0083544290416
523.0032729971803
522.9981918261802
522.9931109163668
522.9880302680652
522.9829498816008
522.9778697572987
522.972789895484
522.9677102964819
522.9626309606173
522.9575518882149
522.9524730795994
522.9473945350957
522.9423162550285
522.9372382397224
522.9321604895023
522.9270830046927
522.9220057856184
522.916928832604
522.9118521459737
522.9067757260524
522.9016995731648
522.896623687636
522.8915480697907
522.886472719954
522.8813976384505
522.8763228256047
522.8712482817408
522.8661740071826
522.8611000022539
522.8560262672785
522.8509528025799
522.845879608482
522.8408066853091
522.8357340333849
522.8306616530336
522.8255895445787
522.8205177083443
522.8154461446544
522.8103748538332
522.8053038362044
522.8002330920914
522.7951626218174
522.7900924257059
522.7850225040798
522.779952857262
522.7748834855748
522.7698143893409
522.7647455688826
522.7596770245224
522.7546087565826
522.7495407653856
522.7444730512537
522.7394056145089
522.7343384554725
522.7292715744658
522.7242049718099
522.7191386478261
522.7140726028357
522.70900683716
522.7039413511203
522.6988761450376
522.6938112192325
522.6887465740257
522.6836822097374
522.6786181266879
522.673554325197
522.6684908055842
522.6634275681691
522.6583646132714
522.6533019412101
522.6482395523045
522.6431774468734
522.6381156252352
522.6330540877076
522.6279928346083
522.6229318662544
522.6178711829624
522.6128107850494
522.6077506728326
522.6026908466293
522.5976313067573
522.5925720535344
522.5875130872777
522.5824544083044
522.5773960169319
522.5723379134771
522.5672800982571
522.5622225715889
522.5571653337894
522.5521083851753
522.5470517260634
522.5419953567701
522.5369392776121
522.5318834889057
522.5268279909675
522.5217727841138
522.5167178686605
522.5116632449236
522.5066089132187
522.501554873861
522.4965011271657
522.4914476734481
522.4863945130231
522.4813416462058
522.476289073311
522.4712367946535
522.4661848105476
522.4611331213076
522.4560817272471
522.4510306286796
522.4459798259187
522.4409293192776
522.4358791090693
522.4308291956064
522.4257795792015
522.4207302601668
522.4156812388147
522.4106325154572
522.4055840904063
522.4005359639733
522.3954881364695
522.3904406082057
522.3853933794929
522.3803464506417
522.3752998219626
522.370253493766
522.3652074663622
522.3601617400615
522.3551163151734
522.3500711920075
522.3450263708727
522.339981852078
522.3349376359323
522.3298937227438
522.3248501128209
522.3198068064718
522.3147638040047
522.3097211057276
522.3046787119489
522.2996366229769
522.2945948391194
522.2895533606844
522.2845121879797
522.2794713213126
522.2744307609906
522.2693905073212
522.2643505606117
522.259310921169
522.2542715893
522.2492325653112
522.2441938495091
522.2391554421996
522.2341173436886
522.2290795542814
522.2240420742834
522.2190049040001
522.2139680437373
522.2089314938004
522.203895254495
522.1988593261268
522.1938237090011
522.1887884034228
522.1837534096968
522.1787187281283
522.1736843590223
522.1686503026841
522.1636165594188
522.1585831295309
522.1535500133251
522.148517211106
522.143484723178
522.1384525498453
522.1334206914122
522.1283891481831
522.1233579204626
522.118327008555
522.1132964127647
522.1082661333961
522.1032361707533
522.0982065251402
522.09317719686
522.0881481862158
522.0831194935109
522.0780911190485
522.0730630631311
522.0680353260615
522.0630079081421
522.0579808096755
522.0529540309641
522.0479275723102
522.0429014340167
522.0378756163865
522.0328501197222
522.027824944326
522.0228000905
522.0177755585465
522.0127513487674
522.0077274614642
522.0027038969384
521.9976806554911
521.9926577374232
521.9876351430358
521.9826128726296
521.9775909265051
521.9725693049628
521.967548008303
521.962527036825
521.9575063908281
521.9524860706111
521.9474660764728
521.9424464087118
521.9374270676268
521.9324080535163
521.9273893666788
521.9223710074126
521.9173529760161
521.9123352727871
521.9073178980235
521.9023008520227
521.8972841350816
521.8922677474972
521.8872516895659
521.8822359615841
521.8772205638476
521.8722054966514
521.8671907602903
521.8621763550588
521.8571622812511
521.8521485391617
521.8471351290847
521.8421220513143
521.8371093061443
521.832096893868
521.8270848147787
521.8220730691697
521.8170616573346
521.812050579567
521.8070398361598
521.8020294274062
521.7970193535995
521.792009615033
521.7870002120004
521.7819911447954
521.7769824137114
521.771974019042
521.7669659610807
521.7619582401209
521.7569508564553
521.7519438103765
521.746937102177
521.741930732149
521.7369247005846
521.7319190077764
521.7269136540164
521.7219086395972
521.7169039648119
521.7118996299529
521.7068956353129
521.7018919811845
521.6968886678602
521.6918856956328
521.6868830647946
521.681880775638
521.6768788284547
521.6718772235371
521.6668759611777
521.6618750416688
521.6568744653028
521.6518742323716
521.646874343167
521.6418747979811
521.6368755971058
521.631876740833
521.6268782294547
521.6218800632627
521.6168822425481
521.6118847676022
521.6068876387159
521.6018908561799
521.5968944202851
521.5918983313219
521.5869025895805
521.5819071953514
521.5769121489249
521.5719174505911
521.5669231006399
521.561929099361
521.5569354470441
521.5519421439789
521.5469491904552
521.5419565867627
521.5369643331911
521.5319724300299
521.526980877568
521.5219896760942
521.5169988258973
521.5120083272658
521.5070181804882
521.5020283858529
521.4970389436481
521.4920498541625
521.4870611176844
521.4820727345024
521.4770847049045
521.4720970291786
521.4671097076122
521.4621227404926
521.4571361281072
521.452149870743
521.4471639686875
521.4421784222278
521.4371932316509
521.4322083972439
521.4272239192939
521.4222397980876
521.4172560339117
521.4122726270522
521.407289577795
521.4023068864263
521.3973245532317
521.3923425784964
521.3873609625053
521.3823797055437
521.3773988078964
521.372418269848
521.3674380916829
521.3624582736849
521.3574788161374
521.3524997193236
521.3475209835266
521.3425426090288
521.3375645961127
521.3325869450604
521.3276096561536
521.3226327296742
521.3176561659039
521.3126799651251
521.3077041276202
521.3027286536723
521.2977535435642
521.2927787975792
521.2878044160001
521.2828303991095
521.2778567471895
521.2728834605224
521.2679105393905
521.2629379840761
521.2579657948614
521.2529939720295
521.2480225158628
521.243051426644
521.2380807046553
521.2331103501789
521.2281403634971
521.223170744892
521.2182014946451
521.2132326130378
521.2082641003514
521.203295956867
521.198328182866
521.1933607786292
521.1883937444373
521.1834270805715
521.1784607873125
521.1734948649408
521.1685293137372
521.163564133982
521.1585993259561
521.1536348899398
521.1486708262138
521.1437071350587
521.1387438167548
521.133780871582
521.1288182998197
521.1238561017477
521.1188942776461
521.1139328277947
521.1089717524729
521.1040110519599
521.0990507265343
521.0940907764749
521.0891312020605
521.0841720035697
521.0792131812815
521.074254735474
521.0692966664254
521.0643389744142
521.059381659719
521.0544247226177
521.0494681633885
521.0445119823097
521.0395561796596
521.0346007557165
521.0296457107585
521.0246910450634
521.0197367589086
521.0147828525713
521.0098293263287
521.0048761804575
520.9999234152343
520.9949710309362
520.9900190278398
520.9850674062219
520.9801161663587
520.9751653085265
520.9702148330013
520.9652647400591
520.960315029976
520.955365703028
520.9504167594913
520.9454681996423
520.9405200237571
520.9355722321121
520.9306248249833
520.9256778026466
520.9207311653778
520.9157849134521
520.9108390471446
520.90589356673
520.900948472483
520.8960037646779
520.8910594435885
520.8861155094888
520.8811719626527
520.8762288033537
520.8712860318657
520.8663436484627
520.8614016534187
520.8564600470075
520.8515188295024
520.8465780011762
520.8416375623016
520.8366975131509
520.8317578539962
520.8268185851097
520.8218797067624
520.8169412192257
520.8120031227705
520.8070654176682
520.8021281041898
520.7971911826063
520.7922546531883
520.7873185162058
520.7823827719286
520.7774474206261
520.7725124625678
520.7675778980228
520.7626437272603
520.7577099505498
520.7527765681608
520.7478435803629
520.7429109874257
520.737978789619
520.7330469872123
520.7281155804754
520.7231845696775
520.7182539550878
520.713323736975
520.7083939156074
520.7034644912534
520.6985354641814
520.69360683466
520.6886786029573
520.6837507693411
520.6788233340791
520.6738962974383
520.6689696596858
520.6640434210877
520.65911758191
520.6541921424179
520.6492671028765
520.644342463551
520.639418224706
520.6344943866067
520.6295709495181
520.624647913705
520.6197252794317
520.6148030469627
520.6098812165625
520.604959788495
520.6000387630239
520.5951181404131
520.5901979209258
520.5852781048253
520.580358692375
520.575439683838
520.5705210794778
520.5656028795573
520.5606850843393
520.5557676940863
520.5508507090609
520.5459341295256
520.5410179557424
520.5361021879731
520.5311868264795
520.5262718715229
520.5213573233647
520.516443182266
520.5115294484877
520.5066161222904
520.5017032039342
520.4967906936789
520.4918785917847
520.4869668985119
520.4820556141204
520.4771447388702
520.4722342730212
520.4673242168334
520.4624145705667
520.4575053344807
520.4525965088347
520.4476880938879
520.442780089899
520.4378724971269
520.4329653158308
520.4280585462694
520.4231521887015
520.4182462433849
520.4133407105775
520.4084355905367
520.4035308835197
520.3986265897835
520.3937227095854
520.3888192431831
520.3839161908337
520.3790135527939
520.3741113293205
520.3692095206699
520.3643081270983
520.3594071488618
520.3545065862162
520.3496064394172
520.344706708721
520.3398073943832
520.3349084966598
520.3300100158064
520.3251119520781
520.3202143057302
520.3153170770173
520.310420266194
520.3055238735147
520.300627899234
520.2957323436063
520.2908372068865
520.2859424893294
520.2810481911898
520.2761543127223
520.2712608541814
520.2663678158218
520.2614751978978
520.2565830006637
520.2516912243735
520.2467998692808
520.2419089356382
520.237018423698
520.2321283337125
520.2272386659334
520.2223494206129
520.2174605980027
520.2125721983547
520.2076842219204
520.2027966689519
520.1979095397011
520.19302283442
520.1881365533606
520.1832506967745
520.1783652649139
520.1734802580305
520.1685956763764
520.1637115202033
520.1588277897625
520.1539444853062
520.1490616070861
520.144179155354
520.1392971303613
520.1344155323596
520.1295343616001
520.124653618334
520.1197733028126
520.1148934152872
520.1100139560086
520.1051349252285
520.1002563231983
520.0953781501695
520.0905004063931
520.08562309212
520.080746207601
520.0758697530863
520.0709937288262
520.0661181350712
520.0612429720715
520.0563682400772
520.0514939393385
520.0466200701054
520.0417466326279
520.0368736271554
520.0320010539368
520.027128913221
520.0222572052563
520.0173859302914
520.0125150885752
520.0076446803565
520.0027747058836
519.9979051654044
519.9930360591671
519.9881673874198
519.9832991504105
519.9784313483875
519.9735639815987
519.9686970502916
519.9638305547138
519.9589644951133
519.9540988717373
519.9492336848335
519.9443689346498
519.9395046214339
519.9346407454333
519.9297773068953
519.9249143060675
519.9200517431974
519.9151896185323
519.9103279323191
519.9054666848043
519.900605876234
519.8957455068538
519.8908855769097
519.8860260866469
519.8811670363106
519.8763084261456
519.8714502563965
519.8665925273082
519.8617352391253
519.8568783920929
519.8520219864555
519.8471660224583
519.8423105003466
519.8374554203657
519.832600782761
519.8277465877774
519.8228928356594
519.8180395266517
519.813186660998
519.8083342389419
519.8034822607275
519.7986307265988
519.7937796367997
519.7889289915735
519.7840787911633
519.7792290358126
519.7743797257643
519.7695308612616
519.764682442547
519.7598344698628
519.754986943451
519.7501398635533
519.7452932304114
519.7404470442667
519.7356013053601
519.7307560139324
519.7259111702243
519.7210667744768
519.7162228269304
519.711379327826
519.7065362774039
519.7016936759047
519.6968515235689
519.6920098206368
519.687168567349
519.6823277639456
519.6774874106671
519.672647507754
519.6678080554467
519.6629690539854
519.6581305036103
519.653292404562
519.6484547570809
519.6436175614073
519.6387808177807
519.6339445264404
519.6291086876257
519.624273301576
519.6194383685303
519.6146038887276
519.6097698624072
519.6049362898085
519.6001031711709
519.5952705067335
519.5904382967361
519.5856065414181
519.5807752410184
519.5759443957758
519.571114005929
519.5662840717167
519.5614545933776
519.5566255711495
519.5517970052707
519.5469688959789
519.542141243512
519.5373140481075
519.5324873100031
519.527661029436
519.5228352066434
519.5180098418624
519.5131849353294
519.5083604872808
519.5035364979536
519.4987129675845
519.4938898964105
519.4890672846683
519.484245132595
519.4794234404272
519.4746022084015
519.4697814367538
519.4649611257197
519.4601412755347
519.4553218864345
519.4505029586545
519.4456844924299
519.4408664879955
519.4360489455863
519.4312318654371
519.4264152477828
519.4215990928582
519.4167834008985
519.4119681721387
519.4071534068136
519.4023391051575
519.3975252674051
519.392711893791
519.3878989845497
519.3830865399153
519.3782745601214
519.3734630454011
519.3686519959875
519.3638414121139
519.3590312940133
519.3542216419188
519.3494124560631
519.3446037366786
519.3397954839978
519.3349876982535
519.3301803796782
519.3253735285044
519.3205671449651
519.3157612292927
519.3109557817194
519.3061508024776
519.3013462918001
519.2965422499195
519.2917386770686
519.2869355734798
519.2821329393856
519.2773307750182
519.2725290806096
519.2677278563921
519.2629271025977
519.2581268194587
519.2533270072068
519.248527666074
519.2437287962913
519.2389303980896
519.2341324716991
519.2293350173501
519.2245380352721
519.2197415256948
519.2149454888473
519.2101499249585
519.205354834257
519.2005602169717
519.1957660733311
519.1909724035637
519.1861792078975
519.18138648656
519.1765942397784
519.1718024677801
519.1670111707923
519.1622203490416
519.1574300027547
519.1526401321581
519.1478507374783
519.1430618189414
519.1382733767738
519.1334854112011
519.1286979224495
519.1239109107447
519.1191243763125
519.1143383193786
519.1095527401686
519.1047676389077
519.0999830158204
519.095198871131
519.0904152050636
519.0856320178422
519.0808493096907
519.0760670808328
519.0712853314918
519.0665040618914
519.0617232722544
519.0569429628041
519.052163133763
519.0473837853532
519.0426049177969
519.0378265313162
519.0330486261329
519.028271202469
519.0234942605467
519.018717800588
519.0139418228147
519.0091663274485
519.0043913147109
518.9996167848238
518.9948427380092
518.9900691744884
518.9852960944833
518.9805234982151
518.975751385905
518.9709797577738
518.9662086140421
518.9614379549308
518.9566677806607
518.9518980914526
518.9471288875274
518.9423601691059
518.9375919364091
518.9328241896579
518.9280569290733
518.9232901548759
518.9185238672864
518.9137580665248
518.9089927528108
518.9042279263641
518.8994635874045
518.8946997361519
518.8899363728266
518.8851734976489
518.8804111108392
518.8756492126175
518.8708878032036
518.866126882817
518.8613664516771
518.8566065100034
518.8518470580151
518.8470880959313
518.8423296239715
518.8375716423553
518.8328141513022
518.8280571510314
518.8233006417623
518.818544623714
518.8137890971058
518.8090340621562
518.8042795190842
518.7995254681078
518.7947719094453
518.7900188433147
518.7852662699337
518.7805141895202
518.775762602292
518.771011508467
518.7662609082632
518.7615108018982
518.7567611895894
518.7520120715541
518.7472634480097
518.7425153191735
518.7377676852626
518.7330205464933
518.7282739030821
518.7235277552451
518.7187821031977
518.7140369471555
518.7092922873338
518.7045481239478
518.6998044572127
518.695061287344
518.6903186145568
518.685576439066
518.6808347610864
518.6760935808321
518.6713528985173
518.6666127143559
518.6618730285619
518.6571338413488
518.6523951529299
518.6476569635184
518.6429192733273
518.6381820825694
518.6334453914579
518.6287092002057
518.6239735090254
518.6192383181302
518.6145036277329
518.6097694380463
518.6050357492828
518.6003025616548
518.5955698753743
518.5908376906531
518.5861060077026
518.5813748267343
518.5766441479597
518.5719139715899
518.567184297836
518.5624551269092
518.5577264590203
518.55299829438
518.548270633199
518.5435434756872
518.5388168220546
518.5340906725106
518.5293650272641
518.5246398865235
518.5199152504966
518.5151911193915
518.5104674934156
518.5057443727766
518.501021757682
518.4962996483392
518.4915780449556
518.4868569477381
518.4821363568934
518.4774162726281
518.472696695149
518.4679776246627
518.4632590613757
518.4585410054939
518.4538234572234
518.44910641677
518.4443898843389
518.4396738601355
518.4349583443651
518.4302433372324
518.4255288389414
518.4208148496965
518.4161013697018
518.4113883991614
518.4066759382791
518.4019639872587
518.3972525463042
518.3925416156197
518.3878311954091
518.3831212858764
518.3784118872255
518.3737029996602
518.3689946233841
518.3642867586005
518.3595794055128
518.3548725643242
518.3501662352375
518.3454604184559
518.3407551141828
518.3360503226216
518.3313460439757
518.3266422784476
518.3219390262399
518.3172362875551
518.3125340625958
518.3078323515643
518.303131154663
518.2984304720941
518.2937303040595
518.2890306507612
518.2843315124009
518.2796328891799
518.2749347812993
518.2702371889599
518.2655401123624
518.2608435517074
518.2561475071949
518.2514519790249
518.2467569673969
518.2420624725108
518.2373684945661
518.2326750337621
518.2279820902983
518.2232896643737
518.2185977561873
518.2139063659371
518.2092154938215
518.2045251400388
518.1998353047874
518.1951459882656
518.1904571906717
518.185768912204
518.181081153061
518.1763939134408
518.1717071935419
518.1670209935625
518.1623353137007
518.157650154155
518.1529655151236
518.1482813968042
518.1435977993948
518.1389147230933
518.1342321680978
518.1295501346063
518.1248686228165
518.1201876329256
518.1155071651311
518.1108272196299
518.1061477966183
518.1014688962931
518.096790518851
518.0921126644881
518.0874353334008
518.0827585257847
518.0780822418357
518.073406481749
518.06873124572
518.0640565339439
518.0593823466157
518.0547086839298
518.0500355460805
518.045362933262
518.0406908456681
518.0360192834925
518.0313482469288
518.0266777361709
518.0220077514119
518.0173382928452
518.0126693606641
518.0080009550614
518.00333307623
517.998665724362
517.9939988996501
517.9893326022867
517.9846668324641
517.9800015903749
517.9753368762116
517.9706726901662
517.9660090324309
517.9613459031976
517.9566833026589
517.9520212310073
517.9473596884353
517.9426986751354
517.9380381912994
517.933378237119
517.9287188127856
517.9240599184906
517.919401554425
517.9147437207799
517.9100864177468
517.9054296455168
517.900773404281
517.8961176942304
517.8914625155559
517.8868078684483
517.8821537530977
517.8775001696941
517.8728471184276
517.8681945994878
517.8635426130646
517.8588911593482
517.8542402385284
517.8495898507955
517.8449399963398
517.8402906753514
517.8356418880202
517.830993634536
517.8263459150886
517.8216987298678
517.8170520790633
517.8124059628645
517.8077603814605
517.8031153350402
517.798470823792
517.7938268479041
517.7891834075655
517.7845405029647
517.7798981342904
517.7752563017312
517.7706150054754
517.7659742457112
517.7613340226268
517.7566943364101
517.7520551872491
517.7474165753316
517.7427785008455
517.738140963978
517.7335039649162
517.7288675038468
517.7242315809568
517.7195961964329
517.7149613504615
517.7103270432291
517.705693274922
517.7010600457266
517.6964273558289
517.6917952054147
517.6871635946701
517.6825325237807
517.6779019929319
517.6732720023093
517.6686425520985
517.6640136424845
517.659385273652
517.6547574457855
517.6501301590694
517.6455034136876
517.6408772098242
517.6362515476629
517.6316264273875
517.6270018491815
517.6223778132288
517.6177543197128
517.6131313688171
517.6085089607246
517.6038870956185
517.5992657736816
517.5946449950974
517.5900247600488
517.5854050687188
517.5807859212906
517.5761673179474
517.5715492588721
517.5669317442481
517.5623147742582
517.5576983490852
517.5530824689118
517.5484671339212
517.5438523442962
517.5392381002192
517.534624401873
517.5300112494402
517.5253986431036
517.5207865830458
517.5161750694493
517.5115641024967
517.50695368237
517.5023438092513
517.4977344833225
517.4931257047648
517.4885174737598
517.4839097904888
517.479302655133
517.4746960678732
517.4700900288902
517.4654845383649
517.4608795964779
517.45627520341
517.4516713593417
517.4470680644537
517.4424653189263
517.4378631229403
517.4332614766755
517.428660380312
517.424059834029
517.4194598380064
517.4148603924237
517.41026149746
517.4056631532945
517.4010653601064
517.3964681180747
517.3918714273785
517.3872752881967
517.3826797007081
517.378084665091
517.3734901815236
517.3688962501839
517.3643028712494
517.3597100448975
517.3551177713058
517.3505260506519
517.3459348831133
517.3413442688671
517.3367542080906
517.3321647009608
517.3275757476544
517.322987348348
517.3183995032183
517.313812212442
517.309225476196
517.3046392946572
517.3000536680025
517.2954685964083
517.2908840800507
517.2863001191055
517.2817167137483
517.2771338641543
517.2725515704984
517.2679698329551
517.2633886516988
517.2588080269039
517.2542279587448
517.2496484473955
517.24506949303
517.2404910958218
517.2359132559446
517.2313359735721
517.2267592488776
517.2221830820346
517.2176074732164
517.2130324225965
517.2084579303483
517.2038839966452
517.1993106216604
517.1947378055671
517.1901655485384
517.1855938507471
517.1810227123659
517.1764521335678
517.1718821145251
517.1673126554107
517.1627437563969
517.1581754176565
517.1536076393619
517.1490404216858
517.1444737648002
517.1399076688773
517.1353421340892
517.1307771606081
517.1262127486058
517.1216488982542
517.1170856097252
517.1125228831903
517.1079607188209
517.1033991167884
517.0988380772643
517.09427760042
517.0897176864268
517.0851583354553
517.0805995476766
517.0760413232614
517.0714836623803
517.0669265652037
517.0623700319026
517.0578140626473
517.0532586576084
517.0487038169566
517.0441495408628
517.0395958294972
517.0350426830299
517.0304901016308
517.0259380854696
517.0213866347159
517.0168357495389
517.0122854301081
517.0077356765925
517.0031864891613
516.9986378679836
516.994089813228
516.9895423250636
516.9849954036589
516.9804490491821
516.9759032618009
516.971358041683
516.966813388996
516.9622693039079
516.9577257865864
516.9531828371995
516.9486404559151
516.9440986429009
516.9395573983248
516.9350167223541
516.930476615156
516.9259370768972
516.9213981077447
516.9168597078655
516.9123218774263
516.9077846165939
516.9032479255349
516.8987118044157
516.8941762534029
516.8896412726625
516.8851068623609
516.880573022664
516.8760397537377
516.8715070557481
516.8669749288612
516.8624433732431
516.8579123890596
516.8533819764767
516.8488521356606
516.8443228667774
516.8397941699928
516.8352660454733
516.830738493385
516.8262115138938
516.821685107166
516.817159273368
516.8126340126661
516.8081093252264
516.8035852112149
516.7990616707976
516.7945387041403
516.7900163114087
516.7854944927682
516.7809732483832
516.7764525784186
516.7719324830388
516.7674129624085
516.762894016692
516.7583756460541
516.7538578506593
516.7493406306722
516.7448239862575
516.7403079175798
516.7357924248037
516.7312775080937
516.7267631676142
516.7222494035294
516.717736216004
516.7132236052026
516.7087115712897
516.7042001144295
516.6996892347867
516.6951789325259
516.6906692078113
516.6861600608069
516.6816514916769
516.6771435005863
516.6726360876997
516.6681292531817
516.6636229971972
516.6591173199107
516.6546122214869
516.6501077020902
516.6456037618849
516.6411004010353
516.636597619705
516.6320954180577
516.6275937962572
516.6230927544672
516.6185922928515
516.614092411574
516.6095931107983
516.6050943906881
516.600596251407
516.5960986931178
516.5916017159835
516.5871053201669
516.5826095058311
516.5781142731395
516.5736196222553
516.5691255533417
516.5646320665618
516.5601391620786
516.5556468400551
516.5511551006545
516.5466639440393
516.5421733703726
516.5376833798169
516.5331939725353
516.5287051486906
516.5242169084457
516.5197292519634
516.5152421794065
516.5107556909378
516.50626978672
516.5017844669161
516.4972997316885
516.4928155811996
516.4883320156115
516.4838490350861
516.4793666397853
516.474884829871
516.4704036055051
516.4659229668497
516.4614429140669
516.4569634473188
516.4524845667676
516.4480062725748
516.4435285649018
516.4390514439098
516.4345749097598
516.4300989626132
516.4256236026307
516.4211488299728
516.4166746448001
516.4122010472726
516.4077280375506
516.4032556157946
516.3987837821652
516.3943125368227
516.3898418799273
516.3853718116396
516.3809023321202
516.3764334415297
516.3719651400289
516.3674974277786
516.3630303049396
516.3585637716725
516.3540978281382
516.3496324744971
516.34516771091
516.3407035375379
516.3362399545423
516.3317769620845
516.3273145603263
516.3228527494294
516.3183915295562
516.3139309008685
516.3094708635282
516.3050114176964
516.3005525635343
516.2960943012037
516.291636630866
516.2871795526829
516.2827230668155
516.278267173425
516.2738118726721
516.2693571647175
516.264903049722
516.2604495278466
516.2559965992524
516.2515442641001
516.2470925225504
516.242641374764
516.2381908209023
516.2337408611264
516.2292914955975
516.2248427244764
516.2203945479238
516.2159469661007
516.211499979168
516.2070535872869
516.2026077906181
516.1981625893228
516.1937179835617
516.1892739734955
516.1848305592845
516.1803877410888
516.1759455190687
516.1715038933845
516.1670628641965
516.1626224316648
516.1581825959496
516.1537433572106
516.1493047156072
516.1448666712982
516.1404292244425
516.1359923751985
516.1315561237246
516.1271204701794
516.1226854147213
516.1182509575084
516.1138170986989
516.109383838451
516.104951176923
516.1005191142732
516.0960876506596
516.0916567862402
516.0872265211725
516.0827968556142
516.0783677897231
516.0739393236566
516.069511457572
516.0650841916259
516.0606575259745
516.0562314607738
516.0518059961795
516.0473811323476
516.0429568694339
516.0385332075938
516.0341101469829
516.0296876877566
516.0252658300698
516.0208445740774
516.0164239199343
516.0120038677957
516.0075844178172
516.0031655701547
515.9987473249643
515.9943296824018
515.9899126426234
515.9854962057849
515.9810803720421
515.9766651415506
515.9722505144656
515.9678364909429
515.963423071138
515.9590102552062
515.9545980433032
515.9501864355847
515.9457754322058
515.9413650333219
515.9369552390878
515.9325460496583
515.9281374651883
515.9237294858327
515.9193221117463
515.9149153430836
515.9105091799989
515.9061036226466
515.901698671181
515.897294325756
515.892890586526
515.8884874536453
515.884084927268
515.8796830075481
515.8752816946397
515.8708809886967
515.8664808898733
515.8620813983235
515.8576825142014
515.8532842376609
515.8488865688554
515.8444895079384
515.8400930550634
515.835697210384
515.8313019740532
515.8269073462244
515.8225133270508
515.8181199166858
515.8137271152824
515.809334922994
515.8049433399734
515.8005523663732
515.7961620023453
515.7917722480419
515.7873831036144
515.7829945692146
515.778606644994
515.7742193311047
515.7698326276983
515.7654465349261
515.7610610529397
515.7566761818904
515.7522919219301
515.7479082732103
515.7435252358829
515.7391428100999
515.7347609960135
515.730379793776
515.7259992035398
515.721619225457
515.7172398596796
515.71286110636
515.7084829656507
515.7041054377036
515.6997285226711
515.6953522207056
515.6909765319589
515.6866014565825
515.6822269947276
515.6778531465451
515.6734799121863
515.6691072918026
515.6647352855456
515.6603638935668
515.6559931160176
515.6516229530497
515.6472534048149
515.6428844714652
515.6385161531524
515.6341484500282
515.6297813622442
515.6254148899519
515.6210490333025
515.6166837924469
515.6123191675362
515.6079551587212
515.6035917661528
515.599228989982
515.5948668303596
515.5905052874367
515.5861443613645
515.5817840522942
515.5774243603774
515.5730652857661
515.5687068286121
515.5643489890673
515.5599917672836
515.5556351634128
515.5512791776065
515.5469238100162
515.5425690607937
515.5382149300905
515.5338614180583
515.5295085248489
515.5251562506138
515.5208045955047
515.5164535596733
515.512103143271
515.507753346449
515.5034041693585
515.4990556121505
515.4947076749755
515.4903603579838
515.486013661326
515.4816675851524
515.4773221296133
515.4729772948587
515.4686330810388
515.4642894883044
515.4599465168066
515.4556041666964
515.4512624381251
515.4469213312437
515.4425808462034
515.4382409831557
515.4339017422514
515.429563123642
515.4252251274787
515.4208877539128
515.4165510030956
515.4122148751786
515.4078793703133
515.4035444886514
515.3992102303449
515.3948765955455
515.3905435844043
515.3862111970724
515.3818794337009
515.3775482944412
515.3732177794451
515.3688878888642
515.36455862285
515.3602299815544
515.355901965129
515.3515745737251
515.3472478074942
515.3429216665878
515.3385961511575
515.334271261355
515.3299469973323
515.3256233592414
515.3213003472339
515.3169779614615
515.3126562020758
515.3083350692283
515.3040145630704
515.2996946837535
515.2953754314284
515.2910568062458
515.286738808357
515.2824214379131
515.278104695065
515.2737885799639
515.2694730927607
515.2651582336067
515.2608440026537
515.2565304000528
515.2522174259551
515.2479050805115
515.2435933638732
515.2392822761914
515.2349718176175
515.2306619883026
515.2263527883971
515.2220442180516
515.2177362774165
515.2134289666425
515.20912228588
515.2048162352795
515.2005108149916
515.1962060251668
515.1919018659554
515.1875983375072
515.1832954399721
515.1789931735001
515.1746915382415
515.1703905343467
515.1660901619663
515.1617904212509
515.1574913123505
515.1531928354153
515.1488949905953
515.1445977780405
515.1403011979013
515.1360052503277
515.1317099354693
515.1274152534758
515.1231212044971
515.1188277886832
515.1145350061839
515.1102428571488
515.1059513417273
515.1016604600687
515.0973702123221
515.0930805986364
515.088791619161
515.0845032740446
515.0802155634357
515.0759284874827
515.0716420463337
515.0673562401377
515.0630710690431
515.0587865331983
515.0545026327515
515.0502193678511
515.0459367386458
515.0416547452843
515.0373733879156
515.0330926666885
515.0288125817516
515.0245331332538
515.0202543213444
515.0159761461724
515.0116986078866
515.0074217066355
515.0031454425676
514.9988698158317
514.994594826576
514.9903204749493
514.9860467611005
514.9817736851788
514.9775012473336
514.9732294477143
514.9689582864704
514.9646877637516
514.9604178797075
514.9561486344879
514.951880028243
514.9476120611226
514.9433447332768
514.9390780448554
514.9348119960083
514.9305465868857
514.9262818176377
514.9220176884147
514.9177541993673
514.913491350646
514.9092291424016
514.9049675747848
514.9007066479463
514.8964463620367
514.8921867172068
514.8879277136072
514.8836693513887
514.8794116307025
514.8751545516999
514.870898114532
514.86664231935
514.8623871663052
514.8581326555487
514.8538787872318
514.8496255615056
514.8453729785216
514.8411210384307
514.836869741384
514.8326190875329
514.8283690770282
514.8241197100211
514.8198709866625
514.8156229071034
514.8113754714944
514.8071286799867
514.8028825327311
514.7986370298789
514.7943921715811
514.7901479579883
514.7859043892514
514.7816614655209
514.777419186947
514.7731775536801
514.7689365658701
514.7646962236673
514.7604565272214
514.7562174766825
514.7519790722007
514.747741313926
514.7435042020089
514.7392677365998
514.7350319178491
514.7307967459075
514.7265622209253
514.7223283430538
514.7180951124443
514.7138625292483
514.709630593618
514.7053993057062
514.7011686656657
514.6969386736497
514.6927093298115
514.6884806343043
514.6842525872813
514.6800251888961
514.6757984393024
514.6715723386538
514.6673468871041
514.6631220848077
514.6588979319191
514.6546744285932
514.6504515749849
514.646229371249
514.6420078175407
514.6377869140157
514.6335666608296
514.6293470581385
514.6251281060983
514.6209098048649
514.6166921545947
514.6124751554436
514.6082588075675
514.6040431111225
514.5998280662649
514.5956136731514
514.5913999319388
514.587186842784
514.5829744058448
514.5787626212783
514.574551489242
514.570341009893
514.5661311833884
514.5619220098853
514.5577134895412
514.5535056225141
514.549298408962
514.5450918490436
514.5408859429173
514.5366806907417
514.5324760926754
514.5282721488769
514.5240688595044
514.5198662247161
514.5156642446703
514.5114629195249
514.5072622494375
514.5030622345663
514.498862875069
514.4946641711036
514.4904661228283
514.4862687304006
514.4820719939779
514.477875913717
514.4736804897749
514.4694857223088
514.4652916114759
514.4610981574332
514.4569053603376
514.4527132203456
514.4485217376133
514.444330912297
514.4401407445524
514.4359512345353
514.4317623824012
514.4275741883058
514.4233866524045
514.4191997748522
514.4150135558037
514.4108279954133
514.4066430938352
514.4024588512233
514.3982752677313
514.3940923435126
514.3899100787206
514.3857284735087
514.3815475280302
514.377367242438
514.3731876168853
514.369008651525
514.3648303465098
514.3606527019928
514.356475718126
514.3522993950616
514.3481237329514
514.3439487319478
514.3397743922027
514.3356007138681
514.3314276970954
514.3272553420355
514.3230836488395
514.3189126176579
514.3147422486408
514.3105725419379
514.3064034976986
514.302235116072
514.2980673972071
514.2939003412531
514.2897339483594
514.2855682186749
514.2814031523484
514.2772387495282
514.2730750103625
514.2689119349992
514.2647495235864
514.260587776272
514.2564266932039
514.2522662745299
514.2481065203973
514.2439474309534
514.2397890063452
514.2356312467192
514.2314741522217
514.2273177229991
514.2231619591972
514.219006860961
514.2148524284354
514.2106986617649
514.2065455610945
514.2023931265688
514.1982413583327
514.1940902565301
514.1899398213053
514.1857900528024
514.1816409511654
514.1774925165381
514.1733447490645
514.1691976488886
514.1650512161544
514.1609054510062
514.1567603535879
514.1526159240433
514.1484721625164
514.1443290691512
514.1401866440918
514.1360448874824
514.1319037994666
514.127763380188
514.1236236297899
514.1194845484159
514.1153461362095
514.1112083933139
514.1070713198716
514.102934916025
514.098799181916
514.0946641176864
514.090529723478
514.086395999432
514.0822629456899
514.0781305623929
514.0739988496824
514.0698678076996
514.065737436585
514.0616077364797
514.0574787075246
514.0533503498606
514.0492226636278
514.0450956489661
514.0409693060154
514.0368436349157
514.0327186358071
514.0285943088296
514.0244706541233
514.0203476718281
514.0162253620834
514.0121037250291
514.0079827608041
514.0038624695477
513.999742851399
513.9956239064969
513.99150563498
513.9873880369863
513.9832711126543
513.9791548621218
513.9750392855266
513.970924383006
513.9668101546976
513.962696600738
513.9585837212643
513.9544715164128
513.95035998632
513.9462491311223
513.9421389509558
513.9380294459573
513.9339206162639
513.9298124620121
513.925704983339
513.9215981803812
513.9174920532759
513.9133866021597
513.9092818271694
513.9051777284418
513.9010743061134
513.8969715603204
513.8928694911987
513.8887680988843
513.8846673835134
513.8805673452222
513.8764679841469
513.8723693004234
513.8682712941878
513.8641739655762
513.8600773147251
513.8559813417709
513.8518860468497
513.8477914300978
513.8436974916516
513.8396042316471
513.8355116502199
513.8314197475057
513.8273285236397
513.8232379787568
513.8191481129919
513.8150589264802
513.810970419357
513.8068825917575
513.802795443817
513.7987089756706
513.7946231874529
513.790538079298
513.7864536513397
513.7823699037116
513.7782868365474
513.7742044499806
513.7701227441445
513.7660417191722
513.7619613751966
513.7578817123502
513.7538027307659
513.7497244305765
513.7456468119154
513.7415698749154
513.7374936197092
513.7334180464294
513.7293431552083
513.7252689461778
513.7211954194694
513.7171225752144
513.713050413544
513.708978934589
513.7049081384802
513.7008380253479
513.6967685953222
513.6926998485327
513.6886317851098
513.6845644051836
513.680497708884
513.676431696341
513.6723663676838
513.6683017230422
513.6642377625457
513.6601744863236
513.6561118945052
513.6520499872194
513.647988764595
513.643928226761
513.6398683738463
513.6358092059796
513.6317507232897
513.6276929259046
513.6236358139525
513.6195793875612
513.6155236468584
513.6114685919719
513.6074142230294
513.6033605401586
513.5993075434873
513.5952552331431
513.591203609254
513.5871526719476
513.583102421352
513.5790528575952
513.5750039808053
513.5709557911099
513.5669082886367
513.5628614735136
513.5588153458688
513.5547699058303
513.5507251535263
513.5466810890845
513.5426377126327
513.5385950242988
513.5345530242106
513.5305117124957
513.5264710892817
513.5224311546962
513.5183919088666
513.5143533519212
513.5103154839879
513.5062783051948
513.5022418156699
513.4982060155411
513.4941709049366
513.4901364839847
513.486102752814
513.4820697115528
513.478037360329
513.4740056992708
513.4699747285061
513.4659444481628
513.461914858368
513.4578859592492
513.4538577509337
513.4498302335486
513.4458034072208
513.4417772720768
513.437751828243
513.4337270758455
513.42970301501
513.425679645862
513.4216569685271
513.4176349831306
513.4136136897974
513.4095930886525
513.4055731798206
513.4015539634271
513.3975354395974
513.393517608457
513.3895004701318
513.3854840247471
513.3814682724286
513.3774532133015
513.3734388474908
513.3694251751216
513.365412196319
513.3613999112082
513.3573883199145
513.353377422564
513.3493672192825
513.3453577101963
513.3413488954312
513.3373407751131
513.3333333493678
513.3293266183204
513.325320582096
513.3213152408199
513.3173105946174
513.3133066436138
513.3093033879339
513.3053008277028
513.3012989630455
513.2972977940871
513.2932973209525
513.289297543767
513.2852984626555
513.2813000777431
513.2773023891551
513.2733053970168
513.2693091014534
513.2653135025897
513.2613186005505
513.2573243954604
513.2533308874443
513.2493380766272
513.2453459631337
513.2413545470885
513.2373638286161
513.2333738078413
513.2293844848888
513.2253958598834
513.22140793295
513.2174207042134
513.2134341737982
513.2094483418288
513.2054632084293
513.2014787737238
513.1974950378363
513.1935120008906
513.1895296630104
513.1855480243197
513.1815670849427
513.177586845003
513.1736073046244
513.16962846393
513.1656503230435
513.161672882088
513.1576961411876
513.1537201004661
513.1497447600481
513.1457701200578
513.14179618062
513.1378229418589
513.1338504038989
513.1298785668647
513.1259074308808
513.1219369960717
513.1179672625616
513.1139982304747
513.1100298999351
513.1060622710664
513.1020953439926
513.0981291188372
513.0941635957237
513.090198774776
513.0862346561179
513.082271239873
513.078308526165
513.0743465151176
513.0703852068544
513.0664246014993
513.0624646991756
513.0585055000064
513.0545470041146
513.0505892116233
513.0466321226558
513.0426757373353
513.0387200557856
513.0347650781299
513.0308108044916
513.0268572349934
513.0229043697581
513.0189522089084
513.0150007525675
513.0110500008581
513.0070999539029
513.0031506118247
512.9992019747464
512.9952540427902
512.9913068160782
512.9873602947326
512.9834144788753
512.9794693686282
512.9755249641133
512.9715812654521
512.9676382727658
512.9636959861758
512.9597544058028
512.9558135317674
512.9518733641904
512.9479339031926
512.9439951488947
512.9400571014172
512.9361197608806
512.9321831274054
512.9282472011122
512.9243119821216
512.9203774705546
512.9164436665322
512.9125105701752
512.9085781816042
512.9046465009402
512.9007155283042
512.8967852638174
512.8928557076009
512.888926859776
512.8849987204636
512.8810712897847
512.8771445678602
512.8732185548114
512.8692932507596
512.8653686558258
512.861444770131
512.8575215937957
512.8535991269401
512.8496773696842
512.8457563221476
512.8418359844503
512.8379163567118
512.8339974390518
512.8300792315894
512.8261617344436
512.822244947734
512.8183288715799
512.8144135061005
512.8104988514157
512.8065849076448
512.8026716749072
512.7987591533218
512.7948473430084
512.7909362440863
512.7870258566749
512.7831161808932
512.7792072168605
512.7752989646959
512.7713914245186
512.7674845964478
512.7635784806029
512.7596730771023
512.7557683860649
512.7518644076091
512.7479611418534
512.7440585889161
512.7401567489156
512.7362556219701
512.7323552081976
512.7284555077159
512.7245565206428
512.7206582470961
512.7167606871941
512.7128638410544
512.7089677087948
512.7050722905332
512.7011775863876
512.6972835964763
512.6933903209173
512.6894977598289
512.6856059133296
512.6817147815376
512.6778243645714
512.6739346625492
512.6700456755894
512.6661574038104
512.6622698473301
512.6583830062667
512.6544968807383
512.6506114708628
512.6467267767583
512.6428427985428
512.6389595363345
512.6350769902516
512.6311951604122
512.6273140469342
512.6234336499355
512.6195539695335
512.6156750058454
512.6117967589881
512.6079192290784
512.6040424162333
512.6001663205692
512.5962909422029
512.5924162812508
512.5885423378296
512.5846691120556
512.5807966040453
512.5769248139148
512.5730537417809
512.5691833877601
512.565313751969
512.561444834524
512.5575766355408
512.5537091551354
512.5498423934231
512.5459763505193
512.5421110265394
512.538246421599
512.5343825358133
512.5305193692976
512.5266569221668
512.5227951945357
512.518934186519
512.5150738982319
512.5112143297896
512.5073554813074
512.5034973529004
512.4996399446835
512.4957832567719
512.4919272892804
512.4880720423238
512.4842175160169
512.4803637104743
512.4765106258109
512.4726582621416
512.4688066195816
512.4649556982457
512.4611054982491
512.4572560197072
512.4534072627351
512.4495592274483
512.4457119139616
512.4418653223901
512.4380194528486
512.4341743054523
512.4303298803162
512.4264861775554
512.4226431972851
512.4188009396204
512.4149594046761
512.4111185925668
512.4072785034072
512.4034391373117
512.399600494395
512.3957625747715
512.3919253785556
512.3880889058613
512.3842531568031
512.3804181314957
512.3765838300538
512.372750252592
512.3689173992249
512.365085270067
512.3612538652327
512.3574231848364
512.3535932289925
512.3497639978151
512.3459354914183
512.3421077099166
512.3382806534245
512.3344543220568
512.3306287159286
512.3268038351549
512.3229796798506
512.3191562501305
512.3153335461094
512.3115115679024
512.3076903156249
512.3038697893927
512.3000499893218
512.2962309155276
512.2924125681255
512.2885949472303
512.284778052957
512.2809618854209
512.2771464447372
512.2733317310214
512.269517744389
512.2657044849556
512.2618919528362
512.2580801481457
512.2542690709987
512.2504587215097
512.2466490997932
512.2428402059637
512.2390320401358
512.235224602424
512.2314178929424
512.2276119118059
512.2238066591286
512.2200021350251
512.2161983396094
512.2123952729956
512.2085929352983
512.2047913266318
512.2009904471109
512.1971902968502
512.1933908759644
512.1895921845684
512.1857942227767
512.1819969907041
512.1782004884645
512.1744047161723
512.1706096739412
512.1668153618851
512.1630217801181
512.1592289287543
512.1554368079074
512.1516454176916
512.1478547582204
512.1440648296074
512.1402756319657
512.1364871654083
512.1326994300483
512.1289124259987
512.1251261533722
512.1213406122819
512.1175558028407
512.1137717251617
512.1099883793578
512.1062057655421
512.1024238838276
512.0986427343274
512.0948623171552
512.091082632424
512.0873036802471
512.0835254607379
512.0797479740091
512.0759712201742
512.0721951993465
512.0684199116396
512.0646453571668
512.0608715360414
512.0570984483765
512.0533260942849
512.04955447388
512.045783587275
512.0420134345833
512.0382440159184
512.0344753313935
512.0307073811219
512.0269401652164
512.0231736837894
512.0194079369534
512.0156429248206
512.0118786475028
512.0081151051121
512.00435229776
512.0005902255579
511.9968288886172
511.9930682870489
511.98930842096377
511.98554929047225
511.98179089568487
511.9780332367121
511.97427631366406
511.9705201266503
511.9667646757797
511.9630099611612
511.9592559829035
511.9555027411153
511.9517502359048
511.94799846738
511.94424743564866
511.9404971408179
511.9367475829946
511.93299876228537
511.9292506787966
511.9255033326348
511.921756723906
511.9180108527163
511.91426571917134
511.91052132337666
511.90677766543774
511.9030347454599
511.8992925635481
511.895551119807
511.89181041434097
511.88807044725434
511.884331218651
511.8805927286345
511.87685497730797
511.8731179647742
511.8693816911356
511.8656461564939
511.86191136095056
511.8581773046068
511.8544439875635
511.8507114099215
511.8469795717814
511.84324847324353
511.8395181144082
511.83578849537514
511.8320596162438
511.82833147711324
511.8246040780822
511.8208774192491
511.81715150071193
511.8134263225685
511.8097018849163
511.8059781878527
511.802255231475
511.79853301588
511.79481154116445
511.79109080742467
511.78737081475685
511.7836515632572
511.77993305302164
511.77621528414613
511.7724982567262
511.7687819708573
511.76506642663446
511.7613516241528
511.7576375635068
511.75392424479094
511.75021166809927
511.7464998335257
511.7427887411635
511.73907839110586
511.735368783446
511.7316599182767
511.7279517956905
511.7242444157797
511.7205377786364
511.7168318843527
511.71312673302066
511.70942232473215
511.7057186595788
511.702015737652
511.69831355904273
511.6946121238419
511.6909114321403
511.6872114840286
511.68351227959704
511.6798138189357
511.6761161021342
511.6724191292816
511.66872290046683
511.6650274157786
511.6613326753055
511.65763867913586
511.65394542735737
511.6502529200578
511.64656115732475
511.6428701392455
511.63917986590707
511.6354903373964
511.6318015538005
511.62811351520656
511.62442622170136
511.62073967337176
511.6170538703042
511.613368812585
511.60968450030043
511.6060009335364
511.6023181123786
511.5986360369126
511.59495470722356
511.5912741233966
511.5875942855165
511.58391519366785
511.580236847935
511.5765592484021
511.572882395153
511.5692062882714
511.56553092784054
511.5618563139434
511.5581824466623
511.5545093260795
511.5508369522769
511.5471653253361
511.5434944453385
511.53982431236534
511.53615492649726
511.5324862878148
511.5288183963979
511.5251512523265
511.5214848556801
511.5178192065383
511.5141543049805
511.5104901510857
511.50682674493316
511.50316408660217
511.49950217617186
511.49584101372113
511.4921805993289
511.488520933074
511.4848620150352
511.48120384529113
511.4775464239202
511.4738897510007
511.4702338266105
511.4665786508277
511.46292422372983
511.4592705453939
511.4556176158966
511.45196543531426
511.44831400372334
511.4446633212
511.44101338782013
511.43736420365974
511.4337157687945
511.4300680832997
511.4264211472504
511.4227749607213
511.4191295237873
511.41548483652275
511.41184089900173
511.40819771129816
511.4045552734859
511.4009135856387
511.39727264783016
511.39363246013374
511.3899930226229
511.3863543353708
511.3827163984507
511.3790792119356
511.3754427758985
511.37180709041206
511.3681721555489
511.3645379713813
511.36090453798136
511.3572718554211
511.35363992377245
511.35000874310697
511.3463783134963
511.3427486350121
511.3391197077257
511.33549153170827
511.3318641070306
511.3282374337633
511.32461151197697
511.3209863417418
511.3173619231278
511.31373825620483
511.31011534104266
511.30649317771133
511.30287176628065
511.2992511068204
511.2956311994004
511.29201204409026
511.2883936409595
511.2847759900775
511.28115909151336
511.2775429453362
511.2739275516152
511.27031291041897
511.26669902181595
511.26308588587415
511.2594735026613
511.2558618722452
511.2522509946933
511.24864087007325
511.24503149845225
511.2414228798974
511.2378150144756
511.2342079022536
511.2306015432979
511.2269959376746
511.2233910854494
511.21978698668784
511.2161836414549
511.2125810498154
511.20897921183393
511.2053781275746
511.2017777971008
511.1981782204758
511.1945793977626
511.1909813290239
511.1873840143222
511.1837874537199
511.18019164727923
511.1765965950623
511.1730022971311
511.1694087535474
511.1658159643724
511.1622239296672
511.15863264949246
511.1550421239091
511.15145235297757
511.1478633367582
511.1442750753107
511.1406875686947
511.13710081696956
511.13351482019436
511.129929578428
511.12634509172915
511.12276136015623
511.11917838376746
511.1155961626206
511.1120146967734
511.10843398628356
511.1048540312087
511.101274831606
511.09769638753266
511.09411869904545
511.0905417662012
511.0869655890564
511.0833901676673
511.07981550209036
511.07624159238173
511.07266843859713
511.0690960407925
511.0655243990235
511.06195351334566
511.05838338381443
511.0548140104851
511.0512453934124
511.04767753265094
511.0441104282553
511.0405440802796
511.03697848877766
511.03341365380345
511.0298495754106
511.02628625365253
511.02272368858246
511.01916188025336
511.0156008287182
511.0120405340298
511.00848099624056
511.0049222154031
511.0013641915697
510.99780692479237
510.994250415123
510.99069466261346
510.98713966731555
510.9835854292811
510.98003194856176
510.9764792252089
510.9729272592739
510.96937605080814
510.96582559986257
510.9622759064881
510.9587269707355
510.9551787926554
510.95163137229827
510.9480847097144
510.94453880495405
510.9409936580672
510.93744926910347
510.9339056381124
510.9303627651433
510.9268206502453
510.9232792934673
510.91973869485844
510.91619885446755
510.9126597723433
510.90912144853417
510.9055838830883
510.9020470760537
510.8985110274781
510.8949757374088
510.8914412058929
510.8879074329774
510.88437441870917
510.88084216313484
510.877310666301
510.87377992825384
510.87024994903925
510.86672072870317
510.8631922672911
510.859664564848
510.85613762141895
510.8526114370487
510.8490860117819
510.845561345663
510.8420374387364
510.83851429104595
510.8349919026351
510.8314702735471
510.8279494038251
510.82442929351225
510.82090994265184
510.8173913512868
510.8138735194601
510.81035644721453
510.80684013459256
510.80332458163673
510.7998097883893
510.7962957548922
510.79278248118715
510.7892699673158
510.7857582133198
510.78224721924073
510.77873698511974
510.77522751099775
510.77171879691593
510.768210842915
510.76470364903537
510.76119721531757
510.7576915418018
510.75418662852815
510.75068247553634
510.7471790828657
510.7436764505554
510.7401745786441
510.73667346717014
510.73317311617177
510.72967352568674
510.72617469575255
510.7226766264065
510.71917931768564
510.7156827696266
510.7121869822655
510.7086919556383
510.7051976897807
510.7017041847279
510.69821144051514
510.69471945717726
510.6912282347488
510.6877377732641
510.6842480727572
510.68075913326186
510.67727095481143
510.67378353743936
510.6702968811786
510.66681098606216
510.66332585212274
510.65984147939287
510.65635786790506
510.6528750176914
510.64939292878387
510.6459116012144
510.6424310350143
510.63895123021473
510.63547218684664
510.63199390494094
510.6285163845283
510.62503962563903
510.6215636283031
510.6180883925505
510.61461391841124
510.61114020591515
510.607667255092
510.6041950659709
510.6007236385807
510.59725297295006
510.5937830691074
510.59031392708096
510.58684554689864
510.5833779285882
510.5799110721774
510.57644497769354
510.5729796451636
510.5695150746145
510.5660512660728
510.5625882195649
510.55912593511687
510.55566441275494
510.5522036525048
510.54874365439184
510.54528441844184
510.54182594468
510.5383682331311
510.5349112838197
510.5314550967702
510.52799967200656
510.524545009553
510.5210911094333
510.5176379716712
510.5141855962903
510.510733983314
510.5072831327658
510.503833044669
510.50038371904714
510.4969351559233
510.4934873553208
510.49004031726224
510.4865940417702
510.483148528867
510.47970377857484
510.4762597909156
510.4728165659109
510.469374103582
510.46593240395
510.4624914670352
510.45905129285836
510.4556118814402
510.45217323280133
510.4487353469625
510.4452982239442
510.4418618637666
510.43842626644994
510.4349914320145
510.43155736048027
510.42812405186703
510.42469150619434
510.4212597234815
510.4178287037479
510.4143984470128
510.41096895329554
510.40754022261547
510.4041122549917
510.40068505044303
510.3972586089882
510.3938329306458
510.390408015434
510.3869838633708
510.3835604744737
510.38013784876
510.37671598624695
510.3732948869516
510.36987455089104
510.3664549780823
510.3630361685422
510.3596181222871
510.3562008393334
510.3527843196972
510.34936856339493
510.3459535704425
510.3425393408555
510.33912587464977
510.3357131718409
510.33230123244437
510.3288900564754
510.32547964394905
510.3220699948798
510.3186611092823
510.315252987171
510.3118456285605
510.3084390334649
510.305033201898
510.3016281338736
510.29822382940495
510.2948202885053
510.29141751118766
510.2880154974649
510.28461424734985
510.28121376085494
510.27781403799247
510.2744150787745
510.27101688321284
510.2676194513193
510.26422278310577
510.26082687858377
510.2574317377647
510.2540373606597
510.25064374727947
510.2472508976342
510.24385881173373
510.24046748958756
510.237076931205
510.233687136595
510.23029810576634
510.2269098387277
510.2235223354877
510.2201355960548
510.2167496204369
510.2133644086417
510.20997996067683
510.2065962765497
510.2032133562676
510.19983119983783
510.1964498072672
510.19306917856227
510.1896893137297
510.186310212776
510.1829318757076
510.17955430253085
510.1761774932519
510.17280144787685
510.1694261664114
510.1660516488613
510.16267789523215
510.15930490552944
510.1559326797586
510.1525612179249
510.1491905200336
510.1458205860896
510.14245141609774
510.13908301006256
510.1357153679884
510.13234848987906
510.12898237573825
510.12561702556934
510.12225243937553
510.11888861716
510.1155255589257
510.1121632646756
510.1088017344126
510.1054409681393
510.1020809658579
510.09872172757025
510.0953632532779
510.0920055429825
510.0886485966852
510.085292414387
510.081936996089
510.07858234179173
510.0752284514957
510.0718753252014
510.06852296290924
510.0651713646197
510.06182053033297
510.0584704600493
510.0551211537687
510.0517726114912
510.04842483321625
510.045077818943
510.04173156867057
510.038386082398
510.0350413601244
510.0316974018489
510.0283542075707
510.0250117772888
510.02167011100175
510.018329208708
510.0149890704057
510.01164969609306
510.008311085768
510.0049732394283
510.00163615707163
509.99829983869597
509.9949642842993
509.99162949387926
509.98829546743366
509.98496220495997
509.9816297064557
509.9782979719181
509.9749670013442
509.9716367947309
509.9683073520747
509.9649786733718
509.9616507586178
509.9583236078082
509.95499722093825
509.9516715980029
509.948346738997
509.94502264391497
509.94169931275144
509.93837674550025
509.93505494215503
509.9317339027092
509.9284136271557
509.92509411548747
509.92177536769725
509.91845738377754
509.9151401637208
509.9118237075194
509.908508015165
509.9051930866491
509.901878921963
509.8985655210978
509.8952528840447
509.89194101079477
509.88862990133896
509.88531955566793
509.88200997377214
509.8787011556418
509.87539310126715
509.8720858106384
509.86877928374554
509.8654735205786
509.8621685211273
509.85886428538095
509.8555608133287
509.85225810495933
509.84895616026154
509.84565497922347
509.8423545618331
509.8390549080781
509.83575601794576
509.8324578914229
509.82916052849635
509.82586392915266
509.8225680933782
509.8192730211591
509.8159787124815
509.81268516733155
509.8093923856951
509.80610036755786
509.80280911290527
509.79951862172254
509.79622889399445
509.79293992970554
509.7896517288401
509.78636429138203
509.7830776173147
509.7797917066215
509.7765065592854
509.7732221752891
509.7699385546151
509.7666556972457
509.7633736031629
509.7600922723485
509.7568117047841
509.75353190045087
509.75025285932986
509.746974581402
509.743697066648
509.7404203150485
509.73714432658414
509.7338691012354
509.7305946389823
509.7273209398044
509.7240480036811
509.7207758305923
509.71750442051723
509.714233773435
509.7109638893247
509.7076947681654
509.704426409936
509.70115881461504
509.697891982181
509.6946259126122
509.69136060588664
509.68809606198204
509.68483228087564
509.68156926254426
509.6783070069645
509.67504551411287
509.6717847839658
509.66852481649914
509.6652656116886
509.66200716951005
509.6587494899394
509.6554925729523
509.652236418524
509.6489810266295
509.6457263972437
509.6424725303417
509.6392194258982
509.635967083888
509.63271550428556
509.62946468706525
509.62621463220114
509.6229653396671
509.6197168094367
509.6164690414831
509.6132220357796
509.609975792299
509.6067303110143
509.6034855918982
509.60024163492346
509.5969984400625
509.5937560072879
509.590514336572
509.58727342788745
509.58403328120664
509.58079389650186
509.57755527374536
509.5743174129092
509.5710803139649
509.56784397688364
509.5646084016365
509.56137358819444
509.5581395365283
509.55490624660877
509.55167371840673
509.54844195189287
509.5452109470376
509.5419807038114
509.5387512221847
509.5355225021282
509.53229454361224
509.52906734660735
509.5258409110842
509.5226152370134
509.5193903243652
509.5161661731098
509.512942783217
509.5097201546565
509.50649828739813
509.5032771814116
509.50005683666643
509.49683725313196
509.49361843077725
509.49040036957115
509.4871830694825
509.48396653047973
509.4807507525312
509.47753573560533
509.47432147967027
509.4711079846942
509.46789525064526
509.4646832774914
509.4614720652004
509.45826161373986
509.4550519230771
509.4518429931792
509.4486348240131
509.4454274155456
509.4422207677434
509.4390148805729
509.4358097540006
509.43260538799257
509.4294017825147
509.4261989375326
509.4229968530118
509.41979552891746
509.4165949652146
509.4133951618679
509.410196118842
509.40699783610137
509.40380031361053
509.4006035513338
509.3974075492355
509.39421230727964
509.39101782543014
509.3878241036508
509.3846311419053
509.3814389401572
509.3782474983699
509.37505681650657
509.3718668945304
509.36867773240476
509.3654893300926
509.36230168755685
509.35911480476045
509.3559286816661
509.3527433182363
509.34955871443356
509.3463748702203
509.3431917855588
509.3400094604109
509.3368278947381
509.33364708850206
509.33046704166384
509.32728775418457
509.32410922602537
509.32093145714737
509.31775444751145
509.3145781970783
509.31140270580875
509.3082279736633
509.3050540006021
509.30188078658523
509.29870833157236
509.2955366355235
509.29236569839816
509.2891955201559
509.2860261007562
509.2828574401584
509.2796895383218
509.2765223952057
509.27335601076936
509.2701903849721
509.2670255177733
509.2638614091319
509.2606980590068
509.25753546735666
509.2543736341396
509.25121255931356
509.2480522428365
509.24489268466584
509.2417338847589
509.23857584307245
509.2354185595633
509.2322620341878
509.229106266902
509.22595125766236
509.22279700642514
509.2196435131467
509.21649077778363
509.21333880029226
509.2101875806287
509.2070371187491
509.2038874146093
509.2007384681648
509.19759027937096
509.1944428481828
509.1912961745551
509.18815025844253
509.1850050997999
509.18186069858154
509.1787170547417
509.1755741682347
509.1724320390148
509.1692906670361
509.1661500522524
509.16301019461764
509.15987109408536
509.1567327506092
509.15359516414253
509.1504583346383
509.1473222620492
509.14418694632775
509.14105238742616
509.13791858529646
509.13478553989046
509.1316532511595
509.1285217190547
509.12539094352735
509.12226092452863
509.11913166200964
509.1160031559215
509.1128754062148
509.1097484128403
509.1066221757486
509.10349669488994
509.10037197021404
509.09724800167044
509.0941247892089
509.0910023327791
509.0878806323311
509.08475968781465
509.08163949917946
509.0785200663753
509.07540138935167
509.0722834680581
509.06916630244393
509.0660498924584
509.0629342380506
509.0598193391696
509.05670519576427
509.0535918077834
509.05047917517606
509.04736729789136
509.04425617587856
509.04114580908674
509.0380361974645
509.0349273409605
509.0318192395231
509.02871189310065
509.02560530164135
509.02249946509335
509.0193943834048
509.01629005652364
509.0131864843978
509.010083666975
509.0069816042029
509.0038802960288
509.0007797423997
508.99767994326237
508.99458089856364
508.99148260825007
508.9883850722682
508.9852882905649
508.98219226308663
508.9790969897798
508.97600247059097
508.97290870546647
508.9698156943524
508.9667234371949
508.96363193394006
508.96054118453424
508.957451188924
508.95436194705565
508.95127345887556
508.9481857243303
508.9450987433662
508.9420125159294
508.9389270419655
508.9358423214202
508.9327583542391
508.92967514036775
508.9265926797515
508.923510972336
508.92043001806667
508.91734981688876
508.9142703687472
508.91119167358704
508.90811373135296
508.9050365419895
508.9019601054414
508.89888442165363
508.89580949057074
508.89273531213723
508.8896618862974
508.88658921299555
508.8835172921755
508.8804461237811
508.87737570775596
508.8743060440437
508.87123713258813
508.8681689733329
508.86510156622137
508.86203491119716
508.8589690082034
508.8559038571833
508.85283945808
508.84977581083615
508.8467129153945
508.8436507716975
508.84058937968723
508.8375287393054
508.83446885049386
508.83140971319415
508.8283513273474
508.82529369289443
508.822236809776
508.81918067793265
508.8161252973051
508.81307066783404
508.8100167894596
508.80696366212203
508.8039112857615
508.8008596603182
508.7978087857322
508.79475866194286
508.7917092888896
508.78866066651165
508.7856127947483
508.78256567353867
508.77951930282177
508.7764736825367
508.7734288126222
508.77038469301704
508.7673413236595
508.76429870448794
508.7612568354408
508.75821571645645
508.75517534747325
508.7521357284296
508.7490968592639
508.74605873991425
508.74302137031907
508.7399847504165
508.7369488801445
508.7339137594412
508.7308793882445
508.72784576649235
508.7248128941227
508.7217807710732
508.7187493972814
508.71571877268445
508.71268889721966
508.70965977082403
508.70663139343435
508.7036037649874
508.7005768854202
508.69755075467003
508.69452537267387
508.6915007393685
508.6884768546905
508.68545371857647
508.68243133096246
508.6794096917844
508.6763888009781
508.6733686584795
508.6703492642242
508.66733061814796
508.6643127201861
508.6612955702741
508.65827916834735
508.6552635143413
508.65224860819137
508.6492344498332
508.6462210392025
508.64320837623484
508.6401964608659
508.6371852930314
508.6341748726669
508.6311651997081
508.6281562740909
508.6251480957511
508.62214066462445
508.6191339806463
508.6161280437519
508.61312285387646
508.6101184109549
508.60711471492175
508.60411176571154
508.60110956325855
508.5981081074973
508.59510739836185
508.59210743578626
508.5891082197046
508.5861097500509
508.5831120267593
508.5801150497638
508.577118818998
508.57412333439527
508.5711285958888
508.56813460341175
508.5651413568968
508.5621488562766
508.55915710148395
508.55616609245146
508.55317582911186
508.5501863113981
508.5471975392428
508.54420951257873
508.54122223133857
508.5382356954552
508.53524990486164
508.53226485949097
508.5292805592766
508.52629700415184
508.52331419404993
508.52033212890376
508.51735080864626
508.5143702332101
508.51139040252804
508.5084113165325
508.5054329751555
508.5024553783293
508.4994785259863
508.49650241805887
508.49352705447916
508.49055243517944
508.48757856009195
508.4846054291489
508.48163304228285
508.4786613994262
508.4756905005114
508.4727203454712
508.4697509342383
508.4667822667453
508.46381434292505
508.46084716271014
508.45788072603307
508.4549150328263
508.4519500830223
508.4489858765536
508.4460224133526
508.44305969335176
508.4400977164836
508.43713648268033
508.434175991874
508.43121624399635
508.428257238979
508.4252989767534
508.42234145725126
508.4193846804043
508.4164286461445
508.4134733544041
508.41051880511543
508.4075649982109
508.40461193362273
508.4016596112832
508.39870803112433
508.3957571930779
508.39280709707566
508.3898577430492
508.38690913092967
508.3839612606479
508.3810141321345
508.3780677453202
508.3751221001356
508.37217719651164
508.36923303437914
508.366289613669
508.36334693431183
508.36040499623834
508.35746379937916
508.35452334366516
508.351583629027
508.34864465539533
508.3457064227006
508.3427689308734
508.3398321798446
508.3368961695452
508.3339608999057
508.33102637085665
508.32809258232817
508.3251595342505
508.322227226554
508.31929565916914
508.31636483202635
508.3134347450558
508.3105053981875
508.3075767913514
508.3046489244772
508.3017217974947
508.2987954103336
508.29586976292364
508.29294485519483
508.2900206870771
508.2870972585007
508.28417456939576
508.2812526196925
508.27833140932137
508.275410938213
508.272491206298
508.2695722135069
508.26665395976977
508.26373644501666
508.2608196691775
508.2579036321821
508.2549883339601
508.2520737744413
508.2491599535555
508.2462468712323
508.24333452740154
508.2404229219927
508.23751205493556
508.2346019261598
508.23169253559547
508.2287838831727
508.2258759688217
508.2229687924729
508.22006235405695
508.21715665350473
508.2142516907471
508.211347465715
508.20844397833923
508.2055412285507
508.2026392162801
508.1997379414578
508.1968374040142
508.19393760388004
508.19103854098614
508.1881402152634
508.18524262664266
508.18234577505507
508.17944966043194
508.17655428270484
508.17365964180533
508.1707657376652
508.16787257021645
508.1649801393909
508.1620884451203
508.1591974873364
508.1563072659711
508.1534177809557
508.15052903222124
508.1476410196989
508.1447537433195
508.14186720301416
508.138981398714
508.13609633035014
508.1332119978539
508.13032840115704
508.1274455401914
508.1245634148885
508.1216820251799
508.1188013709972
508.1159214522719
508.1130422689358
508.11016382092055
508.10728610815784
508.10440913057926
508.10153288811637
508.09865738070096
508.0957826082648
508.09290857073995
508.0900352680584
508.08716270015213
508.084290866953
508.0814197683927
508.07854940440336
508.0756797749167
508.0728108798645
508.0699427191788
508.06707529279186
508.0642086006361
508.0613426426445
508.05847741874993
508.05561292888535
508.0527491729837
508.0498861509776
508.04702386279985
508.0441623083831
508.04130148766
508.03844140056333
508.03558204702574
508.03272342697994
508.02986554035886
508.0270083870952
508.0241519671216
508.02129628037085
508.0184413267756
508.0155871062685
508.01273361878236
508.0098808642498
508.0070288426033
508.00417755377555
508.00132699769904
507.99847717430623
507.99562808352937
507.9927797253007
507.98993209955245
507.98708520621665
507.9842390452253
507.98139361651045
507.9785489200041
507.975704955638
507.9728617233437
507.9700192230531
507.9671774546981
507.964336418211
507.96149611352405
507.9586565405692
507.9558176992788
507.95297958958497
507.95014221142003
507.9473055647162
507.9444696494053
507.9416344654188
507.9388000126886
507.9359662911462
507.93313330072317
507.93030104135084
507.92746951296033
507.92463871548273
507.9218086488494
507.91897931299184
507.91615070784144
507.9133228333293
507.9104956893867
507.9076692759453
507.9048435929368
507.9020186402928
507.89919441794484
507.8963709258247
507.89354816386447
507.8907261319961
507.88790483015157
507.88508425826296
507.8822644162625
507.8794453040824
507.87662692165475
507.8738092689115
507.87099234578466
507.8681761522063
507.86536068810835
507.8625459534229
507.8597319480822
507.85691867201865
507.8541061251648
507.85129430745303
507.84848321881566
507.8456728591847
507.8428632284921
507.84005432667016
507.8372461536511
507.8344387093672
507.83163199375065
507.8288260067337
507.8260207482489
507.8232162182286
507.82041241660534
507.81760934331203
507.8148069982818
507.8120053814481
507.80920449274447
507.8064043321043
507.803604899461
507.80080619474813
507.79800821789934
507.79521096884844
507.79241444752904
507.78961865387475
507.7868235878192
507.7840292492957
507.78123563823794
507.77844275457926
507.7756505982528
507.772859169192
507.77006846733036
507.7672784926016
507.76448924493945
507.7617007242776
507.7589129305494
507.7561258636882
507.7533395236277
507.7505539103014
507.7477690236432
507.7449848635871
507.7422014300672
507.73941872301737
507.7366367423716
507.73385548806425
507.73107496002933
507.7282951582009
507.7255160825131
507.7227377329001
507.7199601092965
507.717183211637
507.7144070398566
507.7116315938903
507.7088568736732
507.70608287914035
507.7033096102267
507.70053706686747
507.69776524899805
507.69499415655366
507.6922237894695
507.68945414768075
507.68668523112285
507.6839170397312
507.68114957344176
507.6783828321903
507.6756168159128
507.6728515245451
507.67008695802326
507.66732311628346
507.66455999926154
507.66179760689363
507.65903593911605
507.65627499586515
507.6535147770777
507.65075528269074
507.64799651264104
507.6452384668654
507.6424811453006
507.6397245478837
507.6369686745519
507.63421352524267
507.63145909989373
507.6287053984428
507.6259524208275
507.62320016698584
507.62044863685594
507.6176978303762
507.61494774748496
507.6121983881209
507.60944975222276
507.60670183972945
507.6039546505798
507.60120818471285
507.59846244206744
507.59571742258265
507.59297312619776
507.5902295528523
507.587486702486
507.5847445750388
507.5820031704508
507.5792624886618
507.57652252961213
507.57378329324195
507.5710447794917
507.56830698830197
507.56556991961327
507.5628335733662
507.5600979495015
507.5573630479597
507.55462886868156
507.5518954116077
507.549162676679
507.5464306638363
507.5436993730208
507.5409688041733
507.53823895723497
507.5355098321469
507.53278142885017
507.5300537472857
507.5273267873946
507.52460054911796
507.5218750323969
507.51915023717254
507.516426163386
507.5137028109781
507.51098017989
507.50825827006304
507.5055370814388
507.5028166139592
507.5000968675662
507.4973778422017
507.4946595378077
507.4919419543263
507.48922509169927
507.48650894986883
507.4837935287775
507.4810788283677
507.4783648485824
507.4756515893645
507.47293905065715
507.4702272324038
507.46751613454796
507.46480575703356
507.4620960998046
507.4593871628052
507.45667894597966
507.4539714492727
507.45126467262924
507.44855861599456
507.4458532793143
507.4431486625341
507.44044476559986
507.43774158845724
507.4350391310521
507.4323373933304
507.42963637523815
507.4269360767215
507.4242364977266
507.42153763819954
507.41883949808664
507.4161420773347
507.41344537589055
507.41074939370094
507.4080541307127
507.4053595868728
507.4026657621283
507.3999726564265
507.39728026971477
507.39458860194065
507.39189765305184
507.38920742299626
507.3865179117223
507.3838291191788
507.38114104531485
507.3784536900797
507.3757670534227
507.3730811352931
507.37039593564043
507.36771145441446
507.36502769156493
507.3623446470416
507.3596623207944
507.3569807127732
507.3542998229276
507.35161965120767
507.3489401975636
507.3462614619456
507.3435834443038
507.34090614458876
507.3382295627508
507.33555369874045
507.3328785525081
507.33020412400435
507.32753041318017
507.32485741998664
507.32218514437466
507.3195135862949
507.31684274569795
507.31417262253456
507.31150321675534
507.3088345283112
507.306166557153
507.3034993032319
507.30083276649896
507.2981669469058
507.29550184440416
507.29283745894634
507.290173790485
507.28751083897293
507.28484860436276
507.282187086607
507.27952628565833
507.2768662014695
507.2742068339936
507.2715481831841
507.2688902489946
507.2662330313789
507.26357653029083
507.26092074568453
507.25826567751403
507.25561132573387
507.2529576902988
507.25030477116377
507.247652568284
507.24500108161476
507.2423503111112
507.2397002567285
507.23705091842214
507.23440229614755
507.2317543898604
507.22910719951653
507.2264607250721
507.22381496648325
507.22116992370604
507.2185255966971
507.21588198541315
507.21323908981105
507.2105969098476
507.2079554454798
507.2053146966649
507.2026746633604
507.20003534552404
507.1973967431137
507.19475885608756
507.192121684404
507.1894852280217
507.18684948689895
507.184214460994
507.1815801502652
507.17894655467114
507.17631367417073
507.173681508723
507.1710500582875
507.168419322824
507.16578930229264
507.1631599966539
507.1605314058687
507.15790352989814
507.1552763687033
507.1526499222458
507.15002419048744
507.14739917339
507.1447748709155
507.14215128302646
507.13952840968534
507.13690625085485
507.1342848064977
507.1316640765766
507.1290440610545
507.1264247598946
507.1238061730604
507.1211883005159
507.11857114222505
507.1159546981522
507.11333896826216
507.11072395251983
507.1081096508907
507.1054960633404
507.1028831898351
507.10027103034156
507.09765958482683
507.09504885325816
507.0924388356028
507.08982953182783
507.0872209419007
507.0846130657891
507.0820059034612
507.07939945488545
507.0767937200302
507.0741886988641
507.0715843913557
507.0689807974742
507.066377917189
507.06377575047
507.06117429728704
507.05857355761066
507.0559735314115
507.0533742186607
507.05077561932933
507.04817773338925
507.0455805608127
507.0429841015724
507.0403883556413
507.0377933229928
507.0351990036007
507.03260539743917
507.03001250448267
507.0274203247062
507.024828858085
507.02223810459475
507.0196480642111
507.0170587369097
507.01447012266647
507.0118822214573
507.00929503325835
507.00670855804594
507.0041227957969
507.0015377464882
506.9989534100972
506.9963697866009
506.9937868759765
506.9912046782016
506.9886231932536
506.98604242111026
506.98346236174905
506.9808830151477
506.97830438128415
506.97572646013634
506.973149251682
506.97057275589907
506.96799697276526
506.9654219022583
506.96284754435567
506.96027389903463
506.95770096627245
506.9551287460464
506.9525572383337
506.9499864431117
506.94741636035735
506.94484699004795
506.94227833216075
506.93971038667326
506.93714315356294
506.9345766328073
506.93201082438407
506.9294457282707
506.9268813444447
506.9243176728836
506.92175471356484
506.9191924664659
506.9166309315641
506.91407010883665
506.9115099982606
506.90895059981347
506.9063919134727
506.90383393921604
506.901276677021
506.898720126865
506.8961642887258
506.89360916258136
506.89105474840983
506.8885010461894
506.8859480558982
506.88339577751447
506.8808442110163
506.87829335638173
506.8757432135884
506.87319378261407
506.8706450634364
506.868097056033
506.86554976038144
506.86300317645953
506.86045730424496
506.85791214371545
506.8553676948485
506.85282395762135
506.85028093201174
506.84773861799715
506.8451970155553
506.8426561246639
506.8401159453009
506.83757647744426
506.83503772107167
506.83249967616064
506.82996234268865
506.8274257206332
506.824889809972
506.82235461068274
506.8198201227432
506.817286346131
506.814753280824
506.8122209267998
506.80968928403615
506.8071583525108
506.8046281322014
506.8020986230857
506.79956982514125
506.7970417383457
506.79451436267675
506.79198769811217
506.7894617446294
506.78693650220623
506.7844119708203
506.7818881504494
506.7793650410712
506.7768426426634
506.7743209552035
506.7717999786688
506.76927971303655
506.766760158284
506.76424131438864
506.7617231813282
506.75920575908015
506.756689047622
506.75417304693076
506.7516577569835
506.749143177757
506.7466293092283
506.74411615137467
506.7416037041734
506.73909196760144
506.7365809416357
506.7340706262529
506.7315610214299
506.72905212714375
506.72654394337167
506.72403647009116
506.7215297072795
506.71902365491394
506.71651831297174
506.7140136814302
506.7115097602665
506.7090065494582
506.70650404898254
506.70400225881656
506.7015011789375
506.6990008093229
506.69650114995045
506.6940022007981
506.6915039618435
506.6890064330645
506.68650961443893
506.684013505945
506.6815181075607
506.6790234192641
506.67652944103327
506.67403617284606
506.67154361468044
506.6690517665146
506.6665606283267
506.6640702000949
506.6615804817974
506.65909147341233
506.65660317491813
506.65411558629296
506.651628707515
506.64914253856216
506.6466570794124
506.6441723300435
506.6416882904331
506.6392049605589
506.63672234039893
506.6342404299311
506.6317592291333
506.6292787379838
506.6267989564609
506.6243198845433
506.6218415222096
506.61936386943864
506.61688692620953
506.61441069250134
506.61193516829314
506.60946035356426
506.6069862482942
506.60451285246256
506.6020401660486
506.59956818903186
506.5970969213921
506.59462636310934
506.59215651416355
506.5896873745347
506.5872189442026
506.5847512231468
506.582284211347
506.57981790878296
506.5773523154347
506.57488743128226
506.5724232563058
506.56995979048554
506.5674970338015
506.5650349862336
506.5625736477622
506.56011301836713
506.5576530980285
506.5551938867262
506.55273538444055
506.55027759115194
506.5478205068408
506.54536413148764
506.5429084650731
506.54045350757804
506.53799925898363
506.5355457192712
506.5330928884222
506.5306407664176
506.5281893532384
506.52573864886597
506.52328865328207
506.5208393664685
506.5183907884076
506.51594291908157
506.5134957584727
506.5110493065632
506.5086035633352
506.5061585287709
506.5037142028526
506.50127058556257
506.498827676883
506.4963854767965
506.49394398528545
506.4915032023324
506.4890631279201
506.4866237620312
506.48418510464865
506.48174715575567
506.4793099153354
506.47687338337107
506.47443755984557
506.4720024447421
506.4695680380438
506.4671343397339
506.46470134979575
506.462269068213
506.4598374949693
506.45740663004824
506.45497647343393
506.4525470251107
506.450118285063
506.4476902532755
506.4452629297331
506.442836314421
506.44041040732475
506.4379852084297
506.4355607177214
506.4331369351852
506.43071386080635
506.4282914945701
506.42586983646186
506.42344888646755
506.4210286445733
506.4186091107655
506.4161902850302
506.4137721673536
506.41135475772205
506.4089380561221
506.4065220625406
506.40410677696457
506.40169219938105
506.39927832977685
506.396865168139
506.3944527144546
506.39204096871083
506.3896299308948
506.3872196009937
506.3848099789951
506.3824010648865
506.3799928586553
506.3775853602896
506.3751785697772
506.3727724871063
506.37036711226517
506.3679624452419
506.3655584860247
506.3631552346018
506.3607526909615
506.35835085509245
506.35594972698334
506.35354930662277
506.35114959399937
506.34875058910177
506.3463522919186
506.3439547024385
506.34155782065034
506.3391616465432
506.33676618010657
506.33437142133005
506.33197737020316
506.3295840267159
506.3271913908585
506.3247994626214
506.32240824199505
506.3200177289699
506.3176279235362
506.31523882568456
506.3128504354057
506.3104627526908
506.30807577753114
506.3056895099181
506.3033039498433
506.30091909729833
506.29853495227474
506.2961515147639
506.2937687847574
506.2913867622468
506.28900544722376
506.2866248396798
506.28424493960654
506.281865746996
506.27948726184025
506.2771094841313
506.27473241386144
506.27235605102317
506.2699803956094
506.26760544761316
506.26523120702734
506.26285767384513
506.2604848480597
506.25811272966473
506.25574131865426
506.2533706150224
506.25100061876344
506.2486313298724
506.2462627483445
506.24389487417545
506.24152770736134
506.2391612478983
506.23679549578276
506.234430451011
506.23206611357966
506.2297024834851
506.22733956072386
506.22497734529236
506.22261583718694
506.2202550364044
506.2178949429418
506.21553555679645
506.213176877966
506.21081890644825
506.2084616422409
506.2061050853414
506.2037492357473
506.2013940934561
506.1990396584655
506.19668593077347
506.1943329103782
506.1919805972781
506.1896289914715
506.1872780929572
506.1849279017341
506.18257841780144
506.18022964115823
506.1778815718036
506.1755342097366
506.1731875549566
506.17084160746265
506.1684963672538
506.16615183432924
506.16380800868825
506.1614648903297
506.1591224792524
506.15678077545505
506.15443977893625
506.1520994896944
506.14975990772774
506.1474210330346
506.14508286561323
506.1427454054613
506.1404086525766
506.13807260695654
506.13573726859846
506.1334026374994
506.13106871365636
506.12873549706643
506.1264029877264
506.1240711856331
506.12174009078336
506.1194097031735
506.1170800227997
506.11475104965785
506.1124227837436
506.1100952250527
506.1077683735803
506.1054422293217
506.10311679227203
506.10079206242614
506.09846803977877
506.0961447243247
506.0938221160582
506.0915002149737
506.0891790210654
506.0868585343272
506.08453875475294
506.0822196823363
506.07990131707066
506.0775836589492
506.07526670796466
506.0729504641093
506.07063492737535
506.06832009775513
506.06600597524044
506.06369255982287
506.06137985149377
506.05906785024405
506.0567565560644
506.05444596894546
506.0521360888777
506.0498269158514
506.0475184498562
506.0452106908818
506.0429036389176
506.04059729395277
506.03829165597637
506.035986724977
506.0336825009436
506.0313789838647
506.0290761737288
506.02677407052425
506.024472674239
506.0221719848608
506.0198720023771
506.017572726775
506.015274158041
506.0129762961615
506.0106791411227
506.00838269291063
506.0060869515117
506.00379191691223
506.0014975890986
505.9992039680572
505.9969110537741
505.99461884623526
505.9923273454263
505.99003655133293
505.9877464639408
505.98545708323564
505.9831684092031
505.9808804418288
505.97859318109846
505.97630662699754
505.9740207795115
505.97173563862526
505.96945120432366
505.96716747659144
505.96488445541337
505.9626021407742
505.9603205326587
505.9580396310517
505.95575943593764
505.95347994730065
505.9512011651248
505.9489230893942
505.94664572009293
505.9443690572046
505.94209310071284
505.93981785060106
505.93754330685243
505.93526946945036
505.932996338378
505.9307239136186
505.92845219515544
505.9261811829718
505.92391087705056
505.9216412773745
505.91937238392603
505.9171041966877
505.9148367156418
505.9125699407703
505.91030387205507
505.90803850947765
505.9057738530192
505.9035099026606
505.9012466583825
505.8989841201656
505.8967222879906
505.8944611618377
505.89220074168685
505.8899410275181
505.88768201931117
505.8854237170456
505.88316612070076
505.88090923025544
505.8786530456883
505.87639756697746
505.8741427941007
505.87188872703547
505.8696353657593
505.8673827102494
505.86513076048305
505.86287951643754
505.8606289780901
505.85837914541804
505.85613001839835
505.85388159700784
505.8516338812229
505.8493868710196
505.8471405663741
505.84489496726275
505.8426500736617
505.8404058855472
505.83816240289576
505.83591962568363
505.8336775538872
505.8314361874828
505.82919552644654
505.82695557075414
505.824716320381
505.8224777753026
505.82023993549393
505.8180028009297
505.8157663715843
505.8135306474317
505.81129562844586
505.80906131460057
505.80682770586947
505.80459480222595
505.8023626036432
505.80013111009436
505.7979003215524
505.79567023799
505.7934408593799
505.7912121856951
505.788984216908
505.78675695299086
505.78453039391576
505.78230453965426
505.78007939017795
505.77785494545816
505.77563120546625
505.77340817017335
505.77118583955036
505.76896421356815
505.76674329219765
505.7645230754093
505.76230356317325
505.76008475545956
505.7578666522382
505.7556492534789
505.75343255915146
505.7512165692254
505.74900128367
505.74678670245436
505.74457282554755
505.74235965291865
505.7401471845363
505.73793542036884
505.7357243603847
505.7335140045523
505.73130435284
505.729095405216
505.7268871616482
505.7246796221046
505.72247278655306
505.72026665496134
505.7180612272969
505.71585650352705
505.7136524836188
505.7114491675389
505.70924655525397
505.70704464673037
505.70484344193443
505.70264294083273
505.7004431433921
505.6982440495788
505.6960456593591
505.69384797269896
505.6916509895644
505.689454709921
505.68725913373424
505.68506426096957
505.6828700915922
505.6806766255673
505.6784838628601
505.67629180343584
505.67410044725995
505.6719097942974
505.66971984451317
505.66753059787226
505.6653420543394
505.6631542138794
505.660967076457
505.65878064203713
505.65659491058483
505.65440988206507
505.6522255564426
505.65004193368196
505.64785901374745
505.64567679660337
505.643495282214
505.6413144705437
505.6391343615565
505.6369549552165
505.6347762514875
505.63259825033293
505.6304209517162
505.62824435560066
505.6260684619493
505.6238932707245
505.6217187818889
505.6195449954046
505.617371911234
505.61519952933924
505.6130278496826
505.6108568722262
505.6086865969317
505.6065170237608
505.60434815267496
505.60217998363584
505.60001251660475
505.59784575154305
505.5956796884121
505.59351432717295
505.5913496677868
505.5891857102145
505.58702245441697
505.58485990035484
505.5826980479888
505.5805368972797
505.5783764481883
505.57621670067493
505.5740576547001
505.5718993102244
505.5697416672086
505.56758472561324
505.56542848539885
505.56327294652584
505.5611181089544
505.55896397264456
505.55681053755603
505.5546578036481
505.5525057708799
505.5503544392105
505.5482038085989
505.546053879004
505.5439046503846
505.54175612269916
505.5396082959058
505.5374611699622
505.53531474482594
505.5331690204544
505.5310239968051
505.5288796738353
505.52673605150204
505.5245931297621
505.52245090857224
505.5203093878893
505.51816856766965
505.51602844786936
505.51388902844434
505.5117503093505
505.5096122905432
505.5074749719775
505.50533835360835
505.5032024353905
505.50106721727826
505.4989326992259
505.4967988811878
505.4946657631179
505.49253334497035
505.490401626699
505.48827060825744
505.48614028959906
505.48401067067704
505.4818817514443
505.47975353185376
505.4776260118584
505.4754991914111
505.47337307046456
505.4712476489713
505.4691229268836
505.4669989041536
505.46487558073346
505.4627529565749
505.4606310316295
505.4585098058488
505.4563892791844
505.45426945158744
505.45215032300877
505.45003189339906
505.44791416270874
505.445797130888
505.4436807978871
505.44156516365575
505.43945022814347
505.4373359912998
505.43522245307423
505.4331096134161
505.43099747227444
505.4288860295986
505.4267752853378
505.42466523944114
505.4225558918577
505.42044724253634
505.41833929142564
505.41623203847377
505.4141254836289
505.41201962683914
505.4099144680525
505.40781000721637
505.40570624427806
505.4036031791846
505.40150081188295
505.39939914231996
505.39729817044196
505.39519789619504
505.3930983195251
505.3909994403776
505.3889012586977
505.3868037744306
505.3847069875215
505.38261089791564
505.3805155055582
505.3784208103944
505.3763268123694
505.37423351142826
505.3721409075161
505.3700490005779
505.36795779055825
505.3658672774014
505.36377746105114
505.3616883414514
505.35959991854594
505.3575121922782
505.35542516259153
505.35333882942933
505.35125319273453
505.34916825244983
505.34708400851747
505.3450004608797
505.34291760947855
505.34083545425557
505.3387539951521
505.33667323210926
505.33459316506816
505.33251379396967
505.33043511875445
505.32835713936294
505.3262798557353
505.3242032678116
505.3221273755319
505.3200521788363
505.3179776776645
505.315903871956
505.31383076164985
505.31175834668494
505.30968662699985
505.3076156025332
505.30554527322334
505.30347563900847
505.3014066998265
505.2993384556151
505.297270906312
505.2952040518549
505.2931378921815
505.2910724272295
505.2890076569366
505.2869435812402
505.2848802000779
505.2828175133869
505.28075552110414
505.2786942231667
505.2766336195114
505.274573710075
505.27251449479405
505.2704559736051
505.26839814644455
505.2663410132487
505.2642845739536
505.2622288284952
505.2601737768094
505.258119418832
505.2560657544987
505.2540127837447
505.2519605065052
505.2499089227154
505.2478580323105
505.24580783522566
505.2437583313959
505.24170952075593
505.23966140324006
505.2376139787826
505.23556724731776
505.2335212087797
505.23147586310216
505.2294312102188
505.22738725006303
505.22534398256795
505.2233014076667
505.2212595252923
505.2192183353773
505.2171778378543
505.2151380326555
505.21309891971265
505.2110604989571
505.20902277032
505.2069857337322
505.20494938912435
505.2029137364271
505.2008787755711
505.1988445064865
505.1968109291034
505.1947780433514
505.1927458491603
505.19071434645986
505.18868353517934
505.1866534152478
505.1846239865943
505.1825952491477
505.1805672028368
505.17853984759046
505.1765131833375
505.1744872100067
505.1724619275272
505.1704373358278
505.1684134348373
505.1663902244846
505.16436770469824
505.16234587540663
505.16032473653814
505.1583042880207
505.15628452978245
505.1542654617511
505.1522470838541
505.1502293960189
505.14821239817326
505.1461960902446
505.1441804721604
505.1421655438483
505.1401513052361
505.13813775625164
505.13612489682265
505.13411272687705
505.13210124634253
505.13009045514656
505.12808035321615
505.1260709404783
505.1240622168596
505.1220541822864
505.1200468366845
505.1180401799796
505.1160342120971
505.1140289329624
505.11202434250055
505.1100204406362
505.1080172272937
505.1060147023973
505.1040128658711
505.10201171763885
505.10001125762443
505.09801148575167
505.0960124019446
505.0940140061271
505.0920162982225
505.0900192781542
505.0880229458456
505.08602730122
505.0840323442008
505.0820380747114
505.080044492675
505.07805159801484
505.07605939065417
505.0740678705159
505.07207703752266
505.07008689159744
505.0680974326629
505.06610866064153
505.0641205754558
505.06213317702833
505.06014646528166
505.058160440138
505.0561751015194
505.0541904493478
505.0522064835455
505.05022320403447
505.0482406107365
505.0462587035732
505.04427748246604
505.04229694733664
505.0403170981065
505.03833793469704
505.0363594570293
505.03438166502434
505.0324045586029
505.03042813768553
505.02845240219295
505.02647735204533
505.02450298716286
505.02252930746573
505.0205563128739
505.0185840033071
505.0166123786849
505.01464143892673
505.0126711839519
505.01070161367994
505.0087327280301
505.0067645269219
505.0047970102747
505.0028301780074
505.00086403003917
504.9988985662888
504.99693378667513
504.99496969111675
504.9930062795325
504.99104355184096
504.9890815079603
504.9871201478084
504.985159471303
504.98319947836154
504.9812401689015
504.97928154284006
504.9773236000945
504.97536634058207
504.97340976422
504.97145387092525
504.96949866061465
504.96754413320474
504.9655902886116
504.96363712675117
504.961684647539
504.95973285089104
504.95778173672335
504.955831304952
504.95388155549296
504.9519324882618
504.94998410317413
504.94803640014567
504.9460893790918
504.9441430399277
504.9421973825684
504.940252406929
504.93830811292474
504.9363645004708
504.93442156948214
504.9324793198737
504.9305377515603
504.9285968644563
504.92665665847636
504.92471713353444
504.9227782895444
504.92084012642005
504.9189026440752
504.9169658424235
504.9150297213783
504.91309428085293
504.9111595207608
504.9092254410155
504.90729204153064
504.90535932221957
504.9034272829952
504.9014959237705
504.89956524445853
504.8976352449725
504.8957059252255
504.89377728513074
504.8918493246013
504.8899220435506
504.88799544189175
504.88606951953767
504.8841442764013
504.8822197123955
504.88029582743326
504.8783726214277
504.87645009429167
504.87452824593817
504.87260707627985
504.8706865852292
504.86876677269817
504.8668476385988
504.8649291828429
504.863011405342
504.8610943060074
504.8591778847504
504.8572621414824
504.85534707611447
504.8534326885579
504.8515189787241
504.84960594652404
504.84769359186913
504.84578191467045
504.8438709148389
504.84196059228526
504.84005094692094
504.83814197865723
504.83623368740524
504.83432607307583
504.8324191355801
504.8305128748289
504.8286072907334
504.8267023832041
504.8247981521518
504.8228945974866
504.8209917191187
504.8190895169585
504.81718799091647
504.81528714090297
504.81338696682843
504.81148746860305
504.809588646137
504.8076904993407
504.8057930281248
504.8038962324002
504.80200011207745
504.8001046670673
504.7982098972803
504.7963158026269
504.7944223830173
504.7925296383617
504.7906375685703
504.78874617355297
504.78685545321974
504.7849654074808
504.7830760362463
504.7811873394265
504.7792993169315
504.7774119686715
504.77552529455676
504.7736392944972
504.7717539684025
504.7698693161827
504.76798533774723
504.76610203300567
504.7642194018677
504.76233744424263
504.7604561600397
504.75857554916803
504.7566956115364
504.7548163470531
504.75293775562665
504.75105983716554
504.74918259157863
504.7473060187745
504.7454301186618
504.74355489114924
504.74168033614575
504.7398064535601
504.73793324330137
504.7360607052786
504.73418883940104
504.732317645578
504.73044712371876
504.7285772737326
504.7267080955292
504.72483958901836
504.72297175411
504.7211045907139
504.7192380987397
504.717372278097
504.71550712869526
504.713642650444
504.7117788432525
504.70991570703
504.70805324168583
504.70619144712947
504.7043303232704
504.70246987001775
504.7006100872805
504.6987509749677
504.69689253298844
504.6950347612515
504.693177659666
504.69132122814113
504.6894654665862
504.68761037491055
504.6857559530236
504.6839022008349
504.68204911825393
504.68019670519
504.6783449615521
504.6764938872496
504.6746434821917
504.6727937462877
504.6709446794469
504.669096281579
504.6672485525938
504.6654014924007
504.66355510090904
504.66170937802787
504.65986432366645
504.6580199377343
504.65617622014116
504.6543331707965
504.6524907896099
504.650649076491
504.64880803134935
504.64696765409445
504.6451279446356
504.64328890288203
504.6414505287426
504.63961282212637
504.63777578294213
504.6359394110987
504.6341037065052
504.6322686690706
504.63043429870373
504.62860059531346
504.6267675588088
504.62493518909884
504.6231034860926
504.62127244969935
504.6194420798284
504.6176123763892
504.61578333929134
504.61395496844426
504.61212726375726
504.6103002251396
504.6084738525008
504.6066481457504
504.6048231047981
504.6029987295536
504.60117501992687
504.5993519758277
504.59752959716576
504.5957078838508
504.59388683579215
504.59206645289925
504.5902467350816
504.5884276822488
504.5866092943102
504.58479157117523
504.5829745127531
504.58115811895306
504.5793423896844
504.5775273248565
504.57571292437825
504.57389918815903
504.57208611610787
504.5702737081336
504.568461964145
504.5666508840507
504.5648404677593
504.5630307151794
504.56122162621983
504.55941320078915
504.557605438796
504.55579834014867
504.5539919047554
504.55218613252424
504.5503810233634
504.54857657718077
504.5467727938845
504.5449696733827
504.54316721558354
504.54136542039515
504.5395642877257
504.53776381748304
504.5359640095747
504.5341648639081
504.53236638039067
504.5305685589297
504.5287713994324
504.526974901806
504.52517906595796
504.52338389179596
504.52158937922746
504.51979552815993
504.5180023385008
504.51620981015736
504.5144179430368
504.51262673704633
504.5108361920932
504.5090463080849
504.5072570849289
504.50546852253257
504.50368062080344
504.5018933796487
504.5001067989759
504.49832087869237
504.4965356187054
504.4947510189223
504.4929670792504
504.4911837995972
504.4894011798704
504.48761921997794
504.48583791982793
504.4840572793285
504.4822772983878
504.480497976914
504.47871931481524
504.47694131199984
504.4751639683762
504.4733872838527
504.47161125833765
504.4698358917395
504.46806118396654
504.4662871349272
504.4645137445296
504.4627410126821
504.4609689392931
504.4591975242707
504.4574267675228
504.45565666895715
504.4538872284814
504.4521184460032
504.45035032143034
504.4485828546704
504.4468160456311
504.4450498942202
504.44328440034525
504.4415195639138
504.4397553848335
504.4379918630121
504.4362289983574
504.43446679077744
504.4327052401798
504.430944346472
504.4291841095615
504.4274245293555
504.425665605761
504.42390733868507
504.4221497280344
504.42039277371606
504.418636475637
504.4168808337043
504.41512584782464
504.41337151790464
504.4116178438506
504.40986482556906
504.4081124629666
504.40636075594995
504.40460970442547
504.40285930829947
504.4011095674783
504.3993604818682
504.39761205137535
504.3958642759058
504.3941171553659
504.39237068966196
504.3906248787003
504.38887972238746
504.38713522063
504.38539137333447
504.3836481804072
504.38190564175426
504.380163757282
504.3784225268967
504.37668195050475
504.3749420280124
504.3732027593258
504.371464144351
504.36972618299393
504.3679888751604
504.3662522207563
504.3645162196877
504.3627808718605
504.3610461771805
504.35931213555415
504.35757874688767
504.3558460110872
504.354113928059
504.35238249770947
504.35065171994466
504.3489215946707
504.3471921217936
504.3454633012196
504.3437351328549
504.3420076166058
504.34028075237876
504.33855454007977
504.33682897961495
504.3351040708904
504.3333798138122
504.33165620828646
504.32993325421927
504.3282109515167
504.3264893000849
504.3247682998297
504.323047950657
504.32132825247237
504.3196092051815
504.31789080869027
504.31617306290474
504.314455967731
504.3127395230752
504.3110237288434
504.3093085849419
504.30759409127705
504.30588024775517
504.3041670542826
504.30245451076536
504.3007426171096
504.29903137322145
504.2973207790067
504.29561083437085
504.293901539219
504.29219289345616
504.29048489698704
504.28877754971614
504.28707085154775
504.2853648023866
504.28365940213763
504.28195465070627
504.2802505479979
504.278547093918
504.2768442883717
504.2751421312642
504.2734406225007
504.27173976198634
504.2700395496261
504.268339985325
504.2666410689881
504.2649428005207
504.26324517982795
504.261548206815
504.25985188138685
504.25815620344844
504.2564611729047
504.25476678966066
504.2530730536212
504.2513799646916
504.2496875227767
504.24799572778176
504.24630457961194
504.2446140781727
504.24292422336936
504.2412350151072
504.2395464532911
504.23785853782607
504.2361712686173
504.23448464557015
504.2327986685901
504.23111333758226
504.2294286524519
504.22774461310433
504.22606121944506
504.2243784713792
504.222696368812
504.22101491164864
504.2193340997945
504.21765393315496
504.2159744116357
504.2142955351424
504.2126173035811
504.21093971685815
504.2092627748801
504.20758647755366
504.20591082478546
504.2042358164818
504.2025614525492
504.2008877328943
504.1992146574235
504.1975422260435
504.19587043866096
504.19419929518295
504.1925287955167
504.19085893956964
504.18918972724947
504.18752115846365
504.1858532331199
504.1841859511258
504.18251931238916
504.1808533168176
504.1791879643186
504.1775232547996
504.1758591881681
504.17419576433196
504.17253298319935
504.1708708446784
504.16920934867727
504.1675484951043
504.1658882838679
504.1642287148764
504.1625697880384
504.1609115032625
