512.1753478715991
512.1733172958088
512.1712866701257
512.1692559945659
512.1672252691453
512.1651944938799
512.1631636687855
512.1611327938781
512.1591018691738
512.157070894689
512.1550398704401
512.1530087964436
512.1509776727162
512.1489464992742
512.146915276134
512.1448840033117
512.1428526808234
512.1408213086843
512.13878988691
512.1367584155159
512.1347268945178
512.1326953239316
512.130663703773
512.1286320340578
512.1266003148014
512.1245685460199
512.1225367277291
512.120504859945
512.1184729426832
512.1164409759592
512.1144089597885
512.1123768941864
512.1103447791677
512.1083126147475
512.1062804009407
512.1042481377617
512.1022158252251
512.1001834633455
512.0981510521374
512.0961185916151
512.094086081793
512.0920535226851
512.0900209143053
512.0879882566676
512.0859555497855
512.0839227936729
512.0818899883436
512.0798571338114
512.0778242300896
512.0757912771915
512.0737582751296
512.0717252239169
512.0696921235658
512.0676589740888
512.0656257754981
512.0635925278059
512.0615592310239
512.0595258851638
512.0574924902373
512.0554590462566
512.0534255532336
512.0513920111807
512.0493584201099
512.047324780033
512.0452910909619
512.0432573529081
512.041223565883
512.039189729898
512.0371558449642
512.0351219110928
512.0330879282947
512.0310538965807
512.0290198159619
512.0269856864488
512.0249515080525
512.0229172807835
512.0208830046527
512.0188486796706
512.0168143058477
512.0147798831945
512.0127454117217
512.0107108914401
512.0086763223608
512.0066417044945
512.0046070378526
512.002572322446
512.0005375582857
511.9985027453825
511.99646788374713
511.9944329733906
511.992398014324
511.99036300655877
511.988327950106
511.9862928449771
511.98425769118336
511.982222488736
511.98018723764636
511.9781519379256
511.9761165895848
511.9740811926352
511.97204574708786
511.9700102529537
511.9679747102437
511.9659391189685
511.963903479139
511.96186779076635
511.9598320538617
511.95779626843597
511.95576043450006
511.9537245520649
511.9516886211414
511.94965264174067
511.94761661387366
511.9455805375515
511.94354441278534
511.94150823958654
511.93947201796647
511.9374357479367
511.9353994295091
511.93336306269526
511.93132664750675
511.92929018395495
511.9272536720512
511.92521711180717
511.9231805032346
511.9211438463456
511.91910714115244
511.91707038766714
511.9150335859013
511.9129967358668
511.9109598375754
511.9089228910389
511.90688589626944
511.90484885327925
511.9028117620806
511.9007746226858
511.89873743510685
511.89670019935585
511.8946629154446
511.8926255833849
511.89058820318843
511.8885507748665
511.88651329843066
511.8844757738928
511.8824382012645
511.88040058055736
511.878362911783
511.87632519495315
511.87428743007973
511.87224961717453
511.8702117562494
511.8681738473161
511.8661358903865
511.8640978854722
511.86205983258475
511.86002173173557
511.857983582936
511.8559453861972
511.8539071415303
511.85186884894625
511.84983050845614
511.8477921200709
511.84575368380143
511.8437151996587
511.84167666765376
511.8396380877976
511.8375994601011
511.8355607845754
511.8335220612319
511.83148329008196
511.82944447113715
511.82740560440885
511.82536668990844
511.8233277276475
511.8212887176374
511.81924965988975
511.81721055441636
511.81517140122907
511.8131322003397
511.8110929517598
511.80905365550126
511.80701431157587
511.80497491999546
511.8029354807716
511.8008959939162
511.79885645944074
511.7968168773569
511.79477724767645
511.792737570411
511.7906978455724
511.7886580731727
511.78661825322393
511.7845783857379
511.7825384707267
511.7804985082026
511.7784584981776
511.7764184406638
511.77437833567325
511.7723381832182
511.77029798331097
511.7682577359638
511.76621744118876
511.7641770989981
511.76213670940393
511.76009627241825
511.7580557880529
511.7560152563199
511.75397467723116
511.7519340507982
511.7498933770326
511.7478526559458
511.74581188754934
511.74377107185506
511.7417302088748
511.73968929862036
511.7376483411038
511.73560733633695
511.73356628433186
511.73152518510034
511.729484038654
511.7274428450042
511.7254016041625
511.7233603161406
511.7213189809498
511.7192775986012
511.71723616910623
511.71519469247625
511.7131531687226
511.7111115978569
511.709069979891
511.7070283148369
511.7049866027067
511.70294484351217
511.70090303726516
511.6988611839775
511.6968192836608
511.69477733632635
511.69273534198584
511.69069330065105
511.6886512123336
511.68660907704503
511.6845668947968
511.68252466560017
511.6804823894668
511.6784400664083
511.67639769643625
511.67435527956223
511.67231281579785
511.6702703051547
511.6682277476444
511.6661851432785
511.6641424920686
511.66209979402635
511.6600570491633
511.65801425749106
511.65597141902145
511.65392853376653
511.6518856017381
511.64984262294803
511.64779959740787
511.64575652512923
511.6437134061237
511.6416702404029
511.63962702797886
511.63758376886364
511.63554046306905
511.6334971106069
511.63145371148886
511.62941026572645
511.6273667733315
511.6253232343161
511.6232796486923
511.62123601647187
511.6191923376669
511.6171486122892
511.6151048403506
511.6130610218632
511.6110171568392
511.60897324529043
511.6069292872285
511.60488528266484
511.60284123161074
511.6007971340778
511.5987529900779
511.59670879962306
511.5946645627253
511.59262027939695
511.59057594965003
511.58853157349637
511.5864871509478
511.5844426820161
511.58239816671363
511.5803536050524
511.57830899704464
511.5762643427029
511.5742196420395
511.57217489506667
511.5701301017967
511.56808526224205
511.5660403764155
511.5639954443296
511.56195046599674
511.55990544143
511.55786037064246
511.5558152536474
511.55377009045793
511.5517248810873
511.5496796255489
511.54763432385613
511.54558897602243
511.54354358206143
511.541498141987
511.539452655813
511.5374071235536
511.53536154522254
511.53331592083356
511.5312702504005
511.52922453393745
511.5271787714585
511.52513296297803
511.52308710851054
511.5210412080706
511.5189952616727
511.5169492693315
511.5149032310613
511.51285714687634
511.510811016791
511.5087648408199
511.50671861897746
511.50467235127854
511.50262603773814
511.5005796783715
511.4985332731938
511.49648682222056
511.4944403254672
511.492393782949
511.49034719468096
511.48830056067806
511.4862538809553
511.4842071555277
511.48216038441007
511.48011356761714
511.4780667051637
511.4760197970648
511.47397284333516
511.4719258439898
511.46987879904356
511.46783170851114
511.46578457240713
511.46373739074585
511.4616901635416
511.45964289080854
511.45759557256093
511.45554820881335
511.4535007995806
511.4514533448774
511.44940584471834
511.447358299118
511.4453107080911
511.4432630716522
511.4412153898159
511.4391676625972
511.4371198900113
511.4350720720732
511.4330242087979
511.4309763002005
511.42892834629566
511.42688034709823
511.42483230262275
511.42278421288376
511.4207360778958
511.41868789767324
511.41663967223036
511.4145914015813
511.4125430857401
511.4104947247211
511.4084463185382
511.40639786720527
511.4043493707364
511.4023008291454
511.40025224244624
511.3982036106525
511.39615493377784
511.3941062118361
511.39205744484144
511.39000863280813
511.3879597757503
511.38591087368223
511.3838619266185
511.3818129345735
511.3797638975612
511.37771481559554
511.3756656886906
511.3736165168605
511.37156730011935
511.3695180384812
511.36746873195995
511.3654193805692
511.3633699843229
511.36132054323485
511.3592710573192
511.35722152658974
511.35517195106064
511.353122330746
511.35107266565984
511.34902295581657
511.34697320123047
511.34492340191565
511.34287355788643
511.3408236691574
511.33877373574325
511.33672375765883
511.3346737349189
511.33262366753826
511.33057355553166
511.3285233989141
511.32647319770064
511.32442295190646
511.3223726615468
511.3203223266367
511.31827194719114
511.31622152322535
511.3141710547546
511.31212054179406
511.3100699843588
511.3080193824638
511.30596873612404
511.3039180453548
511.30186731017153
511.2998165305897
511.2977657066247
511.2957148382923
511.2936639256084
511.29161296858894
511.28956196724954
511.28751092160593
511.28545983167356
511.28340869746813
511.2813575190051
511.2793062962997
511.27725502936715
511.27520371822294
511.2731523628825
511.27110096336133
511.2690495196751
511.26699803183925
511.26494649986904
511.26289492377947
511.26084330358555
511.2587916393023
511.25673993094443
511.2546881785268
511.25263638206394
511.2505845415704
511.2485326570607
511.24648072854944
511.24442875605115
511.24237673958015
511.2403246791508
511.2382725747771
511.2362204264735
511.23416823425447
511.2321159981346
511.2300637181282
511.22801139424956
511.22595902651284
511.2239066149319
511.22185415952055
511.21980166029294
511.2177491172634
511.2156965304462
511.21364389985575
511.2115912255063
511.2095385074122
511.2074857455876
511.2054329400465
511.2033800908028
511.2013271978704
511.1992742612634
511.1972212809961
511.19516825708257
511.1931151895372
511.19106207837405
511.1890089236072
511.1869557252508
511.1849024833189
511.18284919782565
511.1807958687853
511.178742496212
511.17668908011984
511.17463562052313
511.17258211743643
511.17052857087407
511.1684749808506
511.1664213473808
511.1643676704792
511.1623139501601
511.16026018643817
511.15820637932785
511.1561525288435
511.15409863499946
511.15204469781025
511.14999071729045
511.1479366934548
511.14588262631815
511.143828515895
511.1417743621999
511.1397201652474
511.1376659250523
511.1356116416294
511.13355731499365
511.1315029451601
511.1294485321437
511.12739407595956
511.1253395766226
511.12328503414784
511.1212304485503
511.119175819845
511.11712114804715
511.1150664331722
511.11301167523567
511.11095687425296
511.10890203023956
511.1068471432109
511.1047922131825
511.10273724017003
511.10068222418914
511.0986271652553
511.09657206338403
511.0945169185905
511.0924617308902
511.09040650029857
511.0883512268311
511.08629591050345
511.08424055133156
511.0821851493311
511.0801297045178
511.0780742169073
511.07601868651506
511.07396311335657
511.0719074974475
511.069851838804
511.0677961374425
511.06574039337926
511.0636846066307
511.061628777213
511.05957290514226
511.05751699043464
511.05546103310627
511.0534050331733
511.05134899065166
511.0492929055575
511.04723677790736
511.0451806077179
511.0431243950057
511.0410681397871
511.03901184207876
511.03695550189724
511.03489911925936
511.03284269418197
511.03078622668187
511.0287297167761
511.026673164482
511.02461656981706
511.02255993279897
511.0205032534455
511.0184465317746
511.01638976780424
511.01433296155284
511.0122761130388
511.01021922228057
511.00816228929654
511.00610531410535
511.00404829672544
511.00199123717545
510.999934135474
510.99787699163954
510.9958198056907
510.99376257764635
510.9917053075256
510.98964799534775
510.9875906411324
510.98553324489905
510.9834758066675
510.98141832645734
510.9793608042881
510.9773032401793
510.9752456341508
510.9731879862225
510.9711302964145
510.9690725647468
510.96701479123936
510.96495697591246
510.9628991187863
510.96084121988093
510.95878327921633
510.95672529681275
510.9546672726904
510.95260920686957
510.95055109937067
510.9484929502144
510.9464347594215
510.94437652701237
510.9423182530073
510.94025993742645
510.9382015802901
510.9361431816188
510.9340847414331
510.93202625975397
510.92996773660235
510.9279091719994
510.9258505659664
510.9237919185246
510.92173322969535
510.9196744995
510.9176157279599
510.9155569150965
510.9134980609311
510.9114391654853
510.909380228781
510.90732125083974
510.90526223168337
510.9032031713337
510.9011440698128
510.8990849271425
510.8970257433444
510.8949665184405
510.89290725245274
510.89084794540287
510.8887885973127
510.88672920820414
510.8846697780987
510.88261030701784
510.88055079498264
510.8784912420147
510.8764316481359
510.8743720133678
510.87231233773224
510.87025262125104
510.86819286394626
510.8661330658402
510.8640732269549
510.8620133473126
510.8599534269354
510.8578934658456
510.8558334640655
510.8537734216175
510.85171333852446
510.84965321480905
510.8475930504938
510.845532845601
510.8434726001529
510.8414123141716
510.8393519876791
510.8372916206977
510.83523121325
510.8331707653584
510.83111027704587
510.8290497483354
510.82698917925
510.8249285698126
510.82286792004567
510.820807229972
510.8187464996143
510.8166857289953
510.8146249181378
510.8125640670649
510.8105031757996
510.80844224436515
510.8063812727849
510.8043202610823
510.80225920928075
510.8001981174039
510.79813698547565
510.79607581351985
510.7940146015604
510.79195334962134
510.78989205772683
510.78783072590073
510.7857693541669
510.78370794254926
510.7816464910714
510.779584999757
510.77752346862945
510.7754618977122
510.77340028702866
510.7713386366025
510.7692769464575
510.76721521661767
510.7651534471068
510.763091637949
510.7610297891684
510.75896790078906
510.7569059728351
510.75484400533065
510.7527819982998
510.7507199517668
510.7486578657561
510.74659574029175
510.74453357539784
510.7424713710987
510.7404091274187
510.73834684438253
510.73628452201507
510.73422216034106
510.7321597593855
510.7300973191737
510.72803483973104
510.725972321083
510.7239097632551
510.72184716627277
510.71978453016123
510.71772185494575
510.71565914065155
510.7135963873041
510.7115335949291
510.70947076355225
510.70740789319944
510.7053449838966
510.7032820356697
510.70121904854506
510.69915602254906
510.69709295770855
510.6950298540506
510.69296671160197
510.69090353038933
510.6888403104393
510.6867770517786
510.684713754434
510.68265041843193
510.6805870437991
510.6785236305623
510.6764601787484
510.67439668838443
510.6723331594972
510.67026959211404
510.6682059862624
510.6661423419699
510.6640786592637
510.6620149381711
510.6599511787197
510.657887380937
510.6558235448504
510.65375967048755
510.65169575787564
510.6496318070422
510.64756781801503
510.64550379082203
510.6434397254914
510.64137562205116
510.639311480529
510.63724730095265
510.63518308334966
510.6331188277475
510.631054534174
510.6289902026568
510.62692583322365
510.6248614259028
510.6227969807224
510.62073249771043
510.61866797689464
510.616603418303
510.61453882196344
510.61247418790373
510.6104095161516
510.6083448067348
510.60628005968107
510.60421527501836
510.6021504527749
510.6000855929786
510.5980206956577
510.59595576084035
510.59389078855503
510.5918257788299
510.58976073169316
510.587695647173
510.58563052529763
510.58356536609523
510.5815001695942
510.5794349358228
510.57736966480917
510.57530435658174
510.5732390111687
510.5711736285983
510.5691082088984
510.5670427520973
510.5649772582231
510.56291172730386
510.5608461593675
510.55878055444174
510.5567149125546
510.55464923373376
510.55258351800745
510.55051776540364
510.5484519759505
510.54638614967604
510.54432028660796
510.542254386774
510.54018845020215
510.53812247692036
510.5360564669566
510.5339904203393
510.5319243370971
510.5298582172589
510.5277920608533
510.525725867909
510.52365963845483
510.5215933725195
510.5195270701318
510.51746073132045
510.51539435611386
510.51332794454044
510.5112614966286
510.5091950124068
510.50712849190364
510.5050619351478
510.50299534216794
510.50092871299245
510.49886204765
510.49679534616945
510.4947286085797
510.49266183490937
510.49059502518736
510.48852817944254
510.486461297704
510.4843943800011
510.4823274263634
510.4802604368204
510.47819341140195
510.47612635013803
510.47405925305867
510.4719921201941
510.46992495157457
510.46785774723054
510.46579050719225
510.4637232314902
510.461655920155
510.459588573217
510.45752119070636
510.45545377265336
510.4533863190882
510.4513188300412
510.44925130554276
510.4471837456236
510.4451161503146
510.443048519647
510.4409808536521
510.43891315236107
510.43684541580484
510.4347776440141
510.43270983701933
510.4306419948512
510.4285741175402
510.4265062051173
510.42443825761353
510.42237027506036
510.42030225748937
510.4182342049324
510.4161661174215
510.4140979949887
510.41202983766635
510.40996164548693
510.40789341848296
510.40582515668694
510.40375686013164
510.40168852885
510.399620162875
510.39755176223986
510.39548332697774
510.3934148571216
510.3913463527047
510.38927781376066
510.38720924032333
510.3851406324266
510.3830719901046
510.3810033133912
510.37893460232004
510.3768658569248
510.37479707723884
510.37272826329587
510.3706594151295
510.36859053277345
510.36652161626176
510.36445266562856
510.36238368090795
510.3603146621343
510.3582456093421
510.35617652256593
510.35410740184017
510.35203824719935
510.34996905867825
510.3478998363117
510.34583058013465
510.34376129018216
510.34169196648946
510.3396226090918
510.3375532180244
510.335483793323
510.3334143350235
510.33134484316207
510.3292753177746
510.32720575889726
510.32513616656644
510.3230665408185
510.32099688169006
510.31892718921796
510.316857463439
510.3147877043903
510.3127179121091
510.31064808663274
510.30857822799845
510.3065083362433
510.30443841140465
510.30236845351993
510.3002984626267
510.29822843876246
510.2961583819652
510.2940882922731
510.2920181697244
510.28994801435744
510.28787782621094
510.2858076053238
510.2837373517348
510.2816670654832
510.2795967466082
510.27752639514944
510.27545601114645
510.2733855946388
510.27131514566605
510.269244664268
510.26717415048444
510.2651036043554
510.2630330259213
510.2609624152229
510.25889177230107
510.256821097197
510.2547503899521
510.2526796506082
510.2506088792068
510.2485380757899
510.246467240399
510.24439637307574
510.2423254738615
510.2402545427979
510.23818357992656
510.23611258528905
510.234041558927
510.23197050088226
510.22989941119664
510.2278282899122
510.2257571370715
510.22368595271706
510.22161473689135
510.2195434896369
510.2174722109965
510.2154009010131
510.21332955972986
510.2112581871905
510.2091867834384
510.207115348517
510.20504388246997
510.2029723853412
510.20090085717476
510.198829298015
510.19675770790633
510.1946860868932
510.1926144350205
510.1905427523332
510.18847103887634
510.18639929469515
510.18432751983465
510.1822557143399
510.18018387825606
510.17811201162846
510.1760401145023
510.1739681869231
510.1718962289363
510.1698242405876
510.16775222192297
510.1656801729885
510.16360809383065
510.16153598449597
510.1594638450313
510.15739167548355
510.1553194758995
510.1532472463262
510.15117498681076
510.14910269740045
510.1470303781428
510.14495802908556
510.14288565027647
510.14081324176374
510.1387408035958
510.1366683358213
510.1345958384887
510.13252331164637
510.1304507553428
510.12837816962684
510.1263055545474
510.1242329101536
510.12216023649427
510.12008753361835
510.1180148015747
510.11594204041245
510.1138692501809
510.1117964309297
510.10972358270857
510.1076507055673
510.10557779955576
510.1035048647239
510.1014319011222
510.0993589088012
510.0972858878111
510.09521283820214
510.0931397600246
510.0910666533287
510.08899351816495
510.0869203545838
510.084847162636
510.08277394237217
510.0807006938433
510.07862741710034
510.0765541121944
510.07448077917644
510.0724074180974
510.0703340290084
510.0682606119606
510.06618716700524
510.06411369419385
510.06204019357807
510.0599666652095
510.05789310913957
510.05581952541985
510.0537459141022
510.0516722752387
510.0495986088816
510.0475249150832
510.0454511938959
510.0433774453721
510.0413036695648
510.039229866527
510.0371560363122
510.03508217897394
510.0330082945662
510.03093438314323
510.0288604447597
510.0267864794701
510.0247124873293
510.0226384683925
510.0205644227154
510.01849035035394
510.0164162513641
510.014342125802
510.012267973724
510.0101937951866
510.00811959024605
510.0060453589586
510.0039711013806
510.0018968175685
509.9998225075786
509.9977481714678
509.9956738092931
509.9935994211119
509.9915250069817
509.98945056696
509.98737610110453
509.9853016094733
509.98322709212454
509.98115254911664
509.9790779805083
509.97700338635815
509.9749287667249
509.97285412166735
509.97077945124494
509.96870475551697
509.966630034543
509.9645552883824
509.962480517095
509.96040572074077
509.95833089938
509.95625605307333
509.95418118188155
509.9521062858658
509.9500313650872
509.94795641960746
509.9458814494886
509.9438064547929
509.94173143558265
509.93965639192044
509.93758132386876
509.93550623149036
509.93343111484825
509.9313559740056
509.92928080902567
509.92720561997163
509.92513040690716
509.9230551698959
509.920979909002
509.91890462428984
509.9168293158239
509.91475398366885
509.9126786278892
509.91060324854953
509.9085278457147
509.9064524194494
509.90437696981854
509.9023014968871
509.90022600072035
509.89815048138354
509.8960749389419
509.893999373461
509.89192378500644
509.8898481736442
509.8877725394403
509.88569688246076
509.8836212027721
509.88154550044084
509.8794697755339
509.8773940281183
509.87531825826164
509.8732424660314
509.87116665149534
509.869090814721
509.86701495577614
509.86493907472874
509.86286317164723
509.86078724660007
509.8587112996559
509.85663533088365
509.8545593403522
509.85248332813063
509.85040729428835
509.8483312388949
509.8462551620199
509.84417906373284
509.8421029441036
509.8400268032022
509.83795064109887
509.8358744578639
509.8337982535673
509.83172202827956
509.8296457820716
509.8275695150142
509.825493227178
509.823416918634
509.82134058945354
509.8192642397083
509.8171878694703
509.81511147881207
509.8130350678062
509.8109586365252
509.8088821850418
509.8068057134288
509.8047292217594
509.80265271010654
509.80057617854374
509.7984996271446
509.7964230559833
509.79434646513397
509.7922698546709
509.7901932246687
509.7881165752022
509.78603990634616
509.7839632181754
509.781886510765
509.77980978419015
509.7777330385264
509.77565627384917
509.77357949023445
509.77150268775864
509.7694258664981
509.7673490265293
509.7652721679288
509.76319529077347
509.7611183951404
509.75904148110686
509.75696454875066
509.75488759815
509.7528106293831
509.75073364252836
509.7486566376643
509.7465796148695
509.7445025742232
509.7424255158044
509.74034843969235
509.7382713459661
509.73619423470524
509.73411710598936
509.73203995989826
509.7299627965122
509.72788561591193
509.7258084181786
509.72373120339336
509.7216539716374
509.71957672299214
509.7174994575392
509.71542217536063
509.71334487653877
509.7112675611559
509.70919022929485
509.7071128810383
509.70503551646885
509.70295813566946
509.70088073872336
509.6988033257142
509.6967258967259
509.69464845184285
509.6925709911496
509.6904935147309
509.68841602267213
509.68633851505894
509.68426099197706
509.6821834535122
509.68010589975034
509.67802833077764
509.6759507466807
509.6738731475462
509.67179553346074
509.6697179045114
509.6676402607853
509.6655626023699
509.6634849293528
509.661407241822
509.6593295398655
509.65725182357147
509.65517409302817
509.653096348324
509.65101858954796
509.64894081678887
509.6468630301361
509.64478522967926
509.6427074155079
509.6406295877121
509.6385517463821
509.63647389160843
509.634396023482
509.63231814209377
509.6302402475347
509.6281623398957
509.6260844192678
509.6240064857421
509.62192853941
509.6198505803632
509.61777260869354
509.61569462449285
509.6136166278532
509.61153861886675
509.60946059762574
509.60738256422275
509.60530451875076
509.603226461303
509.60114839197314
509.5990703108551
509.5969922180428
509.5949141136303
509.59283599771226
509.5907578703837
509.5886797317399
509.5866015818761
509.58452342088805
509.5824452488719
509.58036706592435
509.5782888721422
509.5762106676228
509.57413245246363
509.57205422676253
509.5699759906177
509.5678977441276
509.5658194873909
509.56374122050653
509.56166294357337
509.5595846566908
509.5575063599586
509.5554280534771
509.553349737347
509.55127141166923
509.54919307654524
509.5471147320764
509.5450363783646
509.54295801551217
509.54087964362185
509.5388012627969
509.5367228731407
509.5346444747568
509.53256606774886
509.53048765222076
509.5284092282764
509.5263307960202
509.52425235555717
509.5221739069926
509.52009545043194
509.51801698598075
509.51593851374474
509.51386003382987
509.5117815463423
509.5097030513885
509.5076245490753
509.50554603950997
509.50346752280035
509.5013889990544
509.4993104683802
509.4972319308857
509.4951533866791
509.49307483586864
509.49099627856305
509.48891771487143
509.4868391449032
509.4847605687681
509.4826819865762
509.48060339843806
509.47852480446437
509.4764462047663
509.4743675994553
509.4722889886428
509.47021037244036
509.4681317509599
509.46605312431353
509.4639744926138
509.4618958559734
509.45981721450545
509.45773856832335
509.455659917541
509.45358126227285
509.4515026026334
509.44942393873777
509.44734527070096
509.4452665986383
509.44318792266546
509.4411092428982
509.43903055945253
509.43695187244435
509.4348731819901
509.4327944882064
509.43071579121016
509.4286370911182
509.42655838804745
509.42447968211496
509.4224009734383
509.420322262135
509.41824354832266
509.4161648321188
509.4140861136412
509.4120073930076
509.40992867033634
509.407849945746
509.4057712193556
509.4036924912842
509.4016137616514
509.3995350305773
509.39745629818236
509.39537756458736
509.39329882991325
509.391220094281
509.3891413578115
509.3870626206263
509.38498388284694
509.38290514459555
509.3808264059947
509.3787476671669
509.3766689282348
509.37459018932105
509.372511450549
509.37043271204226
509.3683539739248
509.36627523632075
509.3641964993545
509.3621177631506
509.3600390278339
509.35796029352974
509.35588156036357
509.35380282846137
509.35172409794956
509.34964536895455
509.347566641603
509.3454879160218
509.34340919233847
509.3413304706808
509.3392517511766
509.3371730339541
509.3350943191418
509.3330156068683
509.3309368972628
509.32885819045447
509.3267794865729
509.3247007857479
509.32262208810977
509.320543393789
509.3184647029162
509.31638601562196
509.3143073320378
509.31222865229535
509.3101499765267
509.3080713048644
509.3059926374411
509.3039139743897
509.30183531584345
509.29975666193565
509.29767801279996
509.29559936857055
509.29352072938156
509.2914420953676
509.28936346666325
509.2872848434036
509.2852062257239
509.2831276137595
509.2810490076459
509.27897040751856
509.27689181351326
509.2748132257662
509.2727346444138
509.2706560695929
509.26857750144046
509.2664989400935
509.2644203856897
509.26234183836647
509.26026329826146
509.2581847655127
509.25610624025836
509.2540277226372
509.25194921278813
509.24987071085053
509.2477922169642
509.2457137312695
509.2436352539069
509.24155678501717
509.23947832474147
509.23739987322125
509.23532143059793
509.2332429970134
509.23116457261
509.22908615753073
509.2270077519186
509.22492935591714
509.22285096966976
509.2207725933204
509.2186942270135
509.2166158708936
509.21453752510575
509.21245918979554
509.2103808651089
509.20830255119205
509.2062242481914
509.2041459562536
509.20206767552537
509.19998940615375
509.1979111482863
509.1958329020709
509.1937546676557
509.19167644518944
509.18959823482106
509.1875200366995
509.18544185097386
509.1833636777936
509.18128551730825
509.1792073696677
509.17712923502205
509.1750511135213
509.172973005316
509.17089491055714
509.1688168293961
509.16673876198485
509.1646607084752
509.1625826690193
509.16050464376923
509.1584266328778
509.1563486364983
509.15427065478417
509.15219268788934
509.150114735968
509.14803679917446
509.14595887766365
509.1438809715906
509.1418030811106
509.1397252063792
509.13764734755233
509.13556950478625
509.13349167823736
509.13141386806234
509.1293360744183
509.1272582974628
509.1251805373541
509.12310279425066
509.1210250683112
509.1189473596947
509.11686966856024
509.1147919950677
509.11271433937696
509.1106367016478
509.10855908204036
509.1064814807149
509.1044038978319
509.1023263335524
509.1002487880376
509.0981712614487
509.0960937539472
509.0940162656951
509.0919387968548
509.08986134758885
509.0877839180603
509.08570650843245
509.0836291188687
509.0815517495328
509.07947440058916
509.07739707220236
509.0753197645375
509.07324247775983
509.07116521203517
509.0690879675297
509.0670107444101
509.06493354284345
509.06285636299714
509.0607792050387
509.05870206913625
509.05662495545795
509.0545478641721
509.05247079544716
509.0503937494521
509.0483167263563
509.04623972632936
509.04416274954116
509.042085796162
509.0400088663626
509.03793196031444
509.0358550781892
509.0337782201589
509.03170138639604
509.0296245770733
509.0275477923638
509.025471032441
509.0233942974783
509.02131758764955
509.01924090312883
509.0171642440908
509.0150876107105
509.01301100316306
509.010934421624
509.008857866269
509.0067813372746
509.00470483481746
509.00262835907466
509.0005519102238
508.9984754884427
508.9963990939098
508.99432272680366
508.9922463873027
508.99017007558547
508.98809379183064
508.98601753621716
508.9839413089242
508.9818651101314
508.97978894001864
508.97771279876594
508.9756366865536
508.97356060356225
508.9714845499728
508.96940852596646
508.96733253172494
508.9652565674301
508.96318063326413
508.9611047294093
508.9590288560483
508.95695301336406
508.9548772015399
508.9528014207595
508.95072567120684
508.94864995306585
508.94657426652117
508.9444986117574
508.94242298895944
508.9403473983123
508.93827184000116
508.93619631421126
508.9341208211284
508.9320453609385
508.9299699338278
508.9278945399826
508.9258191795891
508.92374385283324
508.92166855990104
508.9195933009787
508.9175180762527
508.91544288590944
508.9133677301352
508.9112926091161
508.909217523038
508.90714247208666
508.905067456448
508.9029924763079
508.9009175318522
508.898842623267
508.89676775073826
508.89469291445175
508.89261811459323
508.89054335134847
508.888468624903
508.8863939354426
508.884319283153
508.8822446682202
508.88017009083023
508.8780955511693
508.87602104942357
508.87394658577955
508.87187216042366
508.86979777354236
508.8677234253221
508.8656491159493
508.8635748456104
508.8615006144919
508.8594264227804
508.85735227066266
508.85527815832506
508.85320408595385
508.85113005373546
508.8490560618566
508.84698211050363
508.84490819986286
508.84283433012047
508.8407605014627
508.8386867140757
508.836612968146
508.8345392638598
508.83246560140356
508.83039198096367
508.82831840272684
508.82624486687973
508.8241713736088
508.82209792310005
508.82002451553967
508.81795115111413
508.81587783000987
508.81380455241356
508.8117313185119
508.8096581284915
508.8075849825393
508.805511880842
508.803438823586
508.80136581095803
508.7992928431447
508.79721992033274
508.7951470427088
508.7930742104595
508.7910014237716
508.78892868283197
508.78685598782727
508.7847833389442
508.7827107363694
508.78063818028977
508.7785656708925
508.7764932083646
508.7744207928931
508.77234842466487
508.770276103867
508.76820383068616
508.7661316053093
508.76405942792326
508.76198729871476
508.75991521787046
508.75784318557703
508.75577120202115
508.7536992673897
508.7516273818694
508.7495555456469
508.74748375890886
508.74541202184196
508.7433403346331
508.7412686974694
508.7391971105378
508.7371255740252
508.7350540881182
508.7329826530033
508.73091126886675
508.72883993589494
508.72676865427434
508.7246974241916
508.7226262458332
508.7205551193856
508.7184840450352
508.7164130229685
508.71434205337187
508.71227113643204
508.7102002723359
508.70812946127035
508.7060587034225
508.7039879989795
508.7019173481283
508.6998467510557
508.69777620794866
508.6957057189941
508.69363528437884
508.69156490428963
508.6894945789129
508.6874243084351
508.68535409304263
508.6832839329222
508.6812138282603
508.6791437792431
508.67707378605724
508.67500384888945
508.6729339679264
508.6708641433547
508.66879437536113
508.6667246641323
508.6646550098551
508.6625854127162
508.6605158729028
508.6584463906022
508.65637696600174
508.6543075992888
508.65223829065053
508.65016904027425
508.64809984834733
508.6460307150571
508.643961640591
508.6418926251365
508.63982366888104
508.63775477201193
508.6356859347163
508.63361715718133
508.63154843959387
508.62947978214106
508.6274111850098
508.625342648387
508.62327417245956
508.62120575741415
508.61913740343766
508.617069110717
508.61500087943887
508.6129327097899
508.610864601957
508.6087965561271
508.6067285724871
508.6046606512241
508.60259279252523
508.6005249965772
508.59845726356684
508.59638959368135
508.5943219871076
508.5922544440325
508.59018696464295
508.58811954912585
508.5860521976681
508.5839849104568
508.58191768767915
508.5798505295222
508.5777834361734
508.57571640782
508.5736494446496
508.5715825468501
508.56951571460945
508.5674489481157
508.56538224755695
508.5633156131214
508.5612490449978
508.55918254337485
508.55711610844105
508.5550497403847
508.5529834393942
508.5509172056584
508.5488510393659
508.5467849407055
508.5447189098661
508.5426529470369
508.5405870524073
508.5385212261665
508.5364554685036
508.53438977960786
508.53232415966795
508.5302586088726
508.52819312741053
508.5261277154707
508.5240623732418
508.5219971009126
508.51993189867153
508.51786676670713
508.5158017052081
508.5137367143632
508.51167179436084
508.50960694538935
508.50754216763676
508.5054774612911
508.5034128265406
508.50134826357385
508.4992837725795
508.49721935374623
508.49515500726284
508.493090733318
508.4910265321007
508.48896240379963
508.4868983486035
508.4848343667013
508.4827704582817
508.4807066235335
508.4786428626451
508.4765791758052
508.47451556320266
508.4724520250263
508.47038856146537
508.4683251727092
508.4662618589475
508.46419862036987
508.4621354571659
508.46007236952505
508.4580093576369
508.4559464216909
508.4538835618762
508.45182077838194
508.44975807139735
508.44769544111136
508.4456328877129
508.44357041139097
508.4415080123342
508.43944569073165
508.43738344677195
508.43532128064385
508.4332591925363
508.431197182638
508.4291352511375
508.42707339822323
508.4250116240835
508.42294992890675
508.4208883128815
508.4188267761965
508.4167653190402
508.4147039416009
508.41264264406686
508.4105814266263
508.40852028946733
508.40645923277816
508.4043982567471
508.40233736156233
508.400276547412
508.39821581448405
508.3961551629668
508.3940945930483
508.3920341049163
508.38997369875847
508.3879133747623
508.38585313311546
508.3837929740057
508.3817328976211
508.37967290414963
508.37761299377917
508.3755531666977
508.3734934230936
508.37143376315476
508.3693741870693
508.367314695025
508.3652552872097
508.3631959638112
508.36113672501756
508.35907757101654
508.357018501996
508.3549595181437
508.35290061964724
508.350841806694
508.3487830794711
508.34672443816567
508.34466588296505
508.3426074140566
508.34054903162723
508.3384907358636
508.3364325269524
508.3343744050801
508.33231637043286
508.33025842319694
508.32820056355854
508.3261427917039
508.324085107819
508.32202751209
508.31997000470324
508.3179125858446
508.31585525569994
508.31379801445496
508.31174086229566
508.3096837994078
508.30762682597697
508.30556994218864
508.3035131482284
508.3014564442817
508.29939983053396
508.2973433071704
508.2952868743762
508.29323053233657
508.29117428123664
508.2891181212615
508.2870620525962
508.2850060754258
508.2829501899355
508.28089439631026
508.2788386947352
508.27678308539566
508.27472756847715
508.2726721441652
508.27061681264536
508.26856157410293
508.266506428723
508.2644513766909
508.26239641819166
508.2603415534104
508.2582867825322
508.25623210574213
508.2541775232255
508.25212303516764
508.2500686417536
508.2480143431685
508.2459601395974
508.2439060312254
508.2418520182373
508.239798100818
508.23774427915237
508.23569055342523
508.2336369238212
508.231583390525
508.22952995372134
508.2274766135952
508.2254233703313
508.2233702241149
508.2213171751314
508.21926422356614
508.21721136960423
508.21515861343096
508.21310595523187
508.2110533951925
508.20900093349815
508.20694857033413
508.20489630588554
508.2028441403377
508.20079207387585
508.1987401066856
508.1966882389522
508.19463647086104
508.1925848025976
508.1905332343472
508.1884817662951
508.1864303986267
508.1843791315275
508.1823279651828
508.1802768997777
508.17822593549727
508.1761750725266
508.17412431105095
508.1720736512557
508.17002309332634
508.16797263744866
508.1659222838082
508.16387203259046
508.161821883981
508.1597718381654
508.15772189532936
508.1556720556589
508.15362231934
508.1515726865589
508.14952315750156
508.147473732354
508.1454244113022
508.14337519453215
508.14132608222985
508.1392770745813
508.13722817177245
508.1351793739889
508.13313068141633
508.13108209424036
508.1290336126467
508.1269852368214
508.1249369669504
508.12288880321967
508.12084074581526
508.11879279492314
508.1167449507293
508.11469721341973
508.1126495831802
508.11060206019647
508.1085546446543
508.10650733673947
508.10446013663795
508.10241304453575
508.1003660606186
508.09831918507234
508.09627241808266
508.0942257598351
508.0921792105155
508.0901327703093
508.08808643940233
508.0860402179803
508.08399410622906
508.0819481043343
508.0799022124818
508.0778564308573
508.0758107596464
508.0737651990346
508.07171974920743
508.06967441035044
508.06762918264917
508.0655840662894
508.0635390614568
508.0614941683373
508.0594493871165
508.0574047179805
508.055360161115
508.05331571670627
508.0512713849405
508.04922716600413
508.0471830600836
508.0451390673654
508.043095188036
508.04105142228195
508.0390077702898
508.03696423224574
508.03492080833576
508.0328774987454
508.03083430365996
508.02879122326476
508.0267482577451
508.0247054072863
508.0226626720737
508.02062005229254
508.0185775481284
508.0165351597666
508.0144928873924
508.01245073119094
508.01040869134704
508.0083667680458
508.0063249614723
508.0042832718116
508.00224169924854
508.00020024396827
507.9981589061558
507.9961176859963
507.99407658367454
507.9920355993754
507.98999473328377
507.9879539855842
507.9859133564614
507.9838728461
507.98183245468454
507.9797921823995
507.977752029429
507.975711995957
507.9736720821677
507.97163228824525
507.9695926143738
507.9675530607378
507.9655136275219
507.9634743149106
507.9614351230887
507.95939605224066
507.957357102551
507.9553182742038
507.95327956738356
507.95124098227484
507.94920251906206
507.94716417792984
507.9451259590626
507.9430878626447
507.94104988886033
507.9390120378937
507.9369743099287
507.9349367051493
507.93289922373947
507.93086186588334
507.92882463176534
507.92678752156985
507.9247505354815
507.92271367368517
507.92067693636545
507.9186403237072
507.9166038358951
507.9145674731137
507.9125312355475
507.91049512338077
507.9084591367978
507.90642327598266
507.9043875411194
507.90235193239187
507.9003164499841
507.89828109407995
507.8962458648632
507.89421076251733
507.8921757872258
507.8901409391724
507.888106218541
507.88607162551557
507.88403716027983
507.8820028230175
507.8799686139123
507.87793453314794
507.87590058090814
507.8738667573764
507.8718330627362
507.8697994971708
507.867766060863
507.8657327539954
507.8636995767506
507.8616665293114
507.8596336118603
507.85760082458
507.8555681676528
507.85353564126103
507.8515032455873
507.849470980814
507.84743884712316
507.84540684469675
507.84337497371644
507.8413432343639
507.839311626821
507.8372801512694
507.8352488078908
507.8332175968667
507.8311865183787
507.82915557260844
507.82712475973767
507.82509407994803
507.8230635334214
507.8210331203395
507.8190028408842
507.8169726952374
507.8149426835812
507.81291280609776
507.81088306296897
507.80885345437673
507.80682398050294
507.8047946415295
507.8027654376385
507.8007363690124
507.7987074358332
507.7966786382833
507.79464997654486
507.79262145079974
507.79059306122986
507.7885648080169
507.78653669134246
507.7845087113883
507.78248086833605
507.7804531623674
507.778425593664
507.77639816240753
507.7743708687799
507.772343712963
507.7703166951385
507.76828981548783
507.76626307419247
507.7642364714336
507.76221000739247
507.7601836822503
507.75815749618823
507.7561314493878
507.7541055420302
507.75207977429636
507.7500541463671
507.748028658423
507.74600331064426
507.74397810321125
507.7419530363038
507.7399281101018
507.73790332478484
507.7358786805323
507.73385417752365
507.731829815938
507.7298055959543
507.7277815177513
507.72575758150765
507.7237337874021
507.7217101356134
507.71968662632025
507.71766325970134
507.71564003593517
507.7136169552002
507.711594017675
507.709571223538
507.70754857296765
507.7055260661423
507.70350370324036
507.70148148444036
507.6994594099208
507.6974374798601
507.6954156944371
507.69339405383016
507.6913725582176
507.68935120777746
507.68733000268753
507.6853089431256
507.6832880292693
507.68126726129594
507.6792466393824
507.67722616370565
507.6752058344425
507.67318565177015
507.6711656158657
507.66914572690644
507.66712598506956
507.6651063905322
507.66308694347117
507.66106764406345
507.6590484924857
507.65702948891453
507.65501063352644
507.6529919264983
507.6509733680068
507.64895495822816
507.6469366973388
507.6449185855149
507.64290062293276
507.6408828097685
507.6388651461982
507.6368476323976
507.63483026854215
507.6328130548077
507.6307959913697
507.6287790784038
507.62676231608543
507.62474570459017
507.62272924409353
507.62071293477106
507.6186967767983
507.61668077035074
507.6146649156037
507.61264921273255
507.61063366191274
507.60861826331984
507.6066030171294
507.6045879235169
507.6025729826579
507.6005581947279
507.5985435599025
507.59652907835743
507.59451475026844
507.5925005758115
507.59048655516267
507.5884726884981
507.586458975994
507.5844454178266
507.5824320141721
507.58041876520656
507.5784056711059
507.5763927320461
507.5743799482034
507.572367319754
507.57035484687367
507.5683425297384
507.5663303685242
507.564318363407
507.5623065145628
507.5602948221674
507.5582832863963
507.55627190742484
507.5542606854283
507.5522496205822
507.55023871306184
507.54822796304256
507.5462173706999
507.5442069362093
507.54219665974665
507.5401865414874
507.53817658160733
507.5361667802822
507.53415713768777
507.5321476539998
507.5301383293943
507.5281291640472
507.5261201581343
507.52411131183135
507.5221026253141
507.5200940987586
507.51808573234075
507.5160775262366
507.5140694806221
507.51206159567323
507.5100538715658
507.5080463084755
507.50603890657817
507.5040316660493
507.50202458706417
507.5000176697981
507.49801091442646
507.4960043211245
507.4939978900675
507.49199162143077
507.48998551538966
507.4879795721197
507.48597379179614
507.48396817459457
507.4819627206905
507.4799574302592
507.47795230347583
507.4759473405154
507.473942541553
507.47193790676397
507.46993343632334
507.467929130406
507.46592498918653
507.46392101283936
507.46191720153865
507.45991355545857
507.45791007477305
507.45590675965605
507.4539036102815
507.4519006268231
507.44989780945457
507.44789515834964
507.445892673682
507.4438903556256
507.4418882043544
507.4398862200421
507.43788440286244
507.4358827529891
507.43388127059575
507.4318799558562
507.42987880894407
507.42787783003314
507.4258770192969
507.42387637690877
507.4218759030423
507.4198755978707
507.41787546156706
507.4158754943044
507.4138756962557
507.41187606759377
507.40987660849123
507.4078773191204
507.40587819965367
507.40387925026334
507.401880471122
507.39988186240225
507.39788342427664
507.39588515691776
507.39388706049795
507.39188913518956
507.38989138116517
507.38789379859736
507.3858963876587
507.3838991485218
507.38190208135916
507.3799051863432
507.377908463646
507.3759119134397
507.373915535896
507.3719193311863
507.3699232994818
507.36792744095396
507.3659317557742
507.3639362441138
507.3619409061439
507.35994574203573
507.3579507519603
507.3559559360883
507.3539612945908
507.35196682763876
507.34997253540314
507.34797841805516
507.3459844757663
507.34399070870813
507.3419971170524
507.34000370097056
507.338010460634
507.3360173962144
507.33402450788344
507.3320317958128
507.3300392601741
507.32804690113903
507.3260547188795
507.3240627135674
507.3220708853744
507.3200792344717
507.3180877610305
507.316096465222
507.31410534721726
507.3121144071872
507.31012364530284
507.30813306173513
507.3061426566551
507.30415243023344
507.302162382641
507.3001725140484
507.29818282462656
507.29619331454614
507.2942039839779
507.29221483309243
507.2902258620602
507.28823707105175
507.2862484602374
507.28426002978745
507.28227177987196
507.280283710661
507.2782958223245
507.27630811503195
507.27432058895306
507.2723332442572
507.27034608111376
507.26835909969236
507.26637230016263
507.2643856826942
507.2623992474564
507.2604129946187
507.25842692435026
507.2564410368202
507.2544553321975
507.25246981065084
507.25048447234894
507.24849931746076
507.24651434615544
507.24452955860215
507.24254495497007
507.2405605354286
507.2385763001471
507.23659224929474
507.23460838304095
507.23262470155487
507.2306412050059
507.2286578935632
507.2266747673957
507.22469182667237
507.2227090715619
507.22072650223276
507.2187441188537
507.2167619215936
507.21477991062125
507.21279808610507
507.2108164482138
507.2088349971159
507.2068537329801
507.2048726559749
507.202891766269
507.20091106403106
507.19893054942986
507.1969502226343
507.19497008381336
507.19299013313594
507.1910103707712
507.1890307968881
507.1870514116556
507.18507221524237
507.18309320781714
507.1811143895484
507.1791357606046
507.177157321154
507.17517907136516
507.17320101140626
507.1712231414456
507.16924546165114
507.1672679721912
507.1652906732338
507.1633135649472
507.16133664749964
507.15935992105915
507.15738338579354
507.1554070418706
507.15343088945815
507.15145492872375
507.1494791598345
507.1475035829576
507.1455281982601
507.1435530059091
507.14157800607177
507.139603198915
507.13762858460564
507.1356541633104
507.1336799351959
507.13170590042887
507.12973205917615
507.12775841160465
507.12578495788125
507.12381169817263
507.1218386326452
507.1198657614657
507.11789308480047
507.1159206028158
507.1139483156776
507.1119762235519
507.11000432660467
507.1080326250019
507.10606111890957
507.10408980849365
507.1021186939204
507.10014777535616
507.09817705296746
507.0962065269207
507.0942361973821
507.0922660645176
507.09029612849326
507.088326389475
507.08635684762885
507.0843875031205
507.08241835611557
507.0804494067795
507.0784806552779
507.07651210177596
507.07454374643885
507.07257558943184
507.07060763092
507.06863987106817
507.066672310041
507.0647049480033
507.0627377851199
507.0607708215555
507.0588040574744
507.0568374930408
507.0548711284189
507.05290496377256
507.05093899926555
507.04897323506134
507.0470076713234
507.0450423082152
507.04307714590004
507.04111218454113
507.03914742430175
507.03718286534513
507.03521850783454
507.033254351933
507.03129039780356
507.0293266456092
507.027363095513
507.02539974767774
507.02343660226575
507.0214736594394
507.019510919361
507.0175483821931
507.0155860480984
507.01362391723933
507.01166198977853
507.00970026587834
507.0077387457011
507.0057774294089
507.0038163171639
507.0018554091282
506.99989470546393
506.9979342063334
506.995973911899
506.99401382232304
506.9920539377679
506.99009425839586
506.9881347843693
506.9861755158504
506.98421645300095
506.9822575959827
506.9802989449572
506.97834050008646
506.9763822615323
506.9744242294564
506.97246640402045
506.9705087853861
506.96855137371494
506.9665941691685
506.9646371719082
506.9626803820954
506.96072379989187
506.958767425459
506.95681125895817
506.95485530055066
506.95289955039766
506.9509440086606
506.9489886755009
506.94703355108027
506.9450786355601
506.94312392910183
506.94116943186714
506.93921514401745
506.93726106571444
506.9353071971195
506.93335353839393
506.93140008969885
506.9294468511955
506.9274938230451
506.9255410054086
506.92358839844724
506.9216360023222
506.91968381719494
506.9177318432269
506.9157800805792
506.91382852941274
506.9118771898882
506.90992606216605
506.9079751464071
506.90602444277215
506.9040739514219
506.90212367251706
506.90017360621846
506.8982237526866
506.896274112082
506.89432468456494
506.8923754702955
506.8904264694336
506.8884776821387
506.8865291085708
506.8845807488899
506.8826326032563
506.8806846718303
506.8787369547722
506.8767894522423
506.87484216440066
506.8728950914074
506.87094823342227
506.86900159060497
506.8670551631151
506.86510895111246
506.86316295475694
506.8612171742086
506.8592716096273
506.85732626117306
506.8553811290062
506.8534362132873
506.8514915141768
506.8495470318351
506.84760276642237
506.8456587180988
506.84371488702413
506.8417712733583
506.8398278772611
506.83788469889237
506.83594173841175
506.83399899597885
506.8320564717528
506.8301141658926
506.82817207855715
506.82623020990536
506.8242885600964
506.82234712928926
506.8204059176428
506.818464925316
506.81652415246754
506.81458359925614
506.8126432658405
506.81070315237935
506.80876325903137
506.80682358595504
506.80488413330886
506.80294490125107
506.8010058899397
506.799067099533
506.7971285301892
506.79519018206656
506.79325205532336
506.79131415011784
506.78937646660825
506.78743900495306
506.78550176531076
506.7835647478398
506.7816279526985
506.77969138004505
506.7777550300377
506.775818902835
506.77388299859535
506.77194731747727
506.770011859639
506.76807662523856
506.76614161443376
506.7642068273824
506.76227226424203
506.76033792517023
506.7584038103246
506.75646991986264
506.754536253942
506.75260281272017
506.7506695963548
506.7487366050034
506.7468038388231
506.74487129797103
506.7429389826041
506.74100689287866
506.73907502895145
506.7371433909791
506.7352119791183
506.7332807935254
506.73134983435693
506.72941910176905
506.72748859591775
506.72555831695945
506.72362826505037
506.7216984403467
506.7197688430042
506.7178394731786
506.71591033102595
506.7139814167024
506.7120527303641
506.71012427216715
506.70819604226745
506.70626804082076
506.7043402679826
506.70241272390854
506.70048540875405
506.69855832267444
506.69663146582457
506.69470483835926
506.6927784404336
506.6908522722026
506.6889263338214
506.68700062544485
506.68507514722796
506.6831498993258
506.68122488189306
506.67930009508405
506.67737553905295
506.67545121395347
506.67352711993954
506.6716032571651
506.66967962578406
506.66775622595014
506.66583305781705
506.66391012153827
506.661987417267
506.6600649451566
506.6581427053602
506.6562206980309
506.6542989233217
506.6523773813856
506.6504560723756
506.64853499644505
506.6466141537471
506.64469354443463
506.64277316866014
506.640853026576
506.6389331183343
506.6370134440872
506.63509400398675
506.6331747981849
506.63125582683324
506.6293370900837
506.62741858808795
506.6255003209976
506.62358228896437
506.6216644921401
506.61974693067623
506.6178296047242
506.6159125144354
506.61399565996135
506.61207904145294
506.6101626590612
506.60824651293706
506.6063306032315
506.6044149300958
506.6024994936811
506.60058429413834
506.59866933161857
506.5967546062727
506.59484011825157
506.59292586770584
506.5910118547861
506.589098079643
506.5871845424274
506.58527124329
506.5833581823813
506.58144535985207
506.57953277585307
506.57762043053503
506.57570832404895
506.5737964565458
506.57188482817674
506.56997343909325
506.5680622894465
506.56615137938775
506.56424070906814
506.5623302786389
506.560420088251
506.5585101380552
506.55660042820205
506.55469095884223
506.5527817301263
506.5508727422048
506.5489639952284
506.5470554893477
506.545147224713
506.5432392014743
506.5413314197815
506.53942387978464
506.5375165816338
506.53560952547923
506.5337027114715
506.5317961397609
506.5298898104975
506.5279837238313
506.5260778799127
506.52417227889214
506.52226692091995
506.5203618061464
506.5184569347216
506.5165523067958
506.5146479225191
506.51274378204175
506.5108398855141
506.50893623308593
506.5070328249071
506.5051296611275
506.5032267418967
506.5013240673643
506.4994216376799
506.49751945299295
506.49561751345254
506.4937158192081
506.49181437040875
506.4899131672039
506.4880122097427
506.4861114981743
506.48421103264786
506.4823108133123
506.4804108403164
506.4785111138085
506.47661163393695
506.47471240084974
506.4728134146949
506.47091467562063
506.4690161837748
506.4671179393051
506.4652199423597
506.46332219308624
506.4614246916324
506.45952743814564
506.4576304327736
506.4557336756636
506.4538371669628
506.451940906818
506.45004489537587
506.4481491327829
506.4462536191854
506.4443583547302
506.4424633395638
506.44056857383293
506.438674057684
506.43677979126323
506.4348857747168
506.43299200819047
506.43109849182997
506.42920522578083
506.4273122101886
506.4254194451985
506.4235269309561
506.4216346676069
506.4197426552962
506.4178508941693
506.4159593843717
506.41406812604896
506.41217711934655
506.4102863644098
506.4083958613842
506.40650561041525
506.4046156116483
506.4027258652284
506.40083637130033
506.398947130009
506.3970581414992
506.395169405916
506.3932809234045
506.3913926941095
506.3895047181759
506.38761699574843
506.3857295269722
506.3838423119921
506.3819553509529
506.38006864399927
506.378182191276
506.3762959929279
506.37441004909965
506.3725243599356
506.37063892558035
506.3687537461785
506.3668688218745
506.36498415281267
506.3630997391376
506.361215580994
506.35933167852613
506.35744803187845
506.3555646411951
506.35368150662
506.35179862829705
506.3499160063702
506.34803364098343
506.3461515322804
506.34426968040475
506.34238808550003
506.3405067477097
506.338625667177
506.33674484404514
506.3348642784574
506.33298397055705
506.3311039204873
506.3292241283914
506.3273445944121
506.3254653186923
506.3235863013747
506.3217075426023
506.319829042518
506.3179508012645
506.3160728189846
506.3141950958209
506.31231763191613
506.31044042741314
506.3085634824547
506.30668679718383
506.3048103717433
506.30293420627595
506.30105830092475
506.29918265583296
506.29730727114384
506.2954321470006
506.29355728354676
506.291682680926
506.28980833928176
506.2879342587571
506.28606043949503
506.28418688163833
506.28231358533003
506.28044055071314
506.27856777793045
506.27669526712475
506.2748230184386
506.2729510320148
506.27107930799616
506.269207846525
506.2673366477436
506.26546571179415
506.2635950388187
506.2617246289592
506.25985448235747
506.2579845991554
506.25611497949444
506.25424562351577
506.2523765313606
506.2505077031699
506.2486391390844
506.24677083924485
506.2449028037918
506.24303503286546
506.2411675266062
506.2393002851543
506.23743330864977
506.2355665972325
506.23370015104206
506.2318339702181
506.2299680548999
506.22810240522676
506.22623702133774
506.22437190337223
506.22250705146917
506.22064246576724
506.2187781464054
506.2169140935223
506.2150503072569
506.2131867877479
506.21132353513394
506.20946054955357
506.2075978311452
506.20573538004714
506.2038731963978
506.20201128033546
506.2001496319981
506.19828825152376
506.19642713905046
506.1945662947162
506.192705718659
506.19084541101665
506.1889853719267
506.18712560152653
506.1852660999532
506.1834068673436
506.1815479038348
506.179689209564
506.177830784668
506.1759726292837
506.1741147435482
506.1722571275984
506.17039978157095
506.1685427056025
506.16668589982964
506.1648293643889
506.1629730994164
506.16111710504833
506.15926138142095
506.1574059286704
506.1555507469327
506.1536958363438
506.1518411970394
506.1499868291555
506.1481327328279
506.14627890819224
506.1444253553839
506.14257207453807
506.1407190657899
506.1388663292744
506.1370138651264
506.13516167348075
506.13330975447207
506.13145810823517
506.12960673490466
506.12775563461537
506.12590480750237
506.1240542537007
506.12220397334545
506.12035396657166
506.11850423351416
506.11665477430756
506.1148055890865
506.11295667798527
506.1111080411383
506.10925967868
506.10741159074496
506.1055637774675
506.10371623898163
506.1018689754212
506.10002198691996
506.0981752736118
506.09632883563063
506.0944826731102
506.09263678618413
506.09079117498595
506.08894583964934
506.087100780308
506.0852559970956
506.08341149014564
506.08156725959157
506.07972330556686
506.07787962820476
506.07603622763827
506.07419310400064
506.0723502574251
506.0705076880447
506.0686653959924
506.0668233814008
506.06498164440245
506.06314018512967
506.0612990037148
506.05945810028993
506.0576174749867
506.0557771279366
506.05393705927077
506.05209726912017
506.050257757616
506.04841852488926
506.0465795710711
506.04474089629275
506.04290250068516
506.04106438437907
506.0392265475052
506.03738899019436
506.0355517125772
506.0337147147843
506.0318779969464
506.03004155919416
506.02820540165817
506.0263695244689
506.0245339277569
506.0226986116527
506.0208635762865
506.0190288217889
506.0171943482901
506.01536015592046
506.01352624481
506.0116926150888
506.0098592668869
506.00802620033414
506.0061934155601
506.00436091269444
506.0025286918665
506.00069675320515
505.99886509683915
505.99703372289696
505.9952026315068
505.9933718227967
505.99154129689464
505.98971105392866
505.98788109402653
505.98605141731605
505.9842220239252
505.98239291398204
505.9805640876141
505.9787355449487
505.97690728611315
505.9750793112348
505.97325162044126
505.9714242138598
505.96959709161797
505.9677702538429
505.96594370066146
505.96411743220074
505.96229144858785
505.9604657499499
505.95864033641374
505.95681520810604
505.95499036515344
505.9531658076826
505.9513415358201
505.9495175496929
505.94769384942765
505.94587043515094
505.9440473069892
505.9422244650689
505.94040190951637
505.9385796404581
505.93675765802027
505.9349359623293
505.9331145535116
505.9312934316936
505.9294725970019
505.92765204956345
505.9258317895051
505.9240118169537
505.9221921320361
505.92037273487927
505.91855362561023
505.91673480435566
505.91491627124196
505.91309802639535
505.91128006994154
505.9094624020063
505.9076450227153
505.90582793219437
505.9040111305692
505.9021946179655
505.90037839450906
505.89856246032537
505.8967468155399
505.89493146027803
505.89311639466496
505.891301618826
505.8894871328862
505.8876729369704
505.88585903120315
505.8840454157091
505.88223209061266
505.88041905603814
505.8786063121099
505.87679385895194
505.8749816966881
505.87316982544235
505.87135824533857
505.86954695650047
505.86773595905174
505.86592525311585
505.86411483881625
505.8623047162764
505.8604948856196
505.85868534696897
505.85687610044783
505.85506714617964
505.8532584842876
505.8514501148952
505.8496420381257
505.8478342541025
505.84602676294867
505.84421956478695
505.84241265974015
505.8406060479308
505.8387997294815
505.83699370451427
505.8351879731513
505.8333825355144
505.8315773917252
505.8297725419052
505.82796798617574
505.8261637246583
505.8243597574742
505.82255608474475
505.82075270659107
505.8189496231339
505.817146834494
505.8153443407921
505.8135421421489
505.81174023868493
505.8099386305207
505.808137317777
505.80633630057446
505.80453557903365
505.8027351532751
505.80093502341924
505.79913518958665
505.7973356518978
505.79553641047323
505.7937374654332
505.791938816898
505.79014046498787
505.78834240982314
505.7865446515241
505.78474719021096
505.7829500260041
505.78115315902346
505.77935658938895
505.7775603172204
505.77576434263756
505.7739686657603
505.7721732867085
505.7703782056017
505.76858342255923
505.76678893770054
505.76499475114474
505.763200863011
505.7614072734184
505.75961398248637
505.75782099033427
505.75602829708123
505.7542359028464
505.75244380774893
505.75065201190773
505.7488605154415
505.7470693184689
505.7452784211082
505.74348782347784
505.74169752569605
505.73990752788086
505.73811783015003
505.73632843262135
505.73453933541236
505.73275053864063
505.7309620424237
505.7291738468789
505.7273859521233
505.72559835827406
505.72381106544776
505.72202407376085
505.7202373833295
505.7184509942697
505.71666490669713
505.714879120728
505.71309363647833
505.711308454064
505.7095235736008
505.7077389952044
505.7059547189906
505.70417074507486
505.7023870735727
505.70060370459964
505.69882063827094
505.69703787470166
505.6952554140071
505.69347325630247
505.6916914017029
505.6899098503234
505.6881286022792
505.6863476576855
505.68456701665696
505.68278667930826
505.68100664575377
505.67922691610784
505.67744749048506
505.67566836900005
505.6738895517674
505.6721110389019
505.6703328305184
505.66855492673153
505.66677732765584
505.66500003340593
505.6632230440962
505.66144635984074
505.6596699807535
505.6578939069484
505.65611813853934
505.65434267564024
505.65256751836523
505.65079266682847
505.64901812114385
505.6472438814253
505.64546994778675
505.64369632034186
505.6419229992043
505.6401499844876
505.63837727630516
505.6366048747707
505.6348327799981
505.63306099210104
505.631289511193
505.6295183373875
505.62774747079766
505.6259769115368
505.62420665971786
505.62243671545366
505.62066707885697
505.61889775004056
505.61712872911744
505.6153600162006
505.6135916114033
505.61182351483876
505.61005572661975
505.60828824685905
505.6065210756692
505.60475421316255
505.6029876594514
505.6012214146481
505.5994554788649
505.59768985221444
505.59592453480946
505.5941595267625
505.5923948281859
505.5906304391917
505.5888663598919
505.5871025903982
505.5853391308224
505.58357598127554
505.5818131418689
505.5800506127134
505.57828839392005
505.57652648559997
505.5747648878644
505.5730036008242
505.57124262459024
505.5694819592734
505.56772160498485
505.5659615618356
505.56420182993634
505.5624424093978
505.56068330033077
505.5589245028457
505.5571660170531
505.5554078430632
505.5536499809864
505.55189243093287
505.5501351930129
505.54837826733706
505.5466216540158
505.54486535315937
505.54310936487786
505.5413536892811
505.5395983264791
505.53784327658195
505.5360885396997
505.53433411594233
505.5325800054202
505.5308262082435
505.5290727245226
505.5273195543675
505.52556669788805
505.52381415519403
505.5220619263953
505.5203100116014
505.51855841092174
505.51680712446546
505.5150561523417
505.51330549465956
505.5115551515282
505.5098051230566
505.5080554093536
505.5063060105281
505.504556926689
505.5028081579453
505.50105970440586
505.4993115661798
505.4975637433763
505.49581623610425
505.49406904447255
505.4923221685899
505.490575608565
505.4888293645065
505.4870834365231
505.4853378247233
505.48359252921546
505.4818475501079
505.48010288750856
505.4783585415255
505.47661451226645
505.474870799839
505.47312740435086
505.47138432590964
505.46964156462263
505.46789912059717
505.46615699394056
505.46441518476036
505.4626736931639
505.46093251925845
505.4591916631514
505.45745112495
505.45571090476164
505.45397100269315
505.45223141885117
505.45049215334234
505.44875320627307
505.44701457775
505.44527626787954
505.4435382767681
505.4418006045223
505.44006325124883
505.4383262170543
505.4365895020451
505.43485310632764
505.43311703000813
505.431381273193
505.4296458359886
505.4279107185014
505.42617592083775
505.4244414431041
505.4227072854069
505.4209734478527
505.4192399305482
505.41750673360025
505.4157738571157
505.4140413012017
505.41230906596525
505.4105771515133
505.4088455579524
505.40711428538907
505.40538333392965
505.40365270368034
505.40192239474754
505.40019240723745
505.39846274125625
505.3967333969099
505.39500437430434
505.39327567354553
505.39154729473944
505.3898192379918
505.3880915034081
505.3863640910936
505.3846370011536
505.38291023369334
505.38118378881813
505.37945766663324
505.3777318672437
505.3760063907546
505.3742812372709
505.37255640689773
505.3708318997401
505.3691077159028
505.3673838554905
505.36566031860775
505.3639371053591
505.36221421584924
505.36049165018267
505.358769408464
505.35704749079787
505.3553258972888
505.3536046280417
505.3518836831611
505.35016306275156
505.34844276691797
505.3467227957649
505.3450031493969
505.3432838279184
505.3415648314335
505.33984616004636
505.3381278138613
505.33640979298275
505.334692097515
505.3329747275627
505.33125768323066
505.32954096462345
505.32782457184544
505.3261085050008
505.3243927641936
505.3226773495278
505.32096226110707
505.31924749903465
505.3175330634135
505.3158189543467
505.31410517193694
505.31239171628704
505.31067858749975
505.30896578567786
505.3072533109241
505.3055411633411
505.30382934303157
505.30211785009806
505.3004066846431
505.2986958467693
505.2969853365789
505.2952751541741
505.2935652996566
505.2918557731282
505.2901465746904
505.28843770444496
505.28672916249343
505.2850209489377
505.28331306387963
505.2816055074211
505.27989827966417
505.2781913807107
505.2764848106624
505.2747785696208
505.27307265768786
505.2713670749656
505.26966182155616
505.26795689756113
505.2662523030822
505.2645480382207
505.2628441030781
505.2611404977556
505.25943722235456
505.2577342769764
505.2560316617228
505.25432937669507
505.2526274219945
505.2509257977217
505.2492245039773
505.2475235408617
505.2458229084755
505.24412260691884
505.2424226362921
505.24072299669547
505.2390236882293
505.23732471099356
505.23562606508835
505.2339277506137
505.23222976766965
505.230532116356
505.2288347967726
505.22713780901904
505.2254411531949
505.2237448293997
505.2220488377327
505.2203531782927
505.2186578511787
505.2169628564893
505.21526819432324
505.21357386477916
505.21187986795576
505.2101862039515
505.2084928728648
505.20679987479366
505.2051072098359
505.20341487808923
505.20172287965147
505.2000312146206
505.1983398830946
505.1966488851715
505.1949582209488
505.1932678905241
505.1915778939949
505.18988823145855
505.18819890301233
505.18650990875335
505.1848212487789
505.1831329231861
505.18144493207205
505.1797572755338
505.1780699536682
505.17638296657196
505.1746963143414
505.17300999707277
505.17132401486197
505.1696383678052
505.16795305599885
505.16626807953935
505.16458343852287
505.16289913304536
505.16121516320254
505.1595315290904
505.15784823080503
505.15616526844246
505.1544826420986
505.1528003518695
505.1511183978507
505.1494367801379
505.1477554988264
505.14607455401165
505.14439394578835
505.14271367425135
505.1410337394957
505.1393541416164
505.1376748807088
505.13599595686765
505.1343173701878
505.13263912076377
505.1309612086902
505.1292836340617
505.1276063969726
505.12592949751706
505.1242529357892
505.1225767118831
505.12090082589293
505.1192252779131
505.1175500680379
505.1158751963617
505.11420066297865
505.1125264679829
505.1108526114683
505.10917909352884
505.10750591425835
505.105833073751
505.1041605721009
505.10248840940244
505.10081658574995
505.0991451012376
505.09747395595923
505.0958031500088
505.09413268348
505.09246255646644
505.09079276906186
505.08912332135947
505.0874542134525
505.08578544543434
505.0841170173983
505.08244892943753
505.0807811816453
505.07911377411506
505.07744670694
505.0757799802134
505.07411359402863
505.072447548479
505.07078184365787
505.06911647965876
505.0674514565749
505.06578677449943
505.0641224335259
505.06245843374745
505.06079477525736
505.0591314581486
505.05746848251397
505.0558058484462
505.05414355603807
505.0524816053821
505.0508199965707
505.0491587296958
505.04749780484985
505.0458372221251
505.0441769816139
505.04251708340826
505.04085752760056
505.0391983142831
505.0375394435482
505.03588091548795
505.0342227301944
505.03256488775946
505.03090738827495
505.0292502318325
505.02759341852357
505.0259369484397
505.02428082167285
505.0226250383148
505.02096959845767
505.01931450219354
505.0176597496147
505.01600534081354
505.0143512758825
505.01269755491444
505.01104417800184
505.00939114523703
505.00773845671233
505.0060861125203
505.00443411275364
505.00278245750496
505.001131146867
504.99948018093255
504.9978295597946
504.99617928354587
504.9945293522792
504.9928797660873
504.991230525063
504.98958162929875
504.98793307888695
504.9862848739199
504.98463701448986
504.9829895006894
504.9813423326109
504.9796955103461
504.97804903398696
504.9764029036253
504.9747571193527
504.97311168126066
504.9714665894405
504.9698218439835
504.96817744498094
504.9665333925243
504.96488968670474
504.96324632761343
504.96160331534156
504.95996064998053
504.95831833162174
504.95667636035637
504.95503473627537
504.95339345946945
504.9517525300291
504.9501119480449
504.9484717136072
504.9468318268064
504.94519228773265
504.9435530964763
504.9419142531276
504.9402757577766
504.9386376105133
504.93699981142754
504.93536236060913
504.9337252581479
504.9320885041334
504.930452098655
504.92881604180184
504.9271803336628
504.92554497432684
504.9239099638826
504.9222753024187
504.9206409900239
504.91900702678686
504.9173734127962
504.9157401481407
504.91410723290915
504.9124746671905
504.91084245107345
504.90921058464664
504.90757906799854
504.90594790121736
504.9043170843911
504.90268661760774
504.90105650095506
504.89942673452083
504.8977973183928
504.8961682526585
504.8945395374053
504.89291117272023
504.89128315869016
504.88965549540194
504.88802818294243
504.8864012213985
504.88477461085677
504.88314835140386
504.8815224431264
504.87989688611106
504.8782716804444
504.8766468262129
504.87502232350244
504.87339817239877
504.8717743729876
504.87015092535466
504.8685278295859
504.86690508576726
504.8652826939847
504.8636606543241
504.86203896687175
504.86041763171374
504.8587966489363
504.8571760186253
504.85555574086675
504.8539358157466
504.85231624335074
504.8506970237654
504.8490781570765
504.84745964337003
504.8458414827319
504.84422367524803
504.8426062210044
504.8409891200872
504.8393723725824
504.8377559785756
504.83613993815266
504.83452425139944
504.8329089184017
504.83129393924537
504.8296793140164
504.828065042801
504.8264511256848
504.8248375627534
504.82322435409196
504.82161149978583
504.8199989999205
504.8183868545814
504.81677506385404
504.8151636278237
504.8135525465757
504.81194182019544
504.81033144876824
504.8087214323789
504.807111771112
504.80550246505186
504.8038935142829
504.8022849188894
504.8006766789558
504.7990687945662
504.79746126580426
504.7958540927534
504.7942472754969
504.7926408141177
504.79103470869836
504.7894289593212
504.78782356606825
504.7862185290214
504.7846138482623
504.78300952387235
504.7814055559329
504.7798019445254
504.7781986897312
504.7765957916315
504.77499325030726
504.77339106583963
504.7717892383098
504.7701877677987
504.76858665438726
504.76698589815646
504.765385499187
504.7637854575594
504.76218577335385
504.76058644665045
504.7589874775292
504.75738886606996
504.7557906123525
504.7541927164566
504.7525951784621
504.75099799844884
504.7494011764966
504.7478047126849
504.7462086070934
504.74461285980146
504.7430174708884
504.74142244043355
504.7398277685163
504.738233455216
504.7366395006118
504.73504590478274
504.7334526678078
504.7318597897656
504.73026727073466
504.7286751107931
504.727083310019
504.72549186849005
504.7239007862838
504.72231006347806
504.72071970015054
504.719129696379
504.71754005224125
504.7159507678148
504.71436184317736
504.71277327840653
504.7111850735798
504.7095972287748
504.70800974406893
504.7064226195398
504.7048358552647
504.70324945132074
504.70166340778496
504.7000777247347
504.698492402247
504.6969074403987
504.69532283926674
504.69373859892767
504.6921547194579
504.6905712009336
504.688988043431
504.68740524702594
504.6858228117944
504.68424073781216
504.68265902515463
504.68107767389733
504.67949668411575
504.67791605588513
504.676335789281
504.67475588437856
504.6731763412531
504.67159715998014
504.6700183406351
504.66843988329333
504.66686178803
504.66528405492045
504.6637066840401
504.6621296754645
504.66055302926907
504.6589767455291
504.6574008243201
504.6558252657178
504.65425006979785
504.6526752366358
504.65110076630685
504.6495266588861
504.6479529144485
504.6463795330692
504.64480651482336
504.64323385978605
504.6416615680321
504.640089639636
504.63851807467245
504.6369468732157
504.63537603533996
504.6338055611193
504.63223545062783
504.63066570393994
504.62909632112974
504.62752730227135
504.6259586474389
504.6243903567065
504.6228224301483
504.6212548678386
504.6196876698518
504.6181208362625
504.6165543671448
504.61498826257275
504.61342252262057
504.6118571473621
504.6102921368713
504.608727491222
504.60716321048767
504.60559929474175
504.6040357440579
504.6024725585098
504.60090973817114
504.59934728311555
504.59778519341694
504.5962234691492
504.5946621103865
504.5931011172031
504.5915404896732
504.58998022787114
504.5884203318715
504.5868608017488
504.58530163757746
504.5837428394318
504.5821844073862
504.5806263415152
504.5790686418934
504.5775113085954
504.57595434169593
504.5743977412699
504.572841507392
504.57128564013715
504.5697301395803
504.5681750057963
504.5666202388602
504.565065838847
504.56351180583147
504.5619581398887
504.5604048410935
504.5588519095206
504.5572993452447
504.5557471483403
504.55419531888197
504.5526438569441
504.5510927626008
504.5495420359264
504.54799167699525
504.54644168588175
504.5448920626602
504.543342807405
504.54179392019046
504.5402454010907
504.5386972501799
504.53714946753234
504.5356020532222
504.53405500732356
504.53250832991034
504.53096202105644
504.529416080836
504.5278705093233
504.5263253065925
504.5247804727178
504.5232360077732
504.52169191183293
504.52014818497105
504.5186048272617
504.5170618387788
504.5155192195962
504.5139769697878
504.5124350894275
504.5108935785893
504.50935243734693
504.5078116657744
504.50627126394534
504.5047312319332
504.5031915698114
504.50165227765365
504.5001133555338
504.4985748035258
504.4970366217035
504.4954988101406
504.49396136891073
504.49242429808737
504.49088759774395
504.4893512679537
504.4878153087898
504.48627972032523
504.48474450263325
504.4832096557868
504.48167517985894
504.48014107492236
504.47860734104984
504.47707397831437
504.4755409867889
504.4740083665465
504.4724761176601
504.47094424020247
504.4694127342466
504.46788159986545
504.4663508371316
504.4648204461173
504.4632904268949
504.4617607795369
504.4602315041161
504.45870260070524
504.45717406937683
504.4556459102032
504.4541181232569
504.4525907086104
504.4510636663365
504.4495369965082
504.4480106991982
504.44648477447913
504.44495922242345
504.4434340431037
504.4419092365922
504.44038480296126
504.43886074228317
504.43733705463046
504.4358137400757
504.4342907986911
504.4327682305491
504.43124603572164
504.4297242142809
504.4282027662989
504.42668169184753
504.4251609909986
504.423640663824
504.4221207103956
504.4206011307849
504.41908192506344
504.41756309330253
504.4160446355736
504.41452655194826
504.41300884249813
504.41149150729484
504.4099745464098
504.40845795991436
504.4069417478797
504.40542591037706
504.4039104474773
504.4023953592514
504.40088064577003
504.3993663071042
504.39785234332476
504.39633875450295
504.3948255407097
504.39331270201546
504.39180023849053
504.39028815020515
504.3887764372298
504.38726509963476
504.3857541374898
504.38424355086477
504.38273333982943
504.3812235044538
504.3797140448082
504.37820496096265
504.37669625298736
504.3751879209524
504.37367996492776
504.3721723849835
504.3706651811899
504.36915835361697
504.3676519023347
504.3661458274132
504.3646401289225
504.36313480693275
504.36162986151453
504.3601252927383
504.3586211006748
504.35711728539445
504.3556138469676
504.3541107854644
504.35260810095497
504.35110579350953
504.34960386319835
504.3481023100917
504.3466011342598
504.34510033577317
504.3435999147023
504.3420998711176
504.3406002050897
504.33910091668895
504.3376020059859
504.33610347305125
504.3346053179557
504.3331075407698
504.33161014156417
504.3301131204096
504.3286164773767
504.3271202125361
504.32562432595796
504.3241288177128
504.32263368787085
504.3211389365024
504.31964456367746
504.31815056946584
504.31665695393735
504.315163717162
504.3136708592099
504.31217838015095
504.31068628005505
504.309194558992
504.30770321703153
504.3062122542435
504.30472167069775
504.3032314664638
504.301741641611
504.30025219620893
504.2987631303272
504.29727444403557
504.2957861374041
504.29429821050303
504.29281066340263
504.29132349617294
504.28983670888397
504.28835030160553
504.28686427440744
504.2853786273597
504.28389336053215
504.28240847399434
504.2809239678161
504.2794398420672
504.2779560968172
504.27647273213574
504.27498974809237
504.2735071447569
504.27202492219885
504.27054308048787
504.2690616196935
504.26758053988533
504.2660998411327
504.26461952350496
504.26313958707124
504.2616600319004
504.2601808580614
504.2587020656233
504.25722365465504
504.2557456252255
504.2542679774035
504.25279071125783
504.25131382685686
504.24983732426904
504.2483612035628
504.2468854648066
504.2454101080689
504.24393513341806
504.24246054092237
504.2409863306498
504.2395125026683
504.23803905704585
504.2365659938507
504.2350933131511
504.2336210150154
504.2321490995123
504.23067756671026
504.2292064166777
504.22773564948307
504.2262652651948
504.22479526388156
504.223325645612
504.22185641045485
504.2203875584787
504.2189190897525
504.2174510043451
504.2159833023254
504.21451598376234
504.21304904872477
504.2115824972816
504.21011632950194
504.20865054545493
504.2071851452099
504.20572012883645
504.2042554964039
504.2027912479814
504.2013273836378
504.19986390344206
504.1984008074628
504.1969380957685
504.19547576842774
504.1940138255093
504.19255226708174
504.1910910932136
504.1896303039732
504.18816989942934
504.1867098796506
504.1852502447059
504.18379099466415
504.1823321295942
504.1808736495652
504.1794155546463
504.17795784490636
504.17650052041404
504.17504358123824
504.17358702744787
504.1721308591116
504.17067507629804
504.1692196790759
504.1677646675139
504.1663100416804
504.1648558016441
504.1634019474734
504.16194847923657
504.1604953970018
504.1590427008375
504.1575903908122
504.1561384669942
504.15468692945205
504.15323577825393
504.1517850134685
504.15033463516465
504.14888464341107
504.14743503827617
504.14598581982864
504.14453698813736
504.143088543271
504.14164048529824
504.14019281428773
504.1387455303079
504.13729863342724
504.1358521237139
504.13440600123613
504.13296026606236
504.1315149182608
504.1300699578994
504.12862538504646
504.1271811997699
504.1257374021377
504.12429399221764
504.1228509700775
504.12140833578496
504.1199660894081
504.11852423101504
504.11708276067384
504.11564167845245
504.1142009844191
504.1127606786422
504.1113207611902
504.10988123213156
504.1084420915349
504.10700333946875
504.10556497600146
504.10412700120173
504.10268941513823
504.1012522178794
504.09981540949366
504.09837899004947
504.09694295961526
504.0955073182595
504.09407206605056
504.09263720305694
504.09120272934683
504.08976864498845
504.08833495005
504.0869016445997
504.0854687287058
504.08403620243666
504.08260406586055
504.08117231904566
504.0797409620602
504.0783099949724
504.0768794178507
504.0754492307633
504.0740194337784
504.07259002696424
504.071161010389
504.0697323841207
504.0683041482273
504.0668763027768
504.06544884783716
504.0640217834766
504.0625951097636
504.06116882676656
504.0597429345539
504.05831743319413
504.05689232275563
504.0554676033071
504.0540432749174
504.0526193376552
504.0511957915892
504.04977263678825
504.04834987332106
504.0469275012565
504.0455055206635
504.04408393161134
504.0426627341694
504.04124192840686
504.03982151439277
504.0384014921963
504.0369818618865
504.0355626235323
504.03414377720264
504.0327253229666
504.0313072608931
504.0298895910512
504.02847231351006
504.0270554283388
504.0256389356068
504.0242228353834
504.0228071277379
504.0213918127397
504.0199768904579
504.01856236096137
504.01714822431904
504.0157344805998
504.0143211298723
504.01290817220524
504.0114956076675
504.0100834363277
504.008671658255
504.0072602735188
504.00584928218814
504.0044386843322
504.0030284800198
504.0016186693199
504.00020925230115
503.9988002290322
503.99739159958153
503.99598336401755
503.9945755224089
503.9931680748243
503.99176102133265
503.9903543620028
503.98894809690364
503.9875422261043
503.98613674967396
503.9847316676817
503.9833269801968
503.9819226872885
503.9805187890256
503.97911528547684
503.9777121767106
503.97630946279537
503.97490714379956
503.9735052197916
503.9721036908402
503.97070255701396
503.9693018183816
503.96790147501224
503.96650152697475
503.96510197433827
503.96370281717213
503.9623040555459
503.9609056895292
503.9595077191916
503.95811014460287
503.9567129658328
503.9553161829515
503.9539197960287
503.9525238051342
503.95112821033786
503.94973301170944
503.948338209319
503.94694380323654
503.9455497935321
503.94415618027574
503.9427629635377
503.9413701433882
503.93997771989757
503.93858569313625
503.93719406317473
503.9358028300835
503.9344119939328
503.93302155479273
503.93163151273325
503.9302418678242
503.92885262013556
503.9274637697374
503.92607531669955
503.92468726109155
503.92329960298275
503.9219123424423
503.92052547953904
503.9191390143419
503.9177529469198
503.9163672773416
503.91498200567594
503.91359713199154
503.91221265635704
503.91082857884135
503.90944489951335
503.90806161844216
503.90667873569714
503.90529625134764
503.90391416546277
503.9025324781114
503.90115118936274
503.8997702992858
503.8983898079498
503.89700971542356
503.895630021776
503.8942507270758
503.89287183139186
503.8914933347928
503.8901152373471
503.8887375391232
503.8873602401893
503.8859833406136
503.88460684046436
503.88323073980973
503.88185503871796
503.88047973725725
503.8791048354958
503.87773033350186
503.8763562313436
503.8749825290895
503.8736092268082
503.87223632456835
503.8708638224391
503.8694917204898
503.8681200187898
503.86674871740865
503.8653778164162
503.8640073158822
503.862637215876
503.8612675164668
503.85989821772364
503.8585293197157
503.8571608225118
503.8557927261809
503.8544250307916
503.85305773641244
503.85169084311156
503.8503243509574
503.84895826001843
503.84759257036285
503.8462272820593
503.8448623951765
503.8434979097831
503.8421338259475
503.8407701437384
503.8394068632242
503.8380439844732
503.8366815075535
503.8353194325334
503.83395775948134
503.8325964884659
503.8312356195556
503.8298751528189
503.8285150883239
503.8271554261387
503.8257961663312
503.8244373089699
503.82307885412297
503.8217208018589
503.82036315224605
503.81900590535315
503.81764906124886
503.81629262000183
503.81493658168074
503.81358094635425
503.81222571409126
503.81087088496065
503.80951645903156
503.8081624363731
503.8068088170544
503.80545560114456
503.8041027887127
503.802750379828
503.80139837455954
503.80004677297643
503.7986955751478
503.79734478114256
503.7959943910296
503.794644404878
503.79329482275716
503.7919456447362
503.790596870884
503.7892485012694
503.7879005359614
503.7865529750288
503.7852058185408
503.7838590665667
503.7825127191759
503.78116677643743
503.7798212384207
503.77847610519484
503.77713137682895
503.7757870533919
503.77444313495266
503.77309962158006
503.7717565133428
503.77041381030995
503.7690715125509
503.767729620135
503.76638813313184
503.76504705161096
503.76370637564173
503.7623661052935
503.7610262406356
503.7596867817374
503.75834772866824
503.7570090814975
503.75567084029444
503.7543330051285
503.752995576069
503.75165855318505
503.7503219365458
503.7489857262203
503.7476499222778
503.74631452478775
503.74497953382
503.7436449494446
503.7423107717318
503.74097700075185
503.73964363657524
503.7383106792727
503.73697812891487
503.7356459855728
503.73431424931755
503.73298292022037
503.7316519983524
503.7303214837848
503.72899137658874
503.72766167683517
503.726332384595
503.7250034999395
503.7236750229397
503.72234695366683
503.72101929219184
503.71969203858566
503.71836519291946
503.7170387552644
503.71571272569145
503.7143871042713
503.71306189107486
503.7117370861731
503.71041268963677
503.70908870153653
503.70776512194334
503.70644195092814
503.70511918856164
503.7037968349148
503.70247489005874
503.70115335406445
503.6998322270026
503.69851150894397
503.6971911999592
503.6958713001188
503.6945518094931
503.693232728152
503.6919140561654
503.6905957936033
503.6892779405357
503.6879604970329
503.6866434631652
503.685326839003
503.68401062461635
503.6826948200753
503.68137942545013
503.68006444081107
503.6787498662284
503.6774357017723
503.6761219475129
503.67480860352
503.6734956698633
503.6721831466127
503.670871033838
503.669559331609
503.6682480399952
503.66693715906626
503.66562668889196
503.6643166295419
503.6630069810856
503.66169774359264
503.6603889171324
503.65908050177427
503.65777249758753
503.6564649046413
503.65515772300455
503.6538509527461
503.65254459393464
503.65123864663906
503.64993311092803
503.6486279868702
503.64732327453453
503.64601897398984
503.64471508530505
503.6434116085493
503.64210854379144
503.6408058911004
503.63950365054507
503.63820182219433
503.63690040611687
503.63559940238156
503.6342988110573
503.6329986322128
503.63169886591663
503.6303995122378
503.62910057124486
503.6278020430068
503.6265039275927
503.62520622507145
503.6239089355124
503.6226120589847
503.62131559555723
503.6200195452991
503.61872390827966
503.61742868456804
503.6161338742331
503.6148394773438
503.61354549396924
503.6122519241783
503.61095876803984
503.6096660256226
503.60837369699493
503.60708178222535
503.6057902813825
503.60449919453526
503.60320852175255
503.60191826310324
503.60062841865624
503.59933898848067
503.59804997264587
503.59676137122096
503.5954731842751
503.59418541187733
503.5928980540971
503.59161111100366
503.5903245826664
503.58903846915473
503.5877527705379
503.58646748688534
503.5851826182666
503.5838981647512
503.582614126409
503.58133050331
503.5800472955243
503.57876450312165
503.57748212617184
503.5762001647447
503.57491861891026
503.57363748873854
503.5723567742996
503.5710764756634
503.56979659290005
503.56851712607954
503.5672380752719
503.565959440547
503.5646812219745
503.56340341962436
503.5621260335661
503.560849063869
503.5595725106025
503.5582963738359
503.5570206536386
503.55574535007963
503.5544704632284
503.55319599315453
503.5519219399275
503.5506483036172
503.5493750842934
503.54810228202587
503.54682989688445
503.54555792893893
503.54428637825913
503.54301524491484
503.54174452897564
503.54047423051134
503.5392043495917
503.5379348862866
503.5366658406656
503.5353972127982
503.5341290027543
503.5328612106034
503.53159383641514
503.5303268802588
503.5290603422038
503.52779422231947
503.52652852067513
503.5252632373399
503.52399837238295
503.52273392587335
503.52146989788025
503.52020628847254
503.5189430977191
503.51768032568884
503.51641797245065
503.5151560380734
503.51389452262606
503.5126334261777
503.5113727487974
503.5101124905543
503.5088526515176
503.5075932317566
503.5063342313408
503.5050756503399
503.5038174888234
503.5025597468609
503.50130242452224
503.50004552187715
503.4987890389955
503.49753297594725
503.4962773328025
503.495022109631
503.4937673065026
503.49251292348686
503.49125896065357
503.4900054180723
503.48875229581245
503.48749959394354
503.4862473125354
503.4849954516578
503.48374401138085
503.4824929917745
503.4812423929088
503.47999221485384
503.4787424576796
503.47749312145606
503.47624420625334
503.47499571214144
503.4737476391906
503.4724999874711
503.4712527570532
503.47000594800716
503.4687595604032
503.46751359431187
503.4662680498036
503.46502292694913
503.46377822581917
503.46253394648465
503.46129008901653
503.4600466534855
503.45880363996207
503.4575610485167
503.4563188792199
503.45507713214215
503.45383580735415
503.45259490492685
503.4513544249312
503.4501143674381
503.44887473251856
503.44763552024347
503.4463967306838
503.4451583639104
503.44392041999436
503.44268289900697
503.44144580101965
503.4402091261038
503.43897287433083
503.4377370457721
503.43650164049905
503.43526665858303
503.4340321000957
503.43279796510865
503.4315642536935
503.43033096592217
503.42909810186666
503.42786566159884
503.4266336451906
503.4254020527137
503.4241708842403
503.42294013984247
503.4217098195925
503.42047992356265
503.41925045182506
503.41802140445225
503.41679278151696
503.41556458309196
503.41433680925024
503.41310946006456
503.4118825356077
503.4106560359521
503.4094299611704
503.4082043113349
503.4069790865178
503.4057542867913
503.4045299122274
503.40330596289846
503.40208243887696
503.40085934023546
503.3996366670465
503.39841441938256
503.397192597316
503.39597120091935
503.3947502302649
503.39352968542516
503.39230956647293
503.39108987348095
503.38987060652175
503.3886517656679
503.38743335099184
503.3862153625662
503.38499780046345
503.3837806647564
503.382563955518
503.3813476728212
503.3801318167391
503.37891638734436
503.37770138471
503.376486808909
503.3752726600144
503.3740589380993
503.37284564323727
503.3716327755019
503.3704203349671
503.36920832170654
503.3679967357939
503.3667855773026
503.36557484630634
503.3643645428788
503.36315466709334
503.3619452190235
503.36073619874287
503.35952760632495
503.3583194418429
503.3571117053698
503.35590439697853
503.35469751674236
503.3534910647345
503.35228504102815
503.35107944569654
503.34987427881265
503.3486695404497
503.3474652306809
503.34626134957944
503.3450578972188
503.34385487367217
503.3426522790128
503.34145011331407
503.3402483766497
503.33904706909357
503.3378461907198
503.3366457416025
503.3354457218161
503.33424613143484
503.33304697053336
503.33184823918623
503.33064993746825
503.32945206545446
503.3282546232201
503.3270576108407
503.3258610283917
503.3246648759491
503.3234691535886
503.32227386138584
503.32107899941684
503.3198845677575
503.3186905664836
503.3174969956708
503.3163038553946
503.3151111457305
503.3139188667542
503.3127270185414
503.3115356011681
503.3103446147104
503.30915405924475
503.30796393484775
503.30677424159603
503.30558497956645
503.3043961488356
503.3032077494804
503.30201978157766
503.3008322452042
503.29964514043695
503.2984584673527
503.29727222602855
503.2960864165418
503.2949010389698
503.29371609338955
503.29253157987864
503.29134749851437
503.29016384937427
503.28898063253587
503.28779784807693
503.2866154960752
503.28543357660897
503.28425208975636
503.28307103559564
503.281890414205
503.28071022566246
503.279530470046
503.27835114743357
503.27717225790343
503.2759938015338
503.2748157784031
503.27363818858976
503.27246103217226
503.2712843092288
503.2701080198376
503.26893216407666
503.2677567420242
503.2665817537586
503.2654071993584
503.26423307890195
503.263059392468
503.2618861401354
503.26071332198285
503.259540938089
503.25836898853254
503.2571974733926
503.25602639274825
503.25485574667914
503.25368553526505
503.2525157585858
503.2513464167214
503.2501775097519
503.24900903775733
503.24784100081797
503.24667339901407
503.2455062324261
503.2443395011346
503.24317320522005
503.2420073447631
503.24084191984457
503.23967693054533
503.2385123769461
503.23734825912766
503.23618457717066
503.2350213311561
503.23385852116485
503.23269614727815
503.2315342095774
503.23037270814393
503.2292116430592
503.22805101440485
503.2268908222625
503.22573106671393
503.2245717478411
503.223412865726
503.2222544204508
503.2210964120977
503.21993884074914
503.21878170648756
503.21762500939553
503.2164687495558
503.2153129270514
503.2141575419655
503.2130025943816
503.2118480843833
503.2106940120548
503.2095403774804
503.20838718074424
503.20723442193025
503.20608210112255
503.20493021840525
503.2037787738625
503.2026277675784
503.2014771996371
503.20032707012274
503.19917737911965
503.1980281267122
503.1968793129847
503.1957309380216
503.1945830019074
503.19343550472695
503.1922884465648
503.19114182750536
503.18999564763294
503.18884990703214
503.18770460578776
503.1865597439846
503.1854153217075
503.1842713390415
503.1831277960721
503.18198469288495
503.18084202956584
503.17969980620046
503.17855802287454
503.17741667967357
503.1762757766828
503.175135313988
503.1739952916748
503.17285570982926
503.17171656853725
503.1705778678845
503.1694396079563
503.16830178883765
503.1671644106136
503.166027473369
503.16489097718863
503.16375492215707
503.16261930835867
503.161484135878
503.1603494047997
503.1592151152081
503.1580812671875
503.1569478608219
503.1558148961951
503.1546823733913
503.1535502924944
503.15241865358803
503.1512874567559
503.1501567020814
503.14902638964804
503.14789651953924
503.146767091838
503.1456381066271
503.14450956398923
503.143381464007
503.1422538067627
503.1411265923382
503.1399998208153
503.13887349227593
503.13774760680167
503.1366221644744
503.1354971653757
503.1343726095872
503.1332484971906
503.13212482826725
503.1310016028988
503.1298788211666
503.1287564831521
503.12763458893664
503.1265131386017
503.12539213222817
503.124271569897
503.1231514516892
503.1220317776856
503.12091254796724
503.11979376261456
503.1186754217081
503.11755752532827
503.1164400735556
503.11532306647064
503.11420650415334
503.1130903866838
503.111974714142
503.1108594866075
503.10974470415977
503.10863036687806
503.10751647484153
503.10640302812885
503.10529002681847
503.10417747098836
503.1030653607163
503.1019536960803
503.10084247715827
503.09973170402804
503.09862137676714
503.09751149545286
503.0964020601623
503.0952930709725
503.0941845279601
503.0930764312018
503.0919687807741
503.09086157675347
503.0897548192163
503.08864850823875
503.087542643897
503.08643722626675
503.0853322554235
503.084227731443
503.0831236544009
503.0820200243727
503.08091684143346
503.0798141056582
503.07871181712176
503.07760997589867
503.0765085820635
503.0754076356907
503.07430713685426
503.0732070856284
503.0721074820872
503.07100832630476
503.06990961835504
503.0688113583117
503.0677135462481
503.06661618223734
503.0655192663521
503.06442279866496
503.063326779248
503.062231208173
503.06113608551163
503.0600414113353
503.0589471857156
503.057853408724
503.05676008043133
503.0556672009086
503.0545747702265
503.05348278845577
503.05239125566663
503.05130017192937
503.05020953731423
503.04911935189125
503.04802961573023
503.0469403289005
503.04585149147124
503.0447631035115
503.04367516509046
503.042587676277
503.04150063713996
503.0404140477481
503.03932790816975
503.0382422184732
503.0371569787262
503.0360721889965
503.0349878493521
503.0339039598607
503.03282052058967
503.03173753160627
503.0306549929776
503.02957290477093
503.02849126705337
503.027410079892
503.0263293433536
503.0252490575049
503.0241692224122
503.0230898381417
503.0220109047593
503.02093242233104
503.0198543909228
503.01877681060046
503.0176996814296
503.0166230034756
503.01554677680383
503.01447100147925
503.0133956775667
503.01232080513046
503.01124638423494
503.010172414944
503.0090988973211
503.0080258314297
503.0069532173329
503.00588105509405
503.0048093447758
503.003738086441
503.0026672801523
503.00159692597254
503.0005270239642
502.9994575741898
502.99838857671193
502.99732003159284
502.9962519388946
502.9951842986791
502.9941171110081
502.9930503759431
502.9919840935456
502.9909182638771
502.98985288699873
502.9887879629716
502.98772349185697
502.98665947371614
502.9855959086103
502.98453279660066
502.9834701377483
502.98240793211426
502.9813461797594
502.98028488074465
502.97922403513076
502.9781636429784
502.9771037043481
502.9760442193003
502.9749851878955
502.97392661019444
502.97286848625754
502.9718108161451
502.97075359991754
502.9696968376354
502.96864052935916
502.9675846751493
502.966529275066
502.9654743291692
502.96441983751856
502.96336580017396
502.96231221719495
502.96125908864065
502.9602064145697
502.9591541950408
502.95810243011215
502.9570511198417
502.95600026428724
502.9549498635063
502.9538999175563
502.9528504264947
502.9518013903785
502.9507528092645
502.9497046832098
502.94865701227127
502.94760979650573
502.94656303597003
502.9455167307208
502.9444708808146
502.9434254863081
502.94238054725815
502.94133606372134
502.9402920357543
502.93924846341315
502.9382053467541
502.9371626858333
502.9361204807067
502.93507873142994
502.93403743805834
502.93299660064713
502.93195621925133
502.930916293926
502.92987682472585
502.92883781170576
502.9277992549203
502.92676115442373
502.92572351027
502.9246863225128
502.9236495912053
502.9226133164002
502.9215774981501
502.92054213650727
502.91950723152377
502.9184727832517
502.91743879174305
502.91640525704975
502.91537217922314
502.9143395583144
502.91330739437467
502.9122756874549
502.9112444376058
502.910213644878
502.9091833093223
502.9081534309894
502.90712400992993
502.9060950461944
502.9050665398331
502.90403849089626
502.90301089943387
502.90198376549574
502.90095708913145
502.89993087039056
502.8989051093222
502.8978798059752
502.8968549603983
502.89583057263985
502.89480664274834
502.8937831707717
502.89276015675773
502.89173760075414
502.8907155028087
502.8896938629689
502.88867268128183
502.88765195779456
502.88663169255415
502.8856118856079
502.88459253700285
502.8835736467863
502.8825552150056
502.88153724170775
502.8805197269394
502.8795026707471
502.8784860731773
502.8774699342762
502.8764542540898
502.8754390326644
502.8744242700461
502.87340996628086
502.87239612141457
502.8713827354927
502.8703698085608
502.86935734066424
502.86834533184856
502.8673337821592
502.86632269164147
502.86531206034033
502.8643018883006
502.86329217556704
502.862282922184
502.86127412819565
502.86026579364557
502.8592579185772
502.85825050303356
502.85724354705735
502.8562370506909
502.8552310139762
502.85422543695563
502.8532203196712
502.8522156621648
502.85121146447796
502.85020772665234
502.84920444872955
502.84820163075096
502.84719927275796
502.8461973747917
502.84519593689333
502.8441949591038
502.84319444146377
502.84219438401374
502.84119478679395
502.8401956498449
502.839196973207
502.8381987569203
502.8372010010246
502.8362037055597
502.83520687056534
502.8342104960809
502.8332145821455
502.83221912879776
502.8312241360759
502.8302296040181
502.8292355326628
502.82824192204816
502.8272487722122
502.8262560831927
502.8252638550273
502.82427208775357
502.82328078140904
502.82228993603144
502.8212995516583
502.82030962832664
502.81932016607357
502.8183311649361
502.8173426249509
502.81635454615434
502.81536692858276
502.81437977227233
502.8133930772592
502.8124068435793
502.8114210712681
502.8104357603611
502.8094509108937
502.8084665229014
502.80748259641973
502.8064991314841
502.8055161281295
502.804533586391
502.8035515063034
502.8025698879012
502.80158873121854
502.80060803628953
502.79962780314804
502.7986480318277
502.79766872236223
502.7966898747852
502.7957114891301
502.7947335654301
502.7937561037181
502.7927791040272
502.7918025663903
502.7908264908401
502.7898508774092
502.7888757261301
502.787901037035
502.7869268101563
502.78595304552596
502.7849797431761
502.78400690313856
502.7830345254449
502.78206261012656
502.78109115721463
502.7801201667403
502.7791496387342
502.77817957322713
502.77720997024926
502.7762408298306
502.77527215200075
502.774303936789
502.77333618422495
502.7723688943381
502.7714020671581
502.77043570271417
502.7694698010355
502.76850436215113
502.76753938609
502.7665748728807
502.7656108225517
502.7646472351312
502.7636841106473
502.76272144912787
502.76175925060033
502.760797515092
502.7598362426302
502.75887543324166
502.75791508695306
502.75695520379077
502.7559957837809
502.7550368269492
502.7540783333211
502.75312030292207
502.7521627357776
502.75120563191285
502.7502489913529
502.74929281412255
502.74833710024654
502.7473818497497
502.7464270626565
502.7454727389911
502.7445188787774
502.74356548203946
502.74261254880116
502.74166007908616
502.7407080729181
502.7397565303204
502.73880545131624
502.7378548359286
502.7369046841802
502.7359549960938
502.73500577169193
502.73405701099705
502.73310871403146
502.7321608808172
502.7312135113759
502.73026660572896
502.7293201638972
502.72837418590143
502.7274286717625
502.7264836215011
502.7255390351379
502.7245949126934
502.72365125418787
502.7227080596415
502.7217653290745
502.72082306250695
502.7198812599586
502.71893992144896
502.71799904699765
502.7170586366242
502.7161186903479
502.7151792081879
502.7142401901633
502.7133016362932
502.71236354659663
502.71142592109254
502.7104887597998
502.70955206273675
502.7086158299219
502.7076800613738
502.706744757111
502.7058099171518
502.7048755415142
502.7039416302159
502.70300818327496
502.7020752007095
502.70114268253747
502.70021062877663
502.69927903944426
502.69834791455764
502.69741725413405
502.696487058191
502.695557326746
502.6946280598163
502.6936992574192
502.692770919572
502.69184304629175
502.6909156375955
502.6899886935
502.68906221402176
502.68813619917705
502.68721064898205
502.6862855634529
502.6853609426055
502.68443678645576
502.68351309501963
502.682589868313
502.68166710635205
502.6807448091529
502.67982297673143
502.6789016091036
502.6779807062851
502.6770602682916
502.67614029513857
502.67522078684146
502.67430174341575
502.67338316487667
502.67246505123944
502.6715474025191
502.6706302187306
502.66971349988853
502.6687972460072
502.667881457101
502.66696613318436
502.6660512742717
502.6651368803773
502.6642229515153
502.6633094876993
502.66239648894293
502.6614839552599
502.6605718866638
502.65966028316825
502.6587491447865
502.65783847153125
502.656928263415
502.6560185204505
502.65510924265027
502.6542004300268
502.6532920825923
502.65238420035894
502.6514767833387
502.65056983154363
502.6496633449856
502.64875732367614
502.64785176762643
502.6469466768476
502.64604205135083
502.64513789114744
502.6442341962486
502.6433309666654
502.64242820240884
502.64152590348976
502.6406240699189
502.63972270170666
502.6388217988633
502.6379213613991
502.6370213893242
502.6361218826489
502.6352228413832
502.6343242655371
502.63342615512056
502.63252851014363
502.63163133061653
502.63073461654926
502.6298383679514
502.6289425848322
502.6280472672008
502.6271524150661
502.62625802843695
502.62536410732196
502.6244706517298
502.62357766166906
502.6226851371482
502.62179307817564
502.62090148475977
502.620010356909
502.619119694632
502.61822949793714
502.61733976683286
502.6164505013271
502.6155617014274
502.614673367141
502.6137854984752
502.61289809543723
502.6120111580342
502.61112468627266
502.6102386801592
502.60935313970026
502.6084680649019
502.60758345577005
502.60669931231064
502.60581563452934
502.6049324224316
502.6040496760229
502.6031673953087
502.6022855802944
502.6014042309853
502.6005233473861
502.59964292950167
502.5987629773367
502.5978834908958
502.59700447018326
502.5961259152034
502.5952478259601
502.5943702024572
502.5934930446988
502.592616352689
502.5917401264319
502.59086436593134
502.58998907119144
502.5891142422163
502.58823987900973
502.58736598157543
502.5864925499168
502.58561958403743
502.584747083941
502.58387504963116
502.5830034811115
502.5821323783855
502.5812617414565
502.58039157032795
502.579521865003
502.5786526254849
502.577783851777
502.5769155438825
502.5760477018039
502.57518032554344
502.57431341510346
502.57344697048575
502.57258099169167
502.5717154787226
502.57085043157986
502.56998585026486
502.5691217347787
502.56825808512235
502.56739490129644
502.56653218330166
502.5656699311385
502.56480814480733
502.5639468243087
502.56308596964254
502.56222558080844
502.56136565780594
502.56050620063456
502.55964720929364
502.55878868378204
502.5579306240984
502.5570730302411
502.55621590220835
502.55535923999855
502.5545030436099
502.5536473130403
502.55279204828753
502.55193724934907
502.5510829162224
502.55022904890484
502.5493756473934
502.5485227116849
502.5476702417759
502.5468182376628
502.545966699342
502.54511562680955
502.5442650200614
502.54341487909346
502.5425652039014
502.5417159944807
502.540867250827
502.54001897293574
502.5391711608024
502.5383238144225
502.53747693379137
502.5366305189043
502.53578456975674
502.5349390863437
502.5340940686599
502.53324951670015
502.532405430459
502.53156180993074
502.53071865510947
502.5298759659893
502.52903374256425
502.528191984828
502.527350692774
502.5265098663956
502.525669505686
502.5248296106381
502.5239901812447
502.5231512174985
502.52231271939195
502.5214746869174
502.52063712006657
502.5198000188311
502.51896338320216
502.5181272131706
502.51729150872734
502.51645626986306
502.5156214965682
502.51478718883277
502.5139533466463
502.5131199699981
502.5122870588775
502.51145461327405
502.51062263317704
502.5097911185753
502.50896006945777
502.508129485813
502.50729936762946
502.5064697148955
502.5056405275993
502.5048118057291
502.503983549273
502.503155758219
502.50232843255526
502.50150157226994
502.500675177351
502.4998492477862
502.49902378356273
502.4981987846679
502.4973742510888
502.49655018281237
502.49572657982594
502.4949034421163
502.4940807696705
502.4932585624754
502.49243682051747
502.4916155437834
502.4907947322597
502.4899743859328
502.48915450478876
502.48833508881376
502.48751613799345
502.4866976523133
502.4858796317585
502.4850620763143
502.4842449859659
502.4834283606983
502.4826122004963
502.4817965053446
502.48098127522803
502.4801665101311
502.4793522100381
502.4785383749331
502.47772500480005
502.4769120996227
502.4760996593848
502.4752876840696
502.4744761736606
502.4736651281412
502.47285454749453
502.4720444317036
502.47123478075105
502.4704255946194
502.469616873291
502.46880861674776
502.4680008249718
502.4671934979451
502.46638663564954
502.4655802380664
502.4647743051769
502.46396883696184
502.46316383340195
502.4623592944779
502.46155522017057
502.4607516104609
502.4599484653295
502.45914578475686
502.4583435687234
502.4575418172094
502.4567405301948
502.45593970765935
502.4551393495826
502.4543394559437
502.4535400267214
502.4527410618946
502.4519425614417
502.4511445253413
502.4503469535721
502.44954984611263
502.44875320294136
502.44795702403667
502.4471613093767
502.4463660589397
502.44557127270355
502.444776950646
502.44398309274425
502.4431896989752
502.44239676931534
502.4416043037413
502.44081230222946
502.4400207647561
502.4392296912972
502.4384390818284
502.4376489363251
502.4368592547628
502.4360700371167
502.4352812833622
502.43449299347435
502.4337051674281
502.4329178051985
502.43213090676045
502.43134447208877
502.430558501158
502.4297729939424
502.4289879504163
502.4282033705538
502.4274192543289
502.4266356017158
502.4258524126885
502.4250696872207
502.4242874252857
502.4235056268567
502.42272429190666
502.4219434204085
502.4211630123352
502.42038306765926
502.4196035863529
502.41882456838835
502.4180460137377
502.41726792237296
502.41649029426594
502.4157131293887
502.414936427713
502.4141601892104
502.41338441385255
502.41260910161077
502.4118342524564
502.41105986636035
502.4102859432935
502.4095124832263
502.408739486129
502.40796695197173
502.4071948807248
502.4064232723583
502.4056521268426
502.40488144414735
502.4041112242421
502.40334146709665
502.4025721726805
502.4018033409627
502.40103497191217
502.4002670654975
502.399499621687
502.398732640449
502.3979661217513
502.39720006556195
502.39643447184835
502.39566934057757
502.39490467171663
502.39414046523234
502.3933767210917
502.39261343926137
502.39185061970784
502.3910882623975
502.39032636729644
502.38956493437104
502.38880396358763
502.3880434549126
502.387283408312
502.386523823752
502.38576470119847
502.3850060406171
502.38424784197355
502.38349010523325
502.38273283036165
502.3819760173242
502.38121966608605
502.3804637766127
502.37970834886937
502.37895338282124
502.3781988784335
502.3774448356712
502.3766912544993
502.3759381348825
502.37518547678565
502.3744332801732
502.3736815450095
502.3729302712586
502.3721794588844
502.3714291078504
502.37067921812036
502.3699297896576
502.3691808224253
502.36843231638613
502.36768427150264
502.36693668773705
502.3661895650516
502.3654429034084
502.3646967027694
502.36395096309616
502.3632056843501
502.36246086649226
502.3617165094838
502.36097261328564
502.3602291778586
502.35948620316344
502.3587436891605
502.3580016358103
502.357260043073
502.35651891090856
502.3557782392768
502.35503802813764
502.3542982774509
502.35355898717603
502.3528201572726
502.35208178769994
502.3513438784171
502.3506064293829
502.34986944055595
502.3491329118947
502.34839684335725
502.3476612349016
502.3469260864854
502.3461913980666
502.3454571696029
502.34472340105185
502.34399009237086
502.3432572435174
502.34252485444927
502.34179292512385
502.3410614554987
502.340330445531
502.3395998951778
502.33886980439615
502.33814017314285
502.33741100137445
502.33668228904753
502.33595403611866
502.3352262425442
502.33449890828024
502.3337720332827
502.3330456175072
502.3323196609092
502.33159416344415
502.33086912506747
502.33014454573436
502.3294204253996
502.32869676401765
502.3279735615429
502.3272508179293
502.32652853313084
502.32580670710126
502.325085339794
502.3243644311624
502.3236439811594
502.3229239897378
502.32220445684993
502.3214853824484
502.3207667664856
502.3200486089138
502.3193309096853
502.3186136687518
502.3178968860652
502.31718056157706
502.31646469523866
502.31574928700115
502.31503433681564
502.314319844633
502.31360581040394
502.31289223407884
502.31217911560793
502.3114664549414
502.31075425202926
502.3100425068212
502.3093312192673
502.3086203893172
502.30791001692046
502.30720010202685
502.3064906445859
502.3057816445471
502.30507310185976
502.30436501647273
502.30365738833484
502.3029502173947
502.3022435036005
502.3015372468999
502.3008314472406
502.30012610457015
502.29942121883573
502.2987167899846
502.2980128179638
502.2973093027201
502.29660624420035
502.29590364235105
502.2952014971188
502.29449980845015
502.29379857629124
502.29309780058793
502.2923974812861
502.29169761833145
502.2909982116696
502.290299261246
502.28960076700605
502.2889027288952
502.2882051468587
502.2875080208414
502.2868113507882
502.28611513664373
502.2854193783526
502.284724075859
502.2840292291073
502.2833348380416
502.28264090260586
502.28194742274445
502.28125439840164
502.28056182952173
502.2798697160488
502.27917805792663
502.2784868550991
502.2777961075101
502.27710581510314
502.27641597782144
502.27572659560815
502.2750376684062
502.27434919615825
502.2736611788066
502.2729736162935
502.2722865085607
502.27159985554954
502.27091365720094
502.27022791345576
502.2695426242549
502.26885778953897
502.26817340924845
502.2674894833233
502.26680601170347
502.26612299432895
502.2654404311395
502.26475832207484
502.2640766670745
502.2633954660778
502.26271471902373
502.2620344258514
502.26135458650015
502.26067520090896
502.25999626901694
502.25931779076313
502.2586397660866
502.2579621949262
502.25728507722056
502.256608412908
502.25593220192695
502.25525644421555
502.25458113971195
502.25390628835453
502.2532318900817
502.25255794483155
502.2518844525423
502.2512114131516
502.2505388265972
502.24986669281657
502.2491950117469
502.2485237833255
502.24785300748954
502.2471826841763
502.2465128133231
502.24584339486705
502.2451744287455
502.2445059148956
502.2438378532545
502.24317024375864
502.24250308634464
502.24183638094905
502.2411701275082
502.2405043259582
502.2398389762352
502.2391740782755
502.23850963201517
502.23784563739036
502.2371820943374
502.23651900279265
502.2358563626922
502.2351941739719
502.23453243656763
502.23387115041487
502.2332103154488
502.2325499316048
502.23188999881836
502.2312305170244
502.2305714861575
502.2299129061521
502.2292547769425
502.22859709846284
502.2279398706469
502.22728309342824
502.2266267667401
502.2259708905153
502.22531546468645
502.2246604891859
502.22400596394596
502.2233518888986
502.22269826397564
502.22204508910863
502.22139236422913
502.2207400892687
502.2200882641587
502.2194368888304
502.21878596321517
502.21813548724435
502.21748546084905
502.21683588396013
502.2161867565085
502.2155380784245
502.21488984963844
502.21424207008
502.2135947396789
502.2129478583647
502.2123014260669
502.2116554427146
502.2110099082365
502.2103648225616
502.2097201856186
502.2090759973364
502.2084322576436
502.20778896646857
502.2071461237399
502.206503729386
502.20586178333497
502.205220285515
502.204579235854
502.2039386342799
502.2032984807204
502.2026587751029
502.20201951735453
502.2013807074022
502.2007423451728
502.2001044305928
502.19946696358875
502.19882994408727
502.1981933720149
502.19755724729816
502.19692156986366
502.19628633963794
502.1956515565473
502.19501722051814
502.1943833314765
502.19374988934806
502.1931168940582
502.19248434553197
502.19185224369426
502.19122058846983
502.1905893797832
502.18995861755866
502.1893283017205
502.18869843219295
502.18806900890013
502.1874400317661
502.1868115007146
502.18618341566935
502.1855557765539
502.1849285832916
502.1843018358061
502.1836755340207
502.18304967785866
502.18242426724305
502.18179930209703
502.18117478234376
502.18055070790615
502.1799270787069
502.17930389466846
502.1786811557133
502.17805886176393
502.17743701274253
502.17681560857113
502.1761946491715
502.1755741344655
502.17495406437456
502.1743344388201
502.1737152577234
502.17309652100585
502.1724782285885
502.17186038039245
502.1712429763386
502.1706260163478
502.1700095003407
502.16939342823775
502.1687777999589
502.1681626154236
502.1675478745517
502.1669335772624
502.1663197234752
502.16570631310924
502.1650933460835
502.16448082231705
502.1638687417287
502.1632571042371
502.16264590976084
502.1620351582187
502.16142484952957
502.160814983612
502.1602055603846
502.15959657976555
502.1589880416727
502.15837994602384
502.1577722927366
502.1571650817284
502.156558312917
502.15595198621963
502.1553461015533
502.15474065883495
502.15413565798167
502.15353109891066
502.15292698153894
502.1523233057833
502.1517200715605
502.15111727878707
502.1505149273794
502.14991301725354
502.1493115483256
502.14871052051194
502.1481099337284
502.14750978789107
502.14691008291584
502.1463108187186
502.14571199521515
502.14511361232144
502.14451566995285
502.1439181680246
502.1433211064518
502.14272448514953
502.14212830403244
502.14153256301506
502.1409372620119
502.140342400937
502.1397479797047
502.13915399822895
502.1385604564239
502.1379673542035
502.1373746914817
502.1367824681722
502.1361906841887
502.1355993394445
502.13500843385305
502.1344179673274
502.13382793978053
502.1332383511253
502.1326492012745
502.13206049014025
502.13147221763484
502.1308843836705
502.13029698815967
502.12971003101507
502.1291235121489
502.12853743147343
502.1279517889011
502.1273665843446
502.1267818177164
502.1261974889287
502.12561359789333
502.1250301445218
502.12444712872525
502.1238645504145
502.12328240950023
502.12270070589284
502.1221194395023
502.12153861023853
502.12095821801154
502.12037826273104
502.11979874430676
502.11921966264777
502.11864101766264
502.11806280925975
502.11748503734725
502.11690770183304
502.1163308026246
502.1157543396291
502.11517831275364
502.11460272190516
502.11402756699067
502.11345284791696
502.1128785645906
502.11230471691783
502.11173130480483
502.11115832815767
502.11058578688244
502.1100136808848
502.1094420100703
502.1088707743445
502.1082999736125
502.1077296077792
502.10715967674923
502.106590180427
502.10602111871685
502.1054524915228
502.10488429874863
502.104316540298
502.1037492160742
502.10318232598024
502.10261586991896
502.10204984779307
502.101484259505
502.1009191049568
502.1003543840502
502.099790096687
502.09922624276896
502.09866282219787
502.09809983487526
502.09753728070245
502.0969751595808
502.0964134714118
502.0958522160968
502.09529139353685
502.0947310036329
502.0941710462855
502.09361152139536
502.09305242886285
502.0924937685886
502.09193554047306
502.0913777444164
502.0908203803185
502.0902634480792
502.08970694759796
502.08915087877403
502.0885952415065
502.0880400356941
502.0874852612353
502.0869309180282
502.0863770059707
502.0858235249609
502.0852704748968
502.08471785567576
502.08416566719484
502.0836139093508
502.0830625820404
502.08251168516017
502.08196121860647
502.08141118227536
502.08086157606294
502.0803123998653
502.0797636535781
502.0792153370969
502.0786674503174
502.07811999313503
502.0775729654449
502.07702636714225
502.076480198122
502.0759344582791
502.0753891475083
502.0748442657041
502.0742998127607
502.07375578857227
502.0732121930323
502.0726690260342
502.07212628747106
502.0715839772356
502.07104209522026
502.0705006413175
502.0699596154195
502.06941901741834
502.06887884720595
502.0683391046741
502.0677997897144
502.0672609022183
502.06672244207743
502.06618440918305
502.0656468034265
502.06510962469883
502.0645728728912
502.06403654789415
502.06350064959815
502.06296517789315
502.06243013266885
502.061895513815
502.06136132122106
502.06082755477655
502.06029421437097
502.0597612998936
502.0592288112334
502.05869674827954
502.0581651109212
502.05763389904746
502.0571031125471
502.0565727513085
502.0560428152196
502.0555133041678
502.0549842180401
502.0544555567235
502.053927320105
502.0533995080716
502.0528721205101
502.0523451573067
502.05181861834785
502.05129250351956
502.0507668127075
502.05024154579723
502.04971670267423
502.04919228322365
502.0486682873302
502.0481447148784
502.04762156575293
502.0470988398379
502.0465765370168
502.0460546571733
502.0455332001909
502.04501216595304
502.04449155434304
502.04397136524403
502.0434515985389
502.0429322541104
502.04241333184086
502.0418948316128
502.04137675330844
502.04085909680975
502.04034186199874
502.0398250487574
502.03930865696725
502.03879268650985
502.0382771372665
502.0377620091183
502.0372473019463
502.0367330156316
502.0362191500551
502.0357057050978
502.03519268064065
502.0346800765642
502.03416789274934
502.0336561290769
502.0331447854278
502.0326338616826
502.03212335772173
502.0316132734256
502.03110360867436
502.030594363348
502.0300855373264
502.0295771304891
502.02906914271557
502.0285615738851
502.02805442387694
502.0275476925706
502.02704137984483
502.0265354855783
502.0260300096493
502.02552495193595
502.0250203123164
502.02451609066884
502.0240122868711
502.02350890080106
502.0230059323367
502.0225033813556
502.0220012477355
502.02149953135404
502.0209982320887
502.0204973498164
502.019996884414
502.0194968357582
502.0189972037256
502.0184979881924
502.0179991890345
502.0175008061278
502.01700283934815
502.0165052885711
502.01600815367215
502.01551143452616
502.0150151310081
502.0145192429925
502.01402377035356
502.0135287129656
502.01303407070236
502.0125398434377
502.012046031045
502.0115526333975
502.0110596503682
502.0105670818298
502.01007492765484
502.00958318771563
502.0090918618839
502.0086009500312
502.00811045202886
502.0076203677479
502.00713069705944
502.0066414398343
502.0061525959434
502.00566416525703
502.0051761476452
502.0046885429774
502.00420135112313
502.0037145719514
502.00322820533097
502.00274225113026
502.00225670921736
502.0017715794604
502.00128686172707
502.00080255588455
502.00031866179984
501.9998351793399
501.99935210837134
501.9988694487606
501.99838720037405
501.99790536307796
501.9974239367384
501.99694292122126
501.9964623163919
501.9959821221155
501.9955023382572
501.995022964682
501.994544001255
501.9940654478412
501.9935873043055
501.99310957051307
501.99263224632887
501.9921553316178
501.9916788262449
501.99120273007475
501.9907270429719
501.99025176480086
501.98977689542585
501.9893024347109
501.98882838251984
501.98835473871645
501.98788150316454
501.9874086757277
501.98693625626925
501.9864642446523
501.98599264074005
501.98552144439554
501.9850506554819
501.9845802738623
501.9841102994001
501.98364073195853
501.9831715714006
501.9827028175889
501.98223447038595
501.9817665296541
501.9812989952559
501.98083186705344
501.9803651449088
501.97989882868364
501.9794329182396
501.9789674134379
501.97850231413963
501.9780376202059
501.9775733314975
501.97710944787514
501.9766459691996
501.9761828953315
501.9757202261312
501.9752579614594
501.9747961011767
501.9743346451435
501.9738735932201
501.9734129452668
501.97295270114364
501.97249286071064
501.9720334238275
501.97157439035345
501.97111576014754
501.9706575330688
501.970199708976
501.9697422877275
501.96928526918146
501.9688286531957
501.96837243962796
501.96791662833584
501.96746121917704
501.967006212009
501.96655160668865
501.9660974030728
501.965643601018
501.9651902003807
501.9647372010172
501.9642846027839
501.96383240553723
501.9633806091333
501.9629292134284
501.96247821827865
501.96202762354005
501.9615774290685
501.96112763471956
501.9606782403491
501.9602292458128
501.9597806509662
501.9593324556647
501.95888465976327
501.95843726311637
501.957990265578
501.957543667002
501.9570974672422
501.9566516661521
501.95620626358505
501.9557612593942
501.95531665343265
501.9548724455533
501.9544286356088
501.9539852234518
501.9535422089348
501.95309959191013
501.9526573722301
501.9522155497466
501.95177412431144
501.9513330957759
501.95089246399107
501.95045222880753
501.9500123900757
501.9495729476457
501.94913390136753
501.94869525109084
501.94825699666535
501.94781913794054
501.9473816747659
501.94694460699066
501.9465079344641
501.9460716570352
501.945635774553
501.94520028686657
501.9447651938249
501.9443304952772
501.94389619107255
501.94346228105974
501.9430287650878
501.94259564300546
501.9421629146616
501.94173057990474
501.941298638583
501.9408670905443
501.9404359356365
501.9400051737073
501.93957480460404
501.9391448281742
501.9387152442648
501.93828605272256
501.937857253394
501.9374288461256
501.93700083076374
501.9365732071544
501.9361459751435
501.93571913457663
501.9352926852994
501.9348666271576
501.9344409599969
501.93401568366266
501.93359079800007
501.93316630285403
501.93274219806926
501.93231848349023
501.9318951589612
501.93147222432617
501.93104967942895
501.93062752411333
