508.99999999999994
508.28763641730876
507.57561578651604
506.8642806725688
506.1539708319281
505.4450273156092
504.7377833128696
504.03256799532096
503.32972351330017
502.629580647927
501.9324628361716
501.2386923162797
500.5485964066872
499.8624876160336
499.1806765100756
498.50346268906526
497.8311343089009
497.1639805212728
496.502268894225
495.84626642351606
495.1962299397687
494.55241418983354
493.9150714331863
493.2844469778581
492.6607792099095
492.04430416749545
491.4352559600758
490.8338518977735
490.24029942862217
489.65480743233076
489.07757352857175
488.50878235763287
487.948610259704
487.3972365021944
486.854834949091
486.3215723765746
485.7976135832637
485.28311559441875
484.77822602952006
484.2830988102318
483.7978992104977
483.32278313126415
482.8578982384686
482.4033826014863
481.9593693360508
481.5259953582795
481.10339703694535
480.6917012380058
480.2910336805741
479.9015250514606
479.5233172033066
479.1565542089665
478.8013779030902
478.45793431574435
478.126364783588
477.8068168361392
477.49944864600207
477.2044271880547
476.9219090169088
476.65204488595623
476.39499508222326
476.15091181882906
475.91994770894223
475.70225317680126
475.4979649448267
475.30722925682426
475.13019002526676
474.96697696041315
474.817710836808
474.68250854332786
474.5614792653123
474.45472258963906
474.36233763093156
474.284406132394
474.22099519097475
474.1721444545838
474.13787280112285
474.11818038633425
474.1130329361482
474.1223742814694
474.14613242887015
474.18421066749426
474.2364943493929
474.3028516728502
474.38311988142516
474.47710713298557
474.58458803542305
474.7052839255314
474.8388844552908
474.98502965683906
475.1433203331291
475.31331089818235
475.49450417825057
475.6863678309978
475.8883356465851
476.09979602694915
476.3200914699526
476.5485336388585
476.784388274833
477.0268756055613
477.27517302777795
477.52842240419045
477.78572671152807
478.0461446935002
478.3086987336351
478.57238739122613
478.8361764903795
479.0990015772685
479.3597750294463
479.6173713088711
479.8706494735226
480.1184540623279
480.3596141817922
480.5929361580283
480.8172202725621
481.03126442263397
481.23387681742025
481.4238716381467
481.6000604766834
481.76127006844297
481.90634020806806
482.0341346988868
482.1435413984978
482.2334809800835
482.30290703316604
482.35080832239987
482.37621517181526
482.37820115048993
482.35589112392796
482.30846485514843
482.2351471299799
482.1352236135974
482.0080520777295
481.85306265474264
481.6697470420582
481.45765388650943
481.216398827435
480.94567838300924
480.645261748141
480.3149955393217
479.95478830217564
479.56461389728304
479.14453190489877
478.69469280851814
478.2153370950341
477.70677280626404
477.1693835626161
476.60362758908025
476.01003019556777
475.3891915132464
474.7417787340215
474.0685093468281
473.37016224912605
472.6475841463415
471.90167406641945
471.13339634506576
470.34376751963015
469.5338476028839
468.7047551709393
467.85769596264583
466.99392736156994
466.11471952523755
465.2213641903797
464.3151715958144
463.3974818817392
462.4696805669227
461.5331659281746
460.5893444921521
459.6396544646239
458.6855539604506
457.7285267990964
456.77005554411176
455.8116160321541
454.8546863179104
453.90075519031063
452.9513154554175
452.00787938796736
451.07197737302664
450.14514203188867
449.2289171250908
448.3248408249941
447.43443579492794
446.5592078827626
445.7006334571199
444.86016130816444
444.0392249469471
443.23923055396824
442.4615709078995
441.7076329835693
440.97877536575817
440.27633870107735
439.6016410329088
438.95598445851226
438.3406448584955
437.75685748239044
437.2058154075016
436.68866119445835
436.20648473645036
435.7603182733077
435.3511418673855
434.979886433814
434.64742798402693
434.3545775348682
434.1020730783337
433.89058667370915
433.7207161160839
433.59297648137255
433.5077915332016
433.4655091441984
433.4663752302963
433.5105449996457
433.5980679553123
433.72887940714946
433.90280941646176
434.1195810608075
434.37880918861663
434.67998423099385
435.02246715813743
435.4054888968707
435.8281631869923
436.28948913233364
436.78833486786755
437.32344155204834
437.8934213051389
438.49675349126534
439.13179905510646
439.79680254878934
440.4898907169192
441.2090675082524
441.9522250231957
442.7171463435063
443.5015244707291
444.30295809933847
445.11894596015424
445.9468924157543
446.7841308186744
447.627945428732
448.4755703445993
449.3242001422181
450.17099907388535
451.01311765780866
451.84769689462354
452.6718796778972
453.48281793346007
454.2776773901265
455.05365952663965
455.80802129686185
456.5380861584554
457.2412461404613
457.91500092267694
458.55695090782837
459.164816356802
459.7364607230181
460.26988100578103
460.7632148120729
461.21475946202844
461.6229702729476
461.9864838164744
462.30412258405767
462.57486757946987
462.79781712997374
462.97224939757166
463.0976828399011
463.17386213600577
463.20076841227467
463.17859663666803
463.10775445124835
462.988880389446
462.82284732049436
462.6107334970806
462.3538219248061
462.053590587759
461.71172445551196
461.3301146811185
460.91082285619785
460.4560730893954
459.9682386679836
459.4498186127348
458.90342111955874
458.33176913942754
457.73768243081224
457.1240758415687
456.49395236156516
455.85039131556704
455.19654295623076
454.5355968602731
453.8707785498646
453.20533945133315
452.5425251882868
451.8855569256865
451.237621438656
450.6018524447371
449.9813095988893
449.37896158951554
448.7976865236957
448.24025946696827
447.709336126676
447.207456924585
446.73703682264346
446.30035643329074
445.8995413984174
445.53655157641504
445.2131689033423
444.9310080923321
444.69151769249396
444.4959652310639
444.3454368582282
444.24081861155497
444.1828072189997
444.1718930902587
444.2083876749912
444.2924211180432
444.42394324474856
444.602734502909
444.8283982320429
445.1003668406505
445.4179041475134
445.78011478157526
446.1859628801352
446.63427611752655
447.1237502785341
447.6529495984547
448.22032916571186
448.8242400940676
449.4629458461273
450.1346345288699
450.83742272275254
451.5693637606544
452.32845820703756
453.1126687650805
453.91992856626854
454.7481580535679
455.59525539881486
456.4591170406489
457.33765786094216
458.2288182215868
459.13056423381295
460.04089395119973
460.95785168549526
461.8795220152998
462.80404492429903
463.72960822978536
464.6544806725445
465.5770161261914
466.4956555071409
467.40893079615574
468.31545132457177
469.2139134996651
470.10309658435756
470.9818730856265
471.84918980964557
472.7040850389291
473.54568078682206
474.37318072829186
475.1858849649197
475.98318927625576
476.7645755985157
477.5296265822862
478.27799654201226
479.0094130314419
479.7236916433205
480.4207584758981
481.1006343436776
481.76340597129416
482.4092344174718
483.03832860066456
483.65095361515415
484.2474166763274
484.82805000360213
485.39320998601914
485.94328615313844
486.4786875048758
486.9998367459157
487.50717446538687
488.0011450059683
488.48222133334286
488.9508907585561
489.40765215071707
489.853018144604
490.28752037585224
490.7116871887588
491.12603735618967
491.5310829322389
491.92732152890926
492.3152356020329
492.6952833161201
493.0679183674809
493.433555714451
493.7925701290084
494.1452923105864
494.4920113573514
494.83299015028325
495.1684656446958
495.4986607632571
495.8237776041755
496.1439849462918
496.45941716712895
496.7701822516314
497.0763634938316
497.37800620695265
497.67511546613184
497.9676647513791
498.25558487632946
498.53877896733417
498.81711079936423
499.0903991176343
499.3584200853421
499.62090681382654
499.8775966326514
500.12821991789286
500.3725032097483
500.6101533943201
500.8408508909476
501.06425164214545
501.2799823865393
501.4876575017837
501.68687832478184
501.8772370165452
502.0583271993858
502.2297417162066
502.39107729387086
502.54192869964623
502.6818940663504
502.8105781071373
502.92759103053663
503.0325364413777
503.12502278370414
503.20465888723766
503.27106871215375
503.3239035962945
503.3628415932165
503.3875892976343
503.39787062863775
503.3934441274931
503.37409406189244
503.339638886454
503.2899265171661
503.2248362002778
503.1442735428961
503.048169438669
502.93649163083586
502.8092472214352
502.66649615380925
502.5083187233626
502.3348262157454
502.14615767636695
501.94248497261236
501.72402429044564
501.4910368452839
501.2438276989395
500.9827471544617
500.70818826694136
500.4205737679906
500.1203692182365
499.8080765618605
499.4842168083308
499.1493297634347
498.803977558404
498.4487277828557
498.08417536158686
497.7109511750291
497.32971559563856
496.9411589820043
496.54598259296296
496.14488137053837
495.7385500379656
495.3276908909124
494.9130106080127
494.4952148404797
494.0750094907825
493.6531086399408
493.2302207392972
492.8070636457932
492.38435843879046
491.9628238129887
491.54317534133287
491.1260987487303
490.7122601186525
490.30231809156754
489.8969143479713
489.4966576019708
489.1021380108346
488.7139350614607
488.3326015836414
487.9586740145366
487.5926630161901
487.2350573098339
486.88630984092265
486.5468589237042
486.21712344181026
485.89751605337864
485.58844396133594
485.2902926684035
485.00342294512234
484.7281565401881
484.4647919438711
484.2136045402866
483.97486205804563
483.74880507665387
483.535638166408
483.3355445184843
483.14869375645833
482.97524762349207
482.81537057665093
482.6692235852871
482.53696071039974
482.4187415845288
482.3147271706396
482.2250850105498
482.14994624499934
482.0894164534283
482.0435789584475
482.01250173484516
481.9962416565057
481.99485945333015
482.008423891489
482.03699652214306
482.08063832108667
482.1394097780191
482.2133578247484
482.3025045741355
482.406852791049
482.5263951166318
482.6611120742417
482.81096984141595
482.975926634498
483.15594819863696
483.3509911302879
483.5610108739601
483.78594607277284
484.02570285931085
484.2801628223711
484.549170905508
484.8325514337385
485.13010862164435
485.441618485765
485.7668185381155
486.1054234664448
486.4571235001194
486.82158541241716
487.1984584115171
487.5873608712577
487.98788486839146
488.3995855301048
488.82199921929936
489.2546162418302
489.69688850726885
490.1482346736014
490.6080407522403
491.07564966884013
491.5503637039892
492.0314465386316
492.5181360369214
493.0096529876191
493.5051818260522
494.00388210166926
494.50490253492694
495.00737398350225
495.5104117923462
496.01311429668374
496.514572542169
497.01384939879455
497.5099913110215
498.00203095245246
498.48899195572636
498.96990479860006
499.4437966835644
499.9097011396576
500.36665674593564
500.81370818490404
501.24992924993984
501.6743999639452
502.08622083195075
502.48450707403435
502.86839563515633
503.2370452564084
503.5896427583658
503.9254180948702
504.2436442836072
504.5436197544912
504.8246853554421
505.08624133553985
505.32772311462446
505.5486009167164
505.7483941579245
505.92665478216134
506.08298069598106
506.2170155831454
506.3284594035314
506.4170635104997
506.482634546362
506.52502742234896
506.544142549469
506.5399251356582
506.51237098274834
506.461530243636
506.3874960303754
506.2904302065574
506.17053479527476
506.028069823489
505.8633520507288
505.67675207932615
505.4686939230216
505.23967662527116
504.99025283374397
504.7210037614513
504.43253580038214
504.1254716456504
503.8004728751433
503.4582308684924
503.09948779803364
502.72503554537764
502.3357123908018
501.93239742702247
501.5160157210382
501.08752343170255
500.64790766795335
500.1981880277107
499.73942862903976
499.2727258774508
498.79922701038646
498.32013610264147
497.83670131465
497.35021366950093
496.86200403953575
496.3734339281708
495.88588185337636
495.4007356438425
494.9194079181829
494.4433291125008
493.9739532735155
493.5127593769926
493.0612548036526
492.62097905610466
492.1934882044294
491.7803370559756
491.3830938535627
491.00333519269964
490.64262544174284
490.30252622561403
489.98459014128224
489.69034976105786
489.4213128338035
489.1789547584305
488.96471263369364
488.77997877417033
488.6261158986868
488.5044397747339
488.4162106311094
488.3626243813998
488.34481921598575
488.3638629009194
488.4207404267026
488.51633723843895
488.65143963308867
488.82673074577457
489.04277790013714
489.30002415222987
489.59878854938194
489.93926435658534
490.3215242915605
490.7454978519166
491.21098422256875
491.717639689431
492.26496789073957
492.85231716873295
493.4788805307422
494.14369834959996
494.845655177608
495.583481686283
496.3557663770689
497.16093755142725
497.9972811455059
498.8629398959263
499.75591786673857
500.67408816047765
501.615186318016
502.57682417037176
503.55649992714206
504.5515980807323
505.55940765714786
506.57712801865927
507.6018597613925
508.6306551675337
509.66052589329337
510.6884386866116
511.7113491716217
512.7262015102996
513.7299462610665
514.7195432736155
515.6919800020311
516.6442765880688
517.5735103210068
518.4768287717565
519.3514757871834
520.1947975398027
521.0042635488634
521.7774786100689
522.512156645884
523.2061651723499
523.8575267468009
524.4644365973343
525.0252679661421
525.5385693663891
526.0030200099982
526.4174782231393
526.781032000275
527.09301857627
527.3530315274768
527.5609001250131
527.7166931161631
527.82070729362
527.873460210345
527.8756955790715
527.8283839609032
527.7327122595277
527.5900838026915
527.402113667911
527.1706192936794
526.8975884360385
526.585187396948
526.2357372052222
525.8516925916643
525.4356455231878
524.9903074342772
524.5185031559505
524.0231616040209
523.5073168790134
522.9741005127298
522.4267009738709
521.86836017842
521.3023500480658
520.7319577317645
520.1604508165284
519.591072509717
519.027029842531
518.4714842271713
517.9275313161468
517.3981898222506
516.8864018921518
516.3950014738965
515.9267052195265
515.4841040777338
515.0696580877519
514.6856791783731
514.3343325691255
514.017619738531
513.7373712569017
513.4952472942024
513.2927306308065
513.1311142989348
513.0114944805044
512.9347816179385
512.9017016639885
512.91280305084
512.9684386639871
513.0687859862617
513.2138420737493
513.4034327556304
513.6372184140504
513.9146963005896
514.2351991449832
514.597907412092
515.0018531777508
515.44592864658
515.928910292495
516.4494660901753
517.0061590032007
517.59745736023
518.2217388326816
518.8773097329929
519.5624111290587
520.2752293648758
521.0139065006008
521.7765548876392
522.5612562761587
523.3660736402231
524.1890800884696
525.0283526922808
525.8819790649213
526.748067791367
527.624762760909
528.5102372427027
529.4027268879273
530.3005074933133
531.2019068990339
532.1053271228063
533.0092288184658
533.9121435754456
534.8126679986306
535.7094767046132
536.6013236994072
537.4870455645108
538.3655642223117
539.2358870585107
540.0970935321749
540.948338681919
541.7888493442202
542.6179350474663
543.4349968631136
544.2395081067964
545.0310190077383
545.8091504007087
546.5735961972622
547.3241239661228
548.0606006012978
548.7829621627212
549.4911924244694
550.185311558117
550.8653681639041
551.5314500285822
552.1836745279653
552.8221872587592
553.4471711214031
554.0588310206655
554.6573869682405
555.2430776826168
555.8161507654429
556.3768635092296
556.9254813873711
557.4622900134483
557.9875726079358
558.5016096810765
559.0046944389005
559.4971226108868
559.979185213298
560.4511662118194
560.9133427717214
561.3659771314186
561.8093063403553
562.2435562404888
562.6689316333773
563.0856175185368
563.4937805426497
563.8935795916728
564.2851505550816
564.6686152751948
565.0440841409218
565.4116547050562
565.7714040337435
566.1233875666311
566.4676510016637
566.8042226849007
567.1331148011177
567.4543310306069
567.7678656083752
568.0736915538228
568.3717750237674
568.6620720868455
568.9445276665126
569.2190699963636
569.4856268491561
569.7441199866033
569.9944595674423
570.2365448357308
570.4702644794011
570.6955122242182
570.9121674913501
571.1201109830108
571.3192161726076
571.5093560317483
571.6904009756589
571.8622213513447
572.024692279986
572.177685588815
572.3210772278434
572.454730494573
572.5785073794514
572.692268797608
572.7958769807403
572.8892023132953
572.9721171562435
573.044496247449
573.1062215870162
573.1571787272043
573.1972508304269
573.226336798262
573.2443455847762
573.2511839986499
573.2467662876547
573.2310127366352
573.2038613954677
573.1652558404935
573.1151593402603
573.053538391833
572.9803789774991
572.8956766169282
572.7994262202712
572.6916334195145
572.5723234544591
572.4415435779415
572.2993525592889
572.1458231883695
571.9810534488822
571.8051514975272
571.6182358149974
571.4204527104487
571.2119721384187
570.9929903662621
570.7637107990571
570.5243574590094
570.2751730828746
570.0164215768375
569.7483860268528
569.471364452381
569.185669768227
568.8916316665441
568.5896027042378
568.279957852948
567.9630875598187
567.6394017728809
567.3093184795143
566.9732739038498
566.6317239316766
566.2851345263714
565.9339895300001
565.5787920324174
565.2200549356533
564.8583090616069
564.4940937525444
564.1279627392272
563.7604680384833
563.3921722078876
563.023647493241
562.6554661027978
562.2882032944771
561.9224447765221
561.5587745562204
561.1977780478261
560.8400385141789
560.4861378838115
560.1366619465946
559.7921882007985
559.4532869369247
559.1205266135551
558.7944661261693
558.4756647533159
558.1646659782764
557.8619943264164
557.5681606484848
557.2836717250489
557.0090182369144
556.7446692983648
556.4910822078524
556.2486969848485
556.0179264830219
555.7991594329984
555.5927656721741
555.3990948077602
555.2184661221779
555.0511781599016
554.8975075106913
554.7577033994844
554.6319976721473
554.5205932798027
554.4236683580111
554.341373826465
554.2738200880598
554.2210964903325
554.1832580156506
554.1603361392727
554.1523213003359
554.1591693013037
554.1808031464443
554.2171016187428
554.2679183035611
554.3330743707553
554.4123647444869
554.5055557317917
554.6123850496883
554.7325599254723
554.8657596864751
555.0116253877966
555.169760398814
555.3397329513772
555.5210829381643
555.7133244580822
555.9159397323197
556.128375230082
556.3500509426907
556.5803719155554
556.8187205062445
557.0644489607002
557.3168895634184
557.5753408431056
557.8390843359292
558.1073749741292
558.3794402564042
558.6545012780219
558.931767685618
559.2104284348494
559.4896577422559
559.7686298635556
560.0465079374034
560.3224416504075
560.5955823235252
560.8650895098451
561.1301203485679
561.3898430924258
561.6434202066797
561.890022248429
562.1288175784117
562.3589924021198
562.5797422115518
562.7902697264827
562.9898022560837
563.1775980894425
563.3529312619921
563.5150892949911
563.6633856373486
563.7971762029698
563.9158433866394
564.0188021392406
564.1055014849976
564.1754258420902
564.2280940430163
564.2630625039388
564.2799237756296
564.2783246756466
564.2579561003408
564.2185539842719
564.1598892690789
564.0817708421818
563.9840503518698
563.8666222818576
563.7294259953841
563.5724365700025
563.3956639136875
563.1991580207498
562.9830007721584
562.7473169964752
562.4922634666437
562.2180197977298
561.9248052114293
561.6128822314962
561.2825409470817
560.9340966186612
560.5678806972297
560.1842470511434
559.7835826781212
559.3663056194015
558.9328502496178
558.483674976633
558.0192573788157
557.5400832348835
557.0466598227625
556.5395362289951
556.0192942178469
555.486518612505
554.9417832995377
554.3856651045925
553.8187328912499
553.2415621062688
552.6547312002348
552.0588108391034
551.454385252865
550.8420381953525
550.2223625292913
549.5959674108769
548.9634679283884
548.3254943028659
547.6826857494613
547.0357085801444
546.3852529457492
545.7320345661859
545.0768038309308
544.4203272122644
543.7633909183426
543.1068025264192
542.4513948310296
541.7980254019798
541.1475740992341
540.5009360214085
539.8590404341933
539.2228412464541
538.5933313657919
537.9715392884766
537.3585125241647
536.7553246309361
536.1630838643335
535.5829174181229
535.0159657034234
534.4633886921248
533.9263715788092
533.4061189543503
532.9038618920446
532.4208363677443
531.9583114791182
531.517580744561
531.0999298146861
530.7066497818811
530.3390306238723
529.9983525119335
529.6858659188805
529.4028041252591
529.1503802308908
528.929757877243
528.7420389409045
528.5882546231719
528.4693487449716
528.386203659853
528.3396307996663
528.3303768011691
528.3590905983273
528.4263366457458
528.5326065738302
528.6782794907131
528.8636026808069
529.0887251208951
529.3536817292268
529.6583590850256
530.0024830587514
530.3856434796016
530.8072909017635
531.2667275971064
531.7631101777154
532.2954464913178
532.8625867843894
533.463239557182
534.0959442732008
534.7590795189564
535.4508692928591
536.1693986263341
536.912634666848
537.6784208060535
538.4644832385591
539.2684323021118
540.0877716789666
540.9199087461128
541.7621659718582
542.6117978261967
543.4659758501834
544.3218092956289
545.1763682453044
546.0266916295926
546.8697909371333
547.7026757694024
548.5223773534613
549.3259615322706
550.1105333382645
550.8732434068489
551.6112890253403
552.3219359153147
553.002523431866
553.650498942608
554.2634337054901
554.8390138780095
555.3750188352379
555.8693451614935
556.3200748971085
556.72548915719
557.0840782260884
557.3945548009954
557.6558442150003
557.8670863592649
558.0276381542294
558.1370607232775
558.1951476960056
558.2019028082385
558.1575386799138
558.0624896551271
557.9174102695024
557.7231573232073
557.4807899957367
557.1915723217191
556.856954291172
556.478575165038
556.0582607438013
555.5980084552128
555.0999754127108
554.5664582443528
553.9998996347717
553.4028805854197
552.7781121919053
552.1284161252664
551.4567291004632
550.766063737466
550.0594846269694
549.3401237550011
548.6111503935837
547.8757501469589
547.1371328386133
546.3984973827963
545.6630103768175
544.9337912523167
544.2138994530696
543.5063347606199
542.8140403484418
542.1398320562661
541.4864128161795
540.8563652670987
540.252120505735
539.6759615295136
539.130017876456
538.616273938374
538.1365540925826
537.6925088032962
537.2856305120262
536.9172539449032
536.5885587196678
536.3005657397317
536.0541050490173
535.849835259426
535.6882159976205
535.5695317766363
535.4938684385528
535.4611048667825
535.470948245539
535.5229568976047
535.6165025820635
535.7507985644844
535.9249304623835
536.137853371496
536.388383274824
536.6752170499989
536.996928714318
537.3519876511806
537.7387746442379
538.1555918278237
538.6006465508796
539.0720809445697
539.5679860157999
540.0864222263297
540.6254138676966
541.1829496804161
541.7570090361015
542.3455659190628
542.9465949956276
543.5580927758344
544.178085456635
544.8046432740006
545.4358664492787
546.0699083677981
546.7049812048774
547.339343675699
547.9712878011062
548.599159089818
549.2213705956303
549.8364024802235
550.4428268410624
551.0393257611529
551.6246858610266
552.1978023747406
552.757683969308
553.3034671432491
553.8343766567854
554.3497427973601
554.8490010649631
555.331687932961
555.7974386941831
556.245962076352
556.6770436209559
557.0905450233558
557.4863819333116
557.86451953589
558.2249944872848
558.5679201492525
558.8934914252435
559.2019739708976
559.4937066550648
559.7691113387256
560.0286508888519
560.2728245837253
560.5021920606418
560.7173475919559
560.918905662779
561.1075195930856
561.2838503250208
561.4485748459463
561.6023993567128
561.746055971258
561.8802898366118
562.0058338771355
562.1234031287506
562.2336799106728
562.3373113488724
562.4348991370539
562.5270035260977
562.6141510521489
562.6968306801954
562.7754961954394
562.8505688993693
562.9224164664398
562.9913692953563
563.0577333566149
563.1217780846655
563.1837364984599
563.243773442285
563.3019692396123
563.3583559130416
563.4129122974257
563.4655861276685
563.5162936364387
563.5649120011951
563.611272880457
563.655143454955
563.6962248509266
563.7341544598544
563.7685053728686
563.7987980150859
563.8244935537975
563.8450064184741
563.8597144377686
563.8679424585732
563.8690047504505
563.8621843858414
563.8467592066221
563.8220002079323
563.7871553420074
563.7414420877118
563.6840705873772
563.6142362102778
563.5311205476548
563.4339075196676
563.3217997416499
563.1940023982003
563.0497534590751
562.8882952905878
562.7088789869683
562.5107769864047
562.29330887265
562.0558480222264
561.7978201715329
561.5186760933567
561.2179252988184
560.895121516278
560.5498499695497
560.1817310733907
559.790444964302
559.375715790412
558.9373103410734
558.4750221533658
557.9887133650174
557.4783232279667
556.9438878940109
556.3855548790629
555.8036064577637
555.1984398315127
554.5705208102036
553.9203795330377
553.2485833008619
552.5557379461908
551.8424890959917
551.1095236065212
550.3575732743392
549.587416396796
548.7998933757395
547.9958930785741
547.1763646733662
546.3423406308888
545.4949301362379
544.6353136689276
543.7647387420019
542.8844795081168
541.9958604431745
541.1002698428715
540.1991238830619
539.2938549784304
538.3859107097135
537.4767279588029
536.5677432547338
535.6603866022809
534.756109781728
533.8563734561013
532.9626190615993
532.0762819387695
531.1987759102567
530.3314774181974
529.4757484172148
528.6329175242365
527.8042563723985
526.9909900995751
526.1942987484447
525.4153256245702
524.6551688326742
523.9148979028342
523.1955477221233
522.4981074364222
521.8235150868278
521.1726489149544
520.5463059795203
519.9452069109878
519.369998248413
518.8212570122781
518.2994757596165
517.8050582275771
517.3383231934281
516.8994926401923
516.4887256384111
516.1061155452531
515.7516879115706
515.4253877071171
515.1270662979297
514.8564942156115
514.6133496720951
514.3972353035776
514.2076951189063
514.0442082518402
513.906198925191
513.7930450548008
513.7040548473487
513.638485520222
513.5955383477268
513.5743716953601
513.5740906160934
513.5937298147959
513.632277564208
513.6886663236489
513.7617715678163
513.8504319851473
513.9534672546657
514.0696829331519
514.1978824657972
514.3368536786211
514.4853753841325
514.6422086336454
514.8061054235964
514.975806153519
515.150069780532
515.3276716692906
515.5074106024056
515.6880875061748
515.8685056169095
516.0474763232064
516.2238487274597
516.3964755523074
516.5642529246619
516.7261186171067
516.8810704497997
517.0281433909338
517.1664261598654
517.2950517496566
517.4132231385257
517.5201863363167
517.6152223766907
517.697629014487
517.7667090203666
517.8217755833133
517.8621598036639
517.8872588498461
517.8965495791285
517.8895927782922
517.8660261002382
517.8255587110373
517.7679764040358
517.693132839091
517.6009264498027
517.4913084199219
517.3642689300797
517.2198318220438
517.0580482936973
516.8789981799565
516.6827747468384
516.469478940282
516.2392562299956
515.9922869556106
515.728769466772
515.4489311654387
515.1530394031121
514.8413928353716
514.514330822312
514.1722238300299
513.8154554272652
513.444406273292
513.0594638665907
512.6610344305356
512.2495244604454
511.8253554292638
511.38896153031766
510.9407702627092
510.4812093248662
510.0107181906719
509.5297228540899
509.0386369000645
508.53786016571826
508.02778598356247
507.50879303732984
506.9812349029025
506.4454513840374
505.9017646397476
505.3504909267968
504.79194637405953
504.22644485203716
503.6542855580888
503.0757519577211
502.4911242820043
501.9006794411412
501.30469587605904
500.70348992231095
500.0973769000383
499.48665516470663
498.87160539775334
498.25250443026385
497.6296231496639
497.00323899266795
496.37364364276607
495.7411351445141
495.1060201871542
494.46862455146703
493.8293031398182
493.1884123592949
492.5463432696431
491.9035039611471
491.2603321073135
490.6172938712309
489.97490469962366
489.333735387383
488.69440349770423
488.05756972194683
487.4239566830885
486.79433111801836
486.1694904779779
485.5502641615806
484.937507223341
484.3321130292709
483.7350122083087
483.14717328622334
482.5696183541841
482.00340367959245
481.4496109438133
480.90934875196706
480.38373810708896
479.87393450791745
479.381112735157
478.9064668008012
478.4511963902683
478.01651950406995
477.60364122067483
477.21376136385277
476.84805319389795
476.5076722416507
476.19373859637324
475.90735410829626
475.64957589521885
475.4214183633141
475.2238467091717
475.0577751951475
474.9240704674457
474.82352712411705
474.7568611593623
474.7246945091089
474.72753897106054
474.7658014357324
474.83975816604607
474.9495680802453
475.0952638094626
475.276749245005
475.49380399069923
475.74607529154713
476.0330838543478
476.3542197539619
476.70873495178586
477.09573885307515
477.5142080033515
477.96299054260595
478.44080528017923
478.9462309262914
479.47772049709585
480.0335971449572
480.61205524075353
481.2111599011982
481.8288514764693
482.46295917172546
483.11121310155585
483.771257299236
484.4406504384276
485.11687364059554
485.7973541938983
486.4794703967368
487.1605658869319
487.8379603940525
488.50896553160095
489.17088346304644
489.82102559374687
490.456742441139
491.0754187862976
491.67449069006443
492.2514467715474
492.80386405288687
493.3294084317688
493.8258567350563
494.2911029248988
494.7231592088225
495.120162651968
495.4803913705242
495.80228378747574
496.08443916048356
496.32562333567324
496.5247641481225
496.68091158920373
496.7932846418774
496.86133165159794
496.8847229472593
496.8633461581605
496.79731283867153
496.6869369015694
496.5327480164274
496.33548107580043
496.0960722620525
495.815654926959
495.4955331515194
495.1372094771958
494.7423553558073
494.31282490907995
493.8506179799254
493.3578750953128
492.8368666338052
492.28997185722903
491.7196718084018
491.1285474558001
490.51925696080366
489.89454037745975
489.25721515999385
488.61014753266306
487.95624116497316
487.2984277560368
486.6396465620364
485.98283047606634
485.33087653334417
484.6866445903605
484.05294731130783
483.4325360077856
482.82808915664316
482.24219256140725
481.6773396452769
481.13590840252726
480.6201565077672
480.1322149121232
479.67408466232087
479.24762178378563
478.8545342486021
478.49637347451363
478.17453795149436
477.890258354279
477.6445925192149
477.43842579286076
477.2724744432944
477.1472856921995
477.06322996082395
477.02050936221406
477.0191737007483
477.05910908245545
477.1400471293861
477.2615507482267
477.42305084566533
477.6238422000639
477.8630866239927
478.13981884251893
478.452952748661
478.8012966845415
479.183564615184
479.5983811496522
480.04429348070073
480.5197791989922
481.02325863068614
481.5531006559111
482.1076217062862
482.6851106069776
483.2838268476009
483.9020225972638
484.53794256152025
485.18983892122253
485.855981711001
486.53466011610453
487.22419423610376
487.92293987022543
488.6292972757993
489.3417150650352
490.0586912492289
490.7787757298976
491.5005806768284
492.22278365451683
492.94412571646546
493.66341971968615
494.37956039728726
495.0915119697016
495.7983215298665
496.49910585004255
497.19307059964984
497.8794810433611
498.55767807734605
499.2270739960008
499.88714129868384
500.53743181885426
501.17756535573716
501.80724041897946
502.426205733969
503.034275512165
503.6313184907423
504.217260443027
504.79210496014304
505.3559134644389
505.90876751105117
506.450778442556
506.98208111194833
507.5028313716869
508.0132052874225
508.51339126367264
509.00359261241124
509.4840189023859
509.95488350253953
510.41640975710226
510.86882171950185
511.31234359770934
511.7471816849057
512.1735522975787
512.5916665344722
513.0017177239213
513.4038954485197
513.7983804193065
514.1853443355791
514.5649416242046
514.9373081481684
515.3025534321831
515.6607706933275
516.0120341689329
516.3563945086211
516.6938809101563
517.0245057018458
517.3482583755127
517.6651173989092
517.975040363261
518.277969650617
518.5738317342633
518.8625410463485
519.1439929459747
519.4180764670118
519.6846718891165
519.943641786162
520.194837185312
520.4381035242204
520.6732800440418
520.9001991351859
521.1186854896583
521.328555012129
521.5296377069196
521.7217592534392
521.9047445239427
522.0784142576375
522.2425969234412
522.3971319060098
522.5418464154939
522.6765758394066
522.8011531998865
522.9154336524308
523.019279737107
523.1125532297876
523.1951243852087
523.2668701304739
523.3276832383976
523.377466226741
523.416120824416
523.4435612988526
523.4597101725244
523.4645005427741
523.4578761529343
523.439800202345
523.4102513127067
523.3692153035903
523.316690034004
523.2526813331538
523.1772118996928
523.0903237252902
522.9920676256837
522.8825081233599
522.7617150422203
522.629770207757
522.4867717483846
522.3328361940611
522.1680941421623
521.9926970410837
521.8068021228272
521.6105834688517
521.4042298756709
521.1879493099107
520.9619668238835
520.7265159298838
520.481842974256
520.2282179958833
519.9659149726376
519.6952336555571
519.4164864634575
519.1299962346013
518.836111448262
518.5351777043464
518.2275680930677
517.9136521185928
517.5938302221056
517.2685071028384
516.9381022418435
516.6030494941411
516.2637988767591
515.9208095646135
515.5745538852809
515.2255125224071
514.8741761945713
514.5210472470973
514.1666325550515
513.8114472811935
513.4560097003698
513.1008491194858
512.7465050647685
512.3935288263236
512.042469760075
511.6938746443038
511.34830004436725
511.0062960687009
510.66841621549656
510.33522297891176
510.0072739517363
509.6851275615646
509.36932901151124
509.0604311256583
508.7589802374788
508.46551530734166
508.18057137110753
507.9046764321817
507.6383484131866
507.38209425909224
507.1364045319649
506.90176329064155
506.6786403891713
506.4674946876527
506.2687663965647
506.0828912740607
505.91028217729007
505.75133918063347
505.6064399801165
505.47593897881944
505.36017948007924
505.25948636984225
505.1741611197452
505.10447901429103
505.05069506930454
505.01304119098967
504.99172785418267
504.986923748974
504.9987767465538
505.02740860656877
505.07291634315294
505.1353692604557
505.2148059325547
505.31124673888013
505.4246782466063
505.5550551897785
505.7023000590738
505.8662958778569
506.04689871644774
506.24393493676666
506.45719639357293
506.6864443827295
506.9314047832448
507.19178094535414
507.4672383790888
507.7574157934632
508.0619232055717
508.3803403004599
508.7122060467341
509.05702791582195
509.41428897905024
509.7834465222127
510.16392655903655
510.55511395260555
510.95635744473987
511.3669854181781
511.78629778212405
512.2135821652936
512.6481064328997
513.0891114975902
513.535810643719
513.9873931295975
514.4430298798716
514.9018792773195
515.3630866374219
515.8257838282927
516.2890889848687
516.752101789793
517.213924997108
517.6736555569146
518.130378055078
518.5831821930417
519.0311518919214
519.4733762368844
519.908956099098
520.336986785541
520.7565910968266
521.1668890135022
521.5670199119731
521.9561339131611
522.3334049625989
522.6980309216833
523.0492402994466
523.3862793586508
523.7084187699944
524.0149622012941
524.3052460386435
524.5786368900561
524.8345266110969
525.0723598460054
525.2916112778594
525.4918066049524
525.6725084170977
525.8333216082302
525.9738897220999
526.0938998720377
526.1930963733552
526.2712637467425
526.328231496565
526.3638676426906
526.3780805443071
526.3708247348643
526.3420911715867
526.2919278911739
526.2204145914541
526.1276763657453
526.0138842284716
525.8792469575476
525.7240094726329
525.5484621317003
525.3529261478883
525.1377632245387
524.9033808843498
524.6502206343805
524.3787574333237
524.0895038255222
523.7829945070683
523.459806054319
523.1205529744714
522.7659149615884
522.3966063388852
522.0133442191838
521.6168664536171
521.2079225949444
520.7872883898264
520.3557621159389
519.9141582545294
519.4633181056828
519.0041112967284
518.5374370826005
518.0642231895797
517.5854180067561
517.1019890291694
516.6149251837292
516.125243146191
515.6339936224451
515.1422746024183
514.6511992233446
514.1619163996586
513.6756097324571
513.1934858383635
512.7167892467745
512.2467759497961
511.7847196591884
511.33190444302335
510.88964095316055
510.4592495241299
510.0420647596124
509.6394396484906
509.2527473438048
508.8833764044884
508.5327171454991
508.20216295297735
507.8931134797409
507.60697787990745
507.3451584479533
507.10904928460826
506.900030316449
506.71945221672223
506.56864039841633
506.4488899139595
506.3614623326833
506.30758244441614
506.28842383945954
506.30510732492917
506.3586925298132
506.45017154474414
506.58046245525367
506.75041161757593
506.9607674816892
507.2121870732488
507.50523599902573
507.84036685773856
508.21793065345645
508.6381534849752
509.10113305814104
509.60684636513116
510.15513366682035
510.7457026765592
511.37813130497176
512.0518470278631
512.7661309017961
513.520113296352
514.3127679392819
515.1429219059171
516.0092577113901
516.9103096682054
517.844463281434
518.8099665499833
519.8049336476253
520.8273298103071
521.875000740885
522.9456547948208
524.0368809403216
525.1461520699332
526.2708333479794
527.40819781888
528.555427279033
529.7096313046093
530.8678649121783
532.0271406412165
533.1844373096585
534.3367117693768
535.4809201845419
536.6140070700167
537.7329426972481
538.8347191118976
539.9163657680875
540.9749692001366
542.0076989959866
543.0117985221718
543.9846321567841
544.9236797429417
545.8265348552846
546.6909216492419
547.5147148727879
548.2959477132774
549.03281850151
549.723698142841
550.3671270145362
550.9617744015388
551.5065043399795
552.0004355924657
552.4429055614656
552.8335001734226
553.1720358632756
553.4585504188026
553.6933265002826
553.8768648125724
554.0098920994865
554.093348927984
554.1283834002329
554.1163595952872
554.0588502773805
553.9576269854326
553.8146384570456
553.6320032097308
553.4119787101437
553.1569859717025
552.8695760870621
552.5524150547978
552.2082781287882
551.8400340752646
551.4506503883608
551.0431719963872
550.6207216631533
550.1864587556543
549.7435861009448
549.295321956319
548.8448742502575
548.3954276940925
547.9501306858698
547.5120867193326
547.0843395881349
546.6698502202847
546.2714847489974
545.8920139248341
545.5340869196256
545.2002342570363
544.8928563894834
544.6142067954055
544.3663870175985
544.1513405258368
543.9708454579663
543.8265063866863
543.7197515697949
543.6518268712879
543.6237973752413
543.636543593294
543.6907587042306
543.7869578345882
543.9254731916674
544.1064523168964
544.3298748339784
544.5955417027316
544.9030938190953
545.2520118804136
545.6416191981344
546.0710872091172
546.5394567596462
547.0456314463628
547.5883977524255
548.1664303500916
548.778297726712
549.422483340254
550.0973895246534
550.8013503393089
551.532626948223
552.2894334532108
553.0699405606617
553.872289987346
554.6946043778023
555.5349859617513
556.3915453650734
557.2624039804717
558.1457005253887
559.0396082038565
559.9423296597746
560.8521111028926
561.7672536424687
562.6861000152269
563.6070488889605
564.5285594706621
565.4491552951094
566.3674270726635
567.2820523790599
568.1917820508572
569.0954501652699
569.9919814490695
570.88038742203
571.7597511402092
572.6292464560996
573.4881172839397
574.3356846261416
575.1713533009248
575.9946164235924
576.8050402362157
577.6022597721802
578.3859919297045
579.1560180342842
579.9121950337578
580.6544784962637
581.3828830565429
582.0974466297636
582.7982592838242
583.4854389396301
584.1591435624637
584.819567782638
585.4669172272928
586.1014281264701
586.7233537539086
587.3329659050063
587.9305518812573
588.5164026585525
589.090809590208
589.6540609333017
590.2064537464062
590.7482777284204
591.2798237348677
591.8013664290803
592.3131756936314
592.8155089931414
593.3086175343486
593.7927311465667
594.2680610465395
594.7348052013292
595.1931234503584
595.6431544204027
596.0850018662389
596.5187472544833
596.9444495875457
597.3621456292587
597.7718459945362
598.1735336051738
598.5671665396233
598.95268979118
599.330032156389
599.6990990377354
600.0597829367463
600.4119500157321
600.7554506128661
601.0901166150578
601.4157763683558
601.7322368538736
602.0392942425182
602.3367443367622
602.6243647552433
602.9019320131044
603.1692143772362
603.42598002881
603.6719964170524
603.9070296060103
604.1308413767514
604.343197113106
604.5438647293865
604.7326179141294
604.9092327970196
605.0734954400542
605.2252049837545
605.3641747828793
605.4902138280715
605.6031450390551
605.7028036900799
605.7890358531937
605.8617121704502
605.920711055493
605.9659281074487
605.9972635010758
606.0146443353237
606.018014162515
606.0073356421723
605.9825822502002
605.943749572475
605.8908557000541
605.8239350520158
605.7430430291081
605.6482563801873
605.5396625688771
605.4173774245081
605.2815321539542
605.132262335348
604.9697381767191
604.7941467322067
604.6057005141218
604.4046352578428
604.1912034553864
603.9656721146894
603.7283268863284
603.4794740073772
603.2194334014864
602.9485381532164
602.6671383194013
602.3756090295257
602.074336770976
601.7637276690739
601.4441982335313
601.1161703044912
600.7800832285557
600.4363973587182
600.0855801770836
599.7281231259673
599.3645192862855
598.9952628206267
598.6208634215897
598.2418455840874
597.8587348922835
597.4720573306618
597.0823404336177
596.6901141849669
596.2959208144704
595.9003028100165
595.5038128537647
595.1069976481292
594.7104036175923
594.3145803705897
593.9200821213569
593.5274627979176
593.1372602158821
592.7500084560687
592.36624359115
591.986498635405
591.6112942343158
591.2411445899519
590.8765500824301
590.5179985174358
590.1659573977126
589.820880985082
589.4832194668182
589.1534153510844
588.8319001637602
588.5190912952156
588.2153889958133
587.9211756585638
587.6368216677924
587.3626827495451
587.0990931536869
586.8463587015004
586.6047604939195
586.3745606311887
586.1559969675244
585.94929111762
585.7546368983121
585.5722107289512
585.4021491469042
585.2445787196787
585.0995958228024
584.9672639121404
584.8476305301025
584.7407073117868
584.6464805721723
584.5649021567259
584.4958867138357
584.4393240433828
584.3950806141406
584.3629926357246
584.3428657527425
584.33447479851
584.337570271874
584.3518652835885
584.3770399700269
584.4127370216378
584.458585769615
584.5141784539815
584.5790794293666
584.6528278790086
584.7349252874453
584.8248491449771
584.922047038842
585.0259462882185
585.135948444872
585.2514282042322
585.3717323538444
585.4961897496277
585.6241082537192
585.7547761380094
585.8874548266674
586.0213867962019
586.1558011770262
586.2899195881265
586.4229446482863
586.5540682058969
586.6824907315931
586.8073906098263
586.9279437215743
587.0433210141405
587.152686030762
587.2552099455721
587.3500648134606
587.4364256585069
587.5134768685022
587.5804098588811
587.6364273624775
587.6807543364465
587.7126203721117
587.7312792359993
587.7360043702087
587.7260954480195
587.7008807604412
587.659715229055
587.601976078325
587.527067099782
587.434409372786
587.323464428334
587.1937355448124
587.0447536788981
586.8760849671137
586.687338007094
586.4781690666141
586.2482720335123
585.997387956475
585.7252948362743
585.4318125676414
585.1167878215365
584.780113510611
584.4217217198535
584.0415807266022
583.6396893905909
583.2160885981297
582.7708682712155
582.304157106286
581.8161166205288
581.3069503449806
580.7769023081195
580.2262492898722
579.6553019229716
579.0644103303491
578.4539679525027
577.8243937978766
577.1761387909743
576.5096856144246
575.8255444586088
575.124251123766
574.4063937121981
573.672611604832
572.9235648686787
572.1599303754293
571.382412991371
570.59174125386
569.7886650295629
568.9739482297689
568.1483826678636
567.3127904068798
566.4680128131503
565.6149166967333
564.754406590348
563.8873952148391
563.0148258874933
562.1376682737049
561.2569292085534
560.37364835531
559.4889007271007
558.6038038321391
557.7195145228477
556.8372153021497
555.95812032465
555.0834793179608
554.2145642156884
553.3526688957578
552.4990975740944
551.6551789157148
550.822264361156
550.001732765636
549.1949728298837
548.4034001816603
547.6284458844137
546.8715578750126
546.1342001507153
545.4178431843217
544.7239563574404
544.0540066442385
543.4094546560121
542.791745974092
542.2023109192313
541.6425595546419
541.1138653864055
540.6175726500281
540.1549968350574
539.7274034180016
539.3360038295982
538.9819466722879
538.6663196972659
538.3901452335468
538.1543515150663
537.9597898693391
537.8072148274592
537.6972751927428
537.6305204468579
537.6073766979574
537.6281555709032
537.6930437286228
537.8020949519081
537.9552269629102
538.152223137274
538.392717219914
538.6761917673352
539.0019792690521
539.3692528583227
539.7770286239254
540.2241663760283
540.7093623804695
541.2311559661989
541.7879391874592
542.3779523548167
542.999284995362
543.6498797715304
544.327537430346
545.0299183661422
545.7545514439674
546.4988370054587
547.260057227887
548.0353783615958
548.8218754591751
549.6165360630309
550.4162846427247
551.2179796185112
552.0184396256386
552.8144509985708
553.6027828400868
554.3801917840775
555.1434313757435
555.8892812344619
556.6145523327767
557.3160943844108
557.9908202882651
558.6357324820518
559.2479273503961
559.8246146425633
560.3631187881282
560.8609013938969
561.3155543483421
561.7248177249827
562.0866070527119
562.3990109943005
562.6602741749499
562.8687948659584
563.0231815393832
563.1222797839558
563.1651551682478
563.1511152136545
563.0797159675493
562.9507623846555
562.7642913624925
562.5205586715739
562.2200756043042
561.8635863411741
561.4520559658371
560.9866930368022
560.4689237343525
559.9003873764069
559.282911182473
558.6185187415258
557.909404423212
557.1579193521718
556.3665709587813
555.5380101743112
554.6750150972688
553.7804731935771
552.8573841784828
551.9088534634756
550.9380855317863
549.9483600550335
548.9430125018566
547.9254104088385
546.89894059813
545.8669853288575
544.8329114089713
543.800043875526
542.7716526281489
541.7509432955175
540.7410548910509
539.7450427868262
538.7658558599003
537.8063362510885
536.8692024934361
535.9570422976112
535.0723065166471
534.2172868077066
533.3941028642007
532.6047145912627
531.8509025882112
531.134276007092
530.4562574555433
529.8180755089205
529.2207823137704
528.6652373821374
528.1521209955845
527.6819270133656
527.254963294402
526.8713640216139
526.5310811688001
526.2338986266
525.9794339846226
525.7671498493165
525.5963504795989
525.4661942173149
525.3757151920347
525.3238083958247
525.309252258728
525.3307248060445
525.3868048303156
525.4759865561089
525.596687944226
525.7472567495585
525.925985307685
526.1311187210285
526.3608605600577
526.6133958087241
526.8868962352111
527.1795233967719
527.4894465789355
527.8148495114849
528.1539390407765
528.5049467150118
528.8661406458507
529.235832342657
529.6123873843773
529.9942135933401
530.3797788954287
530.7676130944279
531.1563133800327
531.5445557927392
531.9310841938222
532.3147248698779
532.6943876396593
533.0690578478828
533.4377941786508
533.7997367325949
534.154097097017
534.5001720079956
534.8373305656436
535.1650343160118
535.4828291370666
535.7903241027299
536.0872075110115
536.3732479335052
536.6482982151342
536.9122691430878
537.1651200070685
537.4068639881752
537.6375534401473
537.8572708849395
538.0661344792652
538.2642964163122
538.4519521516537
538.6293098650019
538.7965965087533
538.9540635605176
539.1019684181334
539.2405774303166
539.3701666854128
539.4910186051567
539.6034121881148
539.7076331871754
539.8039717788039
539.8927143164667
539.9741400877749
540.0485186814245
540.1161144619775
540.1771762586784
540.2319273197809
540.2805661564445
540.3232673667156
540.360178192456
540.3914240157574
540.4171097467256
540.4373171840917
540.4521004721289
540.4614992828775
540.4655371431359
540.4642180264904
540.457518720013
540.4453942663093
540.4277835484044
540.4046019376026
540.3757492480074
540.341100129405
540.3005162301888
540.2538431335141
540.2009228471899
540.1415779425898
540.0756285571886
540.0028743902081
539.9231093717618
539.8361253999815
539.7416963976348
539.6395927643499
539.529573666125
539.4114032560432
539.2848407011105
539.149643295777
539.0055739079669
538.8523931636325
538.6898647108957
538.5177516322898
538.3358237425739
538.1438605526936
537.9416388580476
537.7289553689534
537.5056211793388
537.2714453763928
537.0262491119018
536.7698642871917
536.5021344524348
536.2229112559525
535.9320661329247
535.6294845612406
535.3150670000123
534.9887209469935
534.6503724072353
534.2999642009781
533.937458611565
533.5628334305497
533.1760911874171
532.7772465549916
532.3663377264779
531.9434200938747
531.5085642529538
531.0618693207708
530.6034478557093
530.1334391646864
529.6520051496598
529.1593283848325
528.6556101880947
528.1410707766397
527.6159470327161
527.0805077201923
526.5350337918669
525.9798336029097
525.4152383837971
524.841593388974
524.259268640829
523.668649888011
523.0701380725662
522.4641596926808
521.8511597171603
521.2316010687107
520.6059619753389
519.9747398443391
519.3384396333877
518.6975838645504
518.0527116107261
517.404375404076
516.7531359178053
516.0995718256482
515.4442699810019
514.7878265956715
514.1308506183944
513.4739583259624
512.817767930242
512.1629094691092
511.51001278943903
510.8597086811124
510.2126386901201
509.5694343312377
508.9307245781655
508.29712991444916
507.66927377555646
507.0477765742425
506.4332520009381
505.82630550137833
505.22753940797054
504.63754284768333
504.0568903968171
503.48613849725723
502.92583052800313
502.3764886557559
501.8386210091106
501.31272026165095
500.79925357862226
500.29866998813
499.8113925118749
499.33782355270654
498.8783371906613
498.4332802720868
498.0029735952639
497.58770439765266
497.187731981101
496.8032801768337
496.43454077171157
496.08166159545914
495.7447606937771
495.42391855532856
495.11917927303836
494.8305474146821
494.557982593694
494.301418194157
494.06074975120686
493.8358346076601
493.6264850973497
493.4324770869765
493.25354996042455
493.08939585964185
492.9396730921441
492.8039978121334
492.68194684690127
492.5730627717322
492.47685034711793
492.39277541031373
492.3202637884232
492.2587022242522
492.2074503647689
492.16583109260785
492.1331384336662
492.10863464681154
492.0915540475126
492.0811002379712
492.0764520557288
492.07676968330674
492.08119668750777
492.08885788502414
492.09886173330324
492.11030057998227
492.1222553297541
492.1337913952326
492.14397874325834
492.1518749177033
492.15653204581895
492.1570037532946
492.15234322619614
492.1416165750999
492.1238922059734
492.09825198161684
492.06378482823254
492.019606581543
491.96485151042253
491.898683738592
491.8202802203457
491.72885746026077
491.62365007490394
491.5039197532287
491.36896397569905
491.218115829709
491.0507437117372
490.8662552322164
490.6640943240852
490.4437424335866
490.20472596933644
489.9466171188887
489.66903458551815
489.3716486126276
489.05417502320284
488.71637124613994
488.35804526345055
487.97905131878895
487.579274423911
487.158644883709
486.7171414656842
486.2547878348689
485.7716444393421
485.2678199613386
484.74346071423327
484.1987618446055
483.63396130814834
483.0493186154507
482.44513937191414
481.8217604965029
481.179566199107
480.5189691983928
479.8404184625443
479.14439187748366
478.4314023135859
477.70198425288476
476.95670466766563
476.19618073141595
475.4210809772033
474.6320883118234
473.829902801193
473.01523529889795
472.1888179723717
471.3514056613886
470.5037659133974
469.64668601347654
468.7809750950769
467.90745487280867
467.026973949685
466.14039764997585
465.2486107478334
464.35251322158507
463.45302649983137
462.5511016504641
461.64772781853196
460.7439279787306
459.84074861074055
458.93927397355196
458.04061465620634
457.14590760392485
456.25629873925175
455.3729449385006
454.49702433897266
453.6297310740887
452.77227414416666
451.9258802421904
451.0918008521543
450.271301863268
449.46566844748634
448.6761990785352
447.9041949986049
447.1509558214087
446.41779007442324
445.70600577845016
445.01690514138414
444.351778855216
443.71190876489067
443.0985549124278
442.51296193697283
441.95635000028193
441.4299055838747
440.93477636941736
440.47206576419626
440.0428337228013
439.6480777977997
439.2887381193106
438.96568030110575
438.67969788672787
438.4315125492725
438.2217568713134
438.05097704162966
437.91962055715584
437.82803945777096
437.7764741827325
437.7650508135091
437.7937829453017
437.86255868708804
437.9711478380528
438.1191766713593
438.30614450325345
438.53140779184974
438.79419106730984
439.09357867466736
439.42852250861085
439.7978419435552
440.2002224442183
440.63421282613245
441.09823212193135
441.59056632721865
442.1093768679648
442.65270767065454
443.21847990077384
443.80451365355026
444.40852199484016
445.02811667771283
445.66082089946707
446.3040848554582
446.9552889010366
447.61175836153836
448.27079458444194
448.92966770321567
449.5856255294912
450.23589850007465
450.8777267957831
451.5083680181838
452.1251094422452
452.72526271305395
453.3062018386155
453.8653814074394
454.4003417690575
454.9087271564118
455.3882705748497
455.83682150250985
456.25235494951744
456.6329816667298
456.9769484101805
457.28266524626565
457.5486987206222
457.7737412658665
457.95662808186563
458.09639986217434
458.1923101836022
458.2438287440032
458.2506294472601
458.21259586402317
458.1298222662374
458.0026147085112
457.8314788499599
457.61713831641987
457.36050922723285
457.0627073477768
456.72504848948194
456.349044468765
455.93638362997945
455.48891289972966
455.0086273616462
454.497645152416
453.9582135057495
453.39268461126034
452.8035181979001
452.19327839093336
451.56463201775955
450.9203423102147
450.26324066437417
449.596213617887
448.9221918326444
448.2441169285773
447.56494062395996
446.8875993933608
446.2150041622889
445.55003850199284
444.8955439603077
444.25431476710554
443.6290691512428
443.0224408780333
442.43697349839255
441.87510879372496
441.33916949603827
440.83136251255854
440.35375677667946
439.9082816826969
439.49672428068163
439.12072100562597
438.7817504521039
438.4811248005088
438.21999972174933
437.99936350952134
437.82004261411663
437.68270386359916
437.587837931388
437.53577419287444
437.5266810407299
437.56056937332465
437.6372945927164
437.7565636840835
437.91794086860244
438.1208472093441
438.3645782386601
438.648298036509
438.9710666932038
439.33182666727254
439.72942665263975
440.1626260666293
440.63009979657005
441.13044742828447
441.66220247718854
442.22383495471206
442.81377123348307
443.4304006252413
444.072081943482
444.7371586514306
445.42396061671076
446.1308188780025
446.8560603607671
447.59802834530745
448.35509175027227
449.1256432446225
449.9081012225173
450.7009220261398
451.502607172619
452.31169233217497
453.12676169195737
453.94645287610507
454.7694679680305
455.5945644172638
456.4205606315018
457.24633004656636
458.0708298714369
458.8930704865788
459.71213028019764
460.52714155174453
461.33729121391104
462.141836470782
462.94009861067974
463.7314523585773
464.51533485201094
465.2912482362457
466.05874499649644
466.81743532324964
467.56700399925563
468.3071955156899
469.03778177310414
469.7585596355245
470.4693542408682
471.1700196255748
471.8604302033239
472.5404870621204
473.21011077340603
473.8692405819746
474.5178222961959
475.15581109625634
475.7831697215628
476.39986193255817
477.00584565901767
477.60107914015754
478.1855228250084
478.7591306389207
479.3218636038358
479.8736822238253
480.4145549504081
480.9444456062175
481.463312313612
481.9710914514114
482.4676968992311
482.9530256941723
483.42696823364133
483.88939470454585
484.34017912600876
484.7791757075647
485.20623716103256
485.62121155337235
486.02393285645144
486.4142203023719
486.7918797753389
487.1567160841358
487.5085345278371
487.8471317017908
488.1722994110901
488.483837315371
488.7815306470258
489.06516933325145
489.33454726308014
489.5894571655329
489.8296963165237
490.055067761994
490.265379298486
490.4604466784739
490.6400967164574
490.8041638830765
490.9524867052287
491.08492152803086
491.20133221980797
491.30159286762535
491.3855970003714
491.45324275965646
491.50444643117606
491.53913401699896
491.55724809466216
491.5587392350398
491.5435814123196
491.51176118380175
491.4632801218298
491.39815065993224
491.3163982342278
491.2180654939356
491.10320997794366
490.97190619604646
490.8242500261841
490.6603479257193
490.48031477689904
490.28429349512544
490.07243096241973
489.84488890233905
489.60184583923456
489.343501329169
489.07006500853726
488.7817608925319
488.47882728211835
488.1615233686055
487.830120608795
487.48490716649854
487.12618583029564
486.7542742104548
486.3695026922748
485.9722144737037
485.56277648928534
485.14156203747547
484.7089707001459
484.2654044046354
483.81128276896516
483.34702980528937
482.87309542904603
482.3899465309348
481.89806699124847
481.39795112090815
480.8901124568045
480.3750750424429
479.853375486188
479.32556490445097
478.79220642034153
478.2538725398999
477.71114901498674
477.1646409125635
476.6149678586047
476.062759293557
475.50866057644686
474.95333262990266
474.39743632245046
473.8416428087562
473.28662835442935
472.7330799967393
472.1816945848089
471.633177858878
471.0882347148483
470.5475790461192
470.0119260172705
469.48198864745774
468.95848959301463
468.44214452097214
467.9336716233989
467.433787791607
466.9431983116896
466.4625973369003
465.99268132630976
465.53413865498925
465.087648119713
464.6538707828459
464.23345927738194
463.82703863410154
463.43521761267243
463.0585845987919
462.6977012019934
462.3531089256501
462.0253272358877
461.714847463508
461.4221288640291
461.1475901820382
460.891620795996
460.65457659514664
460.436767110772
460.2384799549575
460.0599574955192
459.90139335392536
459.7629375987758
459.6446910034483
459.5467058315537
459.4689910215576
459.411499998588
459.3741381652334
459.3567683461867
459.359201361768
459.3811934166733
459.42244578572036
459.4826068031427
459.56126949762165
459.65797601462225
459.7722113261551
459.9034145252386
460.05097289981404
460.2142207169416
460.39244023389307
460.58485832360464
460.79066079072146
461.0089938448676
461.2389572047393
461.4796061363379
461.7299557602735
461.9889832981371
462.2556260647602
462.5287927531079
462.8073706509591
463.0902089924697
463.3761418372615
463.6639806057466
463.95251544720145
464.24051648237867
464.52674594917744
464.8099550837856
465.08889635462856
465.36231826564915
465.6289777202868
465.8876304992611
466.1370479206359
466.3760160062972
466.60334349164015
466.8178633463672
467.01842107731767
467.20390006890517
467.3732074172916
467.52529244224576
467.6591476868111
467.77381004066234
467.86835292333404
467.9418911934649
467.9935856410185
468.02265365986506
468.028368829199
468.01006261398226
467.96712593206075
467.89900833729996
467.8052191831203
467.6853351323291
467.5389988387599
467.3659153088221
467.165848027368
466.93862131003885
466.6841068040039
466.40223988377153
466.093022579268
465.75651984637153
465.39285574383325
465.0022050941808
464.5848000275106
464.14092749631493
463.6709333811885
463.1752048045123
462.6541785516084
462.10834508438666
461.5382395141774
460.9444591365286
460.32763997654644
459.68844672475956
459.02759126354744
458.34582527246255
457.6439549873075
456.92284359479845
456.1833908634661
455.4265070178957
454.65311691587647
453.86416788474065
453.060634903698
452.24351004781647
451.4138156097375
450.5725884137945
449.7208877972334
448.85978788133474
447.99037814576127
447.11377448072477
446.2311036988799
445.34350294623164
444.45213834747733
443.5581884369078
442.66286048975144
441.76739419330465
440.87305508237455
439.9811352332915
439.0929436107804
438.20979666236997
437.3330329852371
436.46399518909675
435.6040311777046
434.75449949570964
433.91677457752246
433.09224331283866
432.28230170289766
431.4883491996137
430.7117916504602
429.95404413547215
429.21650957434235
428.50058974025234
427.8076850249296
427.1391852502948
426.49647336899255
425.88091800326384
425.2938568811759
424.73661047709703
424.2104647216399
423.71667089526187
423.2564406598262
422.8309473994816
422.44131212508677
422.08859565787077
421.77379712965086
421.4978478982646
421.26160534155497
421.0658554197279
420.9112957033652
420.79853600355244
420.728090341566
420.7003669132968
420.71567130550795
420.77419466116265
420.87601537639284
421.0210902528937
421.20924603485514
421.44018002057385
421.71345442008146
422.0285022942549
422.38461661563565
422.78095743933125
423.2165400694987
423.690234680857
424.2007752312915
424.74675819480893
425.3266597260682
425.9388211505871
426.58144849503947
427.25262129960237
427.9502977441343
428.6723183309358
429.41641682729926
430.180225437038
430.9612784704884
431.75701877784684
432.5648112552871
433.3819613627492
434.20572355954414
435.0333282702268
435.86196171381636
436.6887943353513
437.5109832159947
438.3256967517854
439.1301288837366
439.9215005419976
440.6970741574782
441.45417009179914
442.1901939678897
442.90264002112457
443.58909858944816
444.24725642562254
444.8749045157402
445.46995758642095
446.0304747050016
446.55466122117883
447.04087595258056
447.4875971034432
447.89343127529804
448.2571525028439
448.5777574905202
448.85445754256904
449.08667756931004
449.27404436188544
449.4163945821535
449.5137629221793
449.5663875840771
449.57471117811326
449.5393859375619
449.46127695487866
449.34144150389665
449.1811324989742
448.9817975372889
448.7450403662801
448.4726163547988
448.1664176452213
447.8284629877159
447.46089885143385
447.0659880698188
446.64610608184
446.2037407134803
445.7414672268333
445.26194475125516
444.76790139470467
444.26211685071246
443.74739803546777
443.22657167622623
442.70246992853265
442.1779201477173
441.6557324278866
441.13868060130426
440.629505450513
440.13089006431005
439.6454510439838
439.17571939654516
438.7241329304628
438.2930247677602
437.88462803256004
437.5010487468119
437.1442747198576
436.8161637027471
436.5184305026754
436.25263723555065
436.0201931768295
435.82235768775297
435.6602332758037
435.5347640388913
435.44674379951346
435.3967968107409
435.3853987339359
435.41286565890937
435.4793614572706
435.58490374394586
435.72935960909945
435.91245286143516
436.13377394017783
436.39277937367393
436.68880927928916
437.0210878490955
437.38872865093236
437.79074683191146
438.22606504423277
438.6935196041611
439.19187339489247
439.71982899582247
440.2760244822512
440.859053265488
441.4674530262866
442.09973375151026
442.75438380870287
443.429871512621
444.124659490703
444.8372100214418
445.56599005300853
446.3094758107272
447.06616346839206
447.834581570926
448.61328563328266
449.4008696439809
450.1959681912647
450.9972469990774
451.8034344105645
452.6133021583966
453.42567402617067
454.23942942641304
455.05350198989777
455.8668886804112
456.67864766181356
457.48788925597773
458.2937750263098
459.09552058198545
459.8923979992698
460.68374042491405
461.4689358713722
462.2474297918265
463.01871898258105
463.7823543210389
464.5379306194035
465.28511214350976
466.02362197128855
466.75322978368496
467.47372613697564
468.1849222255129
468.8866511829448
469.5787710785343
470.2611588181252
470.9337058816326
471.5963268208342
472.2489455358926
472.89149211431356
473.52389029704756
474.14606186993336
474.7579350353098
475.35942193055195
475.95044432518097
476.5309335217955
477.1008245156867
477.66005527173013
478.20855557575624
478.7462537744326
479.27307526763923
479.78893053600035
480.2937165939055
480.78731866507354
481.26960544250005
481.7404354617026
482.19966163592005
482.6471340329154
483.08269436332506
483.50617957240433
483.9174190618127
484.31623647429444
484.7024449483893
485.07585543145535
485.4362718429059
485.7835038160241
486.1173620617567
486.4376559486181
486.7441930535146
487.03678948719516
487.3152604648837
487.57942155567906
487.8290962364744
488.06411901078206
488.2843429439541
488.4896231733581
488.6798309941245
488.85484596376966
489.01455213408786
489.15885158911743
489.2876581949935
489.40090000479614
489.49851729064045
489.58046699373665
489.6467249900803
489.69728637118294
489.7321570294694
489.7513627078284
489.75494269822264
489.74294564613353
489.71543616676325
489.67249253519896
489.61421081703077
489.54070027399763
489.4520853110875
489.3485006891559
489.23011078216905
489.09708748992034
488.9496145827677
488.787894065832
488.6121393484261
488.4225794860679
488.2194524198596
488.00300904478405
487.7735106546355
487.5312439306758
487.2765055397824
487.00960432895505
486.73086575372724
486.44062541609554
486.1392225057248
485.8270172635245
485.5043667825284
485.17164880112875
484.8292505476461
484.47757072105287
484.11701919243234
483.7480145249243
483.3709813987648
482.98636335364137
482.59461161276573
482.19618708182946
481.7915578687354
481.38120554799707
480.96562281289584
480.5453112163594
480.1207789003632
479.69253816313517
479.26111608877966
478.8270433798991
478.3908651002143
477.95313180532753
477.51440154224747
477.075237401729
476.6362049980273
476.19787410119386
475.7608223309903
475.3256411574417
474.8929223262086
474.4632573768409
474.0372435898755
473.615481146051
473.1985769616798
472.78712650925405
472.38173926046835
471.98301824638855
471.5915657373814
471.2079844613834
470.83287232134984
470.4668258296601
470.1104302831939
469.7642649733917
469.4289017497846
469.1049036979401
468.7928237830992
468.49320564940706
468.20658443888595
467.93348330605454
467.6744012050652
467.4298246221328
467.2002107971669
466.985999175189
466.7876051949968
466.6054272476545
466.4398296134318
466.29115597896435
466.1597254046113
466.0458284969684
465.94972602861907
465.87164548776195
465.8117797936188
465.7702926616527
465.7473067594712
465.7429028592525
465.7571166236192
465.78993726233006
465.84131264220605
465.9111456898635
465.99929954581967
466.1055985959657
466.2298254351237
466.37171371853947
466.5309499358498
466.70718192650014
466.9000013746457
467.10894822586624
467.3335150037037
467.57315127905497
467.8272552686254
468.09517867179915
468.37623390908703
468.6696929756184
468.9747866156992
469.2906971596062
469.61657118201066
469.95151702824325
470.2946047637163
470.6448550726866
471.00125643777983
471.3627759865897
471.7283420706715
472.09686187103125
472.4672194735851
472.83828075971184
473.2088941136192
473.57789787648386
473.9441081330528
474.30633490259714
474.6633743099752
475.014024706703
475.3570786914228
475.6913415331496
476.0156211827367
476.3287490773919
476.6295661336318
476.9169372627676
477.1897462604424
477.4469037750878
477.6873486997141
477.9100539625879
478.11401905165746
478.29828416701616
478.4619310810979
478.60407949464343
478.7238939915073
478.82058407491206
478.8934126854764
478.9417001579058
478.96482375036913
478.9622148215706
478.9333645828861
478.877818673944
478.7951933204484
478.6851607541937
478.5474585858242
478.38188588128367
478.18829901741856
477.9666092562187
477.71678188798694
477.43884141636755
477.13287870479746
476.7990339271198
476.43750111976874
476.04853017133274
475.6324353024448
475.1895751836048
474.72036148474996
474.22525206051233
473.70475504013814
473.1594353348767
472.5899063284483
471.99682870511486
471.380898695531
470.74284526902807
470.083449338871
469.40355463943905
468.7040578374728
467.9858756873849
467.24993204892314
466.49718362194415
465.7286056886578
464.9452060331211
464.14802098236777
463.33811334227016
462.5165656377236
461.6844926878459
460.84302106086875
459.99328746746096
459.1364428502826
458.27366020136253
457.4061398021335
456.53510124638524
455.661784119476
454.7874728858205
453.9134832171486
453.04116459763054
452.1718817092382
451.3070202470683
450.44798410329923
449.5961882052103
448.7530577597206
447.92002282877814
447.0985301288388
446.29003940138233
445.49601526385175
444.7179364433152
443.9572897517535
443.2155682805221
442.49426062767566
441.79485740820826
441.1188465546457
440.46770178860055
439.84288376514303
439.2458297862444
438.67796282920153
438.14068052704295
437.63534605191984
437.1632918168159
436.7258076819112
436.324139904651
435.95948973059114
435.6330054950435
435.34576827558146
435.09878391862645
434.89298138621547
434.72921090547806
434.6082289881929
434.53069880897925
434.4971796837476
434.5081386119993
434.56391839095824
434.6647519029849
434.8107525593092
435.00190520936246
435.2380574088743
435.51892406574416
435.8440815846232
436.21296477344305
436.6248555570514
437.0788917745863
437.57406555863736
438.1092291233128
438.6830839677712
439.2941839497207
439.94095011113114
440.62166246619205
441.33446814979663
442.0773773497213
442.84826433896035
443.6448778422468
444.46484766137746
445.30569421936985
446.1648388772375
447.03959735858507
447.9272042986984
448.8248165335147
449.7295389064416
450.6384291488151
451.5485125283221
452.4567929026667
453.3602579021863
454.2558932162481
455.1407103616629
456.011755410766
456.8661203056365
457.70093890065857
458.51342430887036
459.30088194661823
460.0607072036707
460.7904021712018
461.4875737031621
462.14995200229464
462.7754055619696
463.3619526019602
463.9077910088481
464.41126794454675
464.87086040471183
465.2851964814619
465.65310932926525
465.97367520098965
466.24618176089814
466.4701403263155
466.6452893786125
466.7715718106289
466.8491512920611
466.8784108807932
466.85994719025524
466.7945799092014
466.68334403572754
466.5274909878099
466.3284743532335
466.0879221676833
465.8076411363319
465.48960001875713
465.13590046572267
464.7487787026293
464.33059880769656
463.8838577012488
463.41117173802513
462.91525815381937
462.39893113172405
461.8650798416234
461.31666139100014
460.7566779736021
460.18816229395173
459.6141626190593
459.03772969043337
458.4619078695985
457.88970881542093
457.3241115716826
456.7680432806161
456.22436688135593
455.69587166359815
455.1852558283119
454.6951229712165
454.2279619390016
453.78613618951914
453.3718893383401
452.987323345269
452.63440195833016
452.31493342501886
452.0305539541255
451.78273802912537
451.5727921504012
451.4018671938678
451.27094794471446
451.1808438016129
451.1321979811788
451.1254846146008
451.1610177739928
451.23893724100276
451.3592322937704
451.52173132443403
451.72610727267516
451.97189013131367
452.2584801128584
452.5851417878283
452.95100962828553
453.3551025202497
453.7963408776778
454.2735423378301
454.78542855582396
455.3306362820354
455.9077371906343
456.5152404447788
457.15159087019964
457.81518868701426
458.5043958851212
459.21754683872
459.95296320427826
460.70895340817395
461.4838272066957
462.27589901771876
463.08349748397137
463.9049769519233
464.7387155656906
465.5831282387889
466.43665489542775
467.29777855459963
468.1650295750108
469.03698707973166
469.9122886328157
470.78962846499735
471.66775060653913
472.54546089048506
473.4216163541443
474.2951557396233
475.1650727949062
476.0304109051685
476.89029219987356
477.7438962775679
478.5904740072351
479.42934174881475
480.2598779189359
481.0815240936018
481.89376634168815
482.69615816271045
483.4883267701097
484.2699650370725
485.0408127196658
485.8006304677661
486.54921900559424
487.2864115929041
488.01206373961173
488.7260665750389
489.4283314521719
490.1187870913824
490.7973783454421
491.4640665952858
492.1188254113411
492.7616315212471
493.3924597189127
494.0113083430097
494.6181770284977
495.2130711395681
495.7960044616988
496.36700032308477
496.9260845534994
497.4732723415178
498.0085727810431
498.53199148723724
499.043518276544
499.54314135664885
500.0308400179132
500.50658210976286
500.97032618539
501.4220261123214
501.86162943466485
502.2890694270684
502.7042748501338
503.1071623466906
503.49764195742574
503.87561168667156
504.2409651832214
504.593592893364
504.93338111191593
505.2602133085111
505.5739737328781
505.8745312268469
506.1617533711669
506.4355094503988
506.695669100378
506.9421098692315
507.1747094827204
507.3933578266997
507.5979382804254
507.7883350928429
507.96443622605375
508.12612953182946
508.2733118560799
508.4058848681366
508.5237575053316
508.62685060738625
508.715088524925
508.78840390938063
508.8467357972126
508.8900231271336
508.91821775578825
508.93128449881647
508.9291969470286
508.91193979713216
508.8795069048995
508.8319126627164
508.76918169612316
508.691340798825
508.5984259862157
508.4904916895634
508.36760031175925
508.2298270520022
508.07725593208653
507.9099844267358
507.7281258551962
507.5318074426333
507.3211749380048
507.0963863807872
506.85761241686225
506.6050409724818
506.3388775314704
506.05934553789814
505.7666891104162
505.461164790693
505.14304201659263
504.81260779433507
504.470166866058
504.11604632139614
503.75059147405887
503.3741727924551
502.9871687281547
502.58997675215596
502.1830222652406
501.76673897741904
501.3415863416568
500.90804073922976
500.46659537184826
500.0177644331839
499.56208066773803
499.10009516609716
498.63237924613816
498.15952414243566
497.6821364641366
497.2008400630714
496.7162777983597
496.22909793190576
495.7399576751853
495.2495329460816
494.75851493904815
494.26760901867766
493.77753150947495
493.28901522177034
492.8027952209358
492.3196163605783
491.84022762337116
491.3653896248175
490.8958513253325
490.4323702414514
489.9757063923996
489.526620713995
489.0858668547015
488.6541871478348
488.23232594033965
487.8210210479156
487.4209974558139
487.03296988227225
486.65762994462284
486.2956593058714
485.9477253967704
485.61447742109084
485.2965402156693
484.99450801343977
484.7089556215364
484.44042997775483
484.189452824605
483.95650815686673
483.74204936093315
483.5464910004276
483.3702070870606
483.2135314200165
483.07676228801216
482.96015418583625
482.8639229557603
482.78824238324245
482.7332342451104
482.69897812225497
482.68549946270645
482.6927708094833
482.7207040718429
482.76916233525316
482.8379586409707
482.9268550117816
483.03557495009335
483.1637857499221
483.31109860958605
483.47707545906087
483.6612118237521
483.8629635016502
484.0817254122925
484.31684779970936
484.56763728239065
484.8333429507125
485.11316878502356
485.4062730126191
485.71176758039365
486.028724354713
486.35616392894633
486.693068406878
487.03839215068604
487.391059796074
487.749962369043
488.1139623398391
488.4818988085221
488.852590728919
489.22483811627217
489.59742769772527
489.96912559562566
490.3386829935094
490.7048459747726
491.06635883144304
491.4219696312551
491.7704161004171
492.11045287036535
492.4408392195528
492.7603531283555
493.06779672221705
493.3619953235615
493.6417921853968
493.9060627603515
494.15370691996156
494.38366291600323
494.594903784822
494.7864468598214
494.9573521619714
495.1067229309344
495.2337081342836
495.33750246688385
495.41735924284586
495.47258339872803
495.5025330880741
495.50663199392625
495.4843486406874
495.43521469839584
495.3588299097166
495.2548516920342
495.1229998409012
494.96305897704116
494.7748765981242
494.5583454510408
494.3134136389416
494.0400897456092
493.7384411867712
493.40859011471946
493.0507134906295
492.66504081339417
492.2518604490689
491.81150413499864
491.3443599896822
490.85085929409234
490.3314785802414
489.78674396695135
489.2172336360025
488.6235743950235
488.0064321579613
487.36650045549516
486.70450655462065
486.021232988272
485.3175376278966
484.5943117259328
483.85246299465297
483.09291169253976
482.3165947028443
481.5244797938951
480.71755305669274
479.896825495431
479.0633369109867
478.21815300823886
477.36236229109437
476.4970791024984
475.6234354388426
474.7425832441489
473.85569168596726
472.96395055695183
472.0685887982609
471.1708669616724
470.27208118971055
469.37355463423677
468.4766381823434
467.5827116839755
466.69317683208124
465.80945239318356
464.93296926391923
464.06517401927124
463.20751883912044
462.3614728839739
461.52851823981376
460.7101478556626
459.9078787252028
459.12322569461185
458.3577233499727
457.6129018988871
456.89028457473955
456.19139567962515
455.5177486950906
454.87084495816276
454.252161044314
453.66315317486567
453.1052569455181
452.5798738044511
452.08836151979364
451.632028523402
451.21213221776253
450.8298791963621
450.48640563838035
450.1827815781622
449.91999966052595
449.698965978893
449.5205085045362
449.3853574049569
449.2941386709437
449.24737433883297
449.2454676256855
449.2887170305249
449.3772849620063
449.5112038341956
449.6903671189736
449.9145228535624
450.1832783467279
450.4961033424818
450.8523142741776
451.2510832538303
451.6914215086277
452.17219408162396
452.6921111766369
453.24972675334874
453.84345319505474
454.47155502067807
455.13216108760133
455.8232514404057
456.54267112544585
457.2881447702539
458.0572635832319
458.847517018642
459.6562793942969
460.48082335198353
461.31833169916047
462.1659055189113
463.02058602121167
463.87936628144655
464.7392128670706
465.59707105991004
466.44986865315207
467.2945377740092
468.1280152047573
468.94727351264885
469.74932604833634
470.5312362836722
471.29015101362256
472.02329847438693
472.72801022408913
473.40173592376897
474.04203775355757
474.6466033048303
475.21326570707515
475.7400070590036
476.2249890025296
476.6665581052111
477.06321911386186
477.413601064044
477.71651854253065
477.9710178602988
478.1763967952154
478.332194387566
478.4381790223466
478.49434754262796
478.5009264809983
478.4583532919724
478.36729872876475
478.228654038318
478.04352680701544
477.8132541570825
477.53938324110055
477.22366040003914
476.8680220379277
476.47456039109153
476.04551385639826
475.5832553669609
475.0902941194847
474.5692648297627
474.0229179234846
473.45411745457847
472.86582753493707
472.2610941154066
471.6430330356794
471.0148046285411
470.37959668101706
469.74061785687945
469.10107558139845
468.4641536525774
467.83301373420375
467.21077068604995
466.6004857079222
466.0051447403668
465.427654846634
464.87082590348183
464.3373574810292
463.82983537108333
463.35071377417137
462.9023005702904
462.4867588158516
462.10609618213147
461.762159990574
461.45663341799326
461.191021877174
460.9666624806909
460.78471505291026
460.64615650208924
460.55178067077594
460.50219245208024
460.4978245849259
460.5389358224729
460.6255969014931
460.75771429667907
460.93503050282
461.1571274472703
461.4234416841422
461.73326282676504
462.08574808394286
462.47991540446884
462.9146587349918
463.3887591287901
463.90089174563343
464.44964190892085
465.0335104678809
465.65092148207526
466.30023878209954
466.97976718123834
467.687768909314
468.4224667674135
469.1820646768488
469.96475066105126
470.7686907122765
471.5920571025809
472.43302769095396
473.289804512094
474.16061236958967
475.04371230065414
475.9374058592263
476.8400344616489
477.7499866944448
478.6657048553934
479.58568205203085
480.50847395530934
481.43269670184156
482.35704395221785
483.2802750664341
484.2012093553252
485.1187415829601
486.03182826318255
486.9395019012401
487.84086521690324
488.735078454867
489.6213770610995
490.499071831702
491.3675360580432
492.22621691724515
493.0746163721803
493.9122960958797
494.7388827217439
495.55408955953294
496.35769111930136
497.14949319877286
497.9293239274494
498.6970390771537
499.45252012035985
500.1956826916907
500.9264584011959
501.6448113455933
502.35071480600476
503.0441581108714
503.7251466232365
504.39368167028294
505.0497663465699
505.6934067363497
506.32461315071663
506.9434083578453
507.5498235297352
508.1438951024357
508.7256512844993
509.2951229938493
509.8523355857767
510.39729660963025
510.9299967711265
511.4504219335785
511.95854137137104
512.4543204819164
512.937718699461
513.4086790550783
513.8671397977324
514.3130353923103
514.7462868823595
515.166801050153
515.5744760289269
515.9692157466283
516.3509139611042
516.7194580543287
517.0747327927257
517.4166218152676
517.7450068986307
518.0597738507346
518.3608074324244
518.6479949026916
518.9212360521229
519.1804291961522
519.4254768409443
519.6562845238859
519.8727593469808
520.074814869681
520.2623802759284
520.4353987016614
520.5938124886775
520.7375744037543
520.8666610583955
520.9810559139097
521.0807386736149
521.1657115973276
521.2359775617309
521.2915530586595
521.3324679486766
521.3587631588634
521.3704928411687
521.3677220937581
521.3505269113872
521.3189985050075
521.2732345385226
521.2133479153772
521.1394558737966
521.051686488697
520.9501762775205
520.8350721374087
520.7065310498634
520.5647176015366
520.409819210218
520.2420331604163
520.061562495968
519.8686183361108
519.663426478578
519.4462187480508
519.2172374332504
518.9767374968394
518.7249844190475
518.4622498116292
518.188817976945
517.9049881443631
517.6110636802892
517.3073542764492
516.9941712736531
516.6718602230004
516.3407725228483
516.001270110316
515.6537256646758
515.2985183210299
514.9360447824056
514.566717386459
514.1909468394332
513.8091641658195
513.4217987814383
513.0292980155098
512.6321136402815
512.2307124386998
511.82557366101037
511.41717993060337
511.0060278011007
510.5926229549747
510.1774797325745
509.76112285152044
509.3440758998514
508.92688254708287
508.5100928451416
508.0942628018911
507.67995832714763
507.2677437616469
506.8581856705652
506.4518631020885
506.04935820736716
505.6512534796438
505.25812442796973
504.87054295435007
504.4890849228369
504.1143224799323
503.74682280922656
503.3871378582287
503.0358223816022
502.6934323161585
502.3605080132159
502.03758812632594
501.72519075676917
501.4238229722373
501.1339859336981
500.856160518455
500.5908103909658
500.3383806979192
500.09930567011907
499.87399669654377
499.66283032256035
499.46616218656527
499.28432562877657
499.11763044189956
498.9663551068896
498.8307499736089
498.71103826426685
498.60741062856846
498.52002852228856
498.4490099609711
498.39443927201444
498.35637036600446
498.3348148280583
498.3297475516479
498.34111017772585
498.36879926432454
498.4126719066008
498.4725559275738
498.5482407219357
498.63946824695785
498.7459393779092
498.8673270767319
499.00325043045865
499.153294642727
499.3170048804105
499.4938801827535
499.6833893135822
499.8849627607567
500.0979893272053
500.3218215424304
500.55577005548355
500.7991155508847
501.051105466299
501.31095972577856
501.5778701719128
501.8510023486042
502.1294909320377
502.4124417380055
502.69894025462634
502.98804705578755
503.27880196932597
503.5702415190484
503.861388263829
504.1512469362296
504.43882025525056
504.72310298729565
505.00308264307625
505.2777422305069
505.5460672944699
505.80704639441456
506.0596692861387
506.3029447749465
506.5358968567715
506.7575764301665
506.9670314351084
507.16333570325133
507.3455871015507
507.5129100124704
507.6644555737504
507.7994106036871
507.91698665613313
508.01644190045914
508.09705913830174
508.1581717873674
508.1991481658507
508.2194062172853
508.2184040659357
508.195641297824
508.15067095667916
508.0831005143558
507.99258628073903
507.8788343233573
507.74160117877875
507.58069663910146
507.395964345491
507.1872901113011
506.9546096278871
506.6979025689625
506.41720167808114
506.1125931124902
505.7842013743952
505.4321980595939
505.0568018020012
504.6582806025856
504.236945757288
503.79314589772804
503.3272764748506
502.83976979726305
502.33111388133494
501.8018302767971
501.2524630615803
500.6835984845578
500.09584314231944
499.4898614212202
498.8663763242284
498.22614297209066
497.5699251561738
496.89850214587744
496.21267462650457
495.5132612092707
494.8011052886112
494.0770838186572
493.3420961467778
492.59706344381925
491.8429276913918
491.08065683062574
490.3112387003262
489.5356789538608
488.75501172186154
487.97029040912867
487.1825959214433
486.3930427774086
485.6027745461822
484.8129729689122
484.02485246563305
483.2396442059652
482.4585978952618
481.68297468435446
480.9140527963749
480.15311530266655
479.4014638695318
478.6604169215162
477.93130541625294
477.2154861413458
476.5143245749298
475.8291974169863
475.1614885268435
474.512578114515
473.8838424429681
473.2766576334193
472.69239231940054
472.1324022438594
471.59802667121363
471.09057997535695
470.6113559827488
470.1616167059954
469.7425808146831
469.35543146933117
469.00130646017845
468.68129694485896
468.3964351839763
468.14769324495876
467.93595741321667
467.76203722957706
467.6266678750849
467.5304885909453
467.4740517738435
467.4578082893058
467.482104052266
467.5471745926244
467.6531443112973
467.8000174894251
467.9876740696713
468.2158592096726
468.48417529685537
468.79210276370566
469.1389843470447
469.5240275686536
469.9462925967433
470.40470917302105
470.89806141722113
471.42499970271587
471.9840358142263
472.5735543222601
473.1918095582366
473.83693003191087
474.50691051110397
475.1996352803335
475.91288250662814
476.64431856122656
477.39150591065584
478.15192232739645
478.9229676824649
479.7019780373945
480.4862361679479
481.27299629045206
482.0594902910734
482.8429349705368
483.6205356495529
484.3894988320771
485.1470492635988
485.8904449240138
486.61698766626745
487.3240292445147
488.00899215849097
488.6693900236869
489.30283888240143
489.90706588219297
490.4799151297882
491.01935241389566
491.5234773445561
491.9905496587856
492.4189792550763
492.80735213737853
493.1544065691253
493.45900237380926
493.7201792672431
493.93721810148185
494.1096149759867
494.23709514441816
494.3195943700911
494.3572644915457
494.35046565377087
494.299762727061
494.2059324176693
494.0699526887689
493.8930006809638
493.67645252331783
493.42187203021643
493.13099673089613
492.8057319327326
492.4481351881771
492.060399500899
491.6448350084563
491.20386643121606
490.7400179259678
490.255916450129
489.75428780524953
489.2379414564083
488.70974634143084
488.17263489037714
487.629572078099
487.0835352776685
486.5375024449883
485.994428901357
485.4572369268122
484.9288072612795
484.4119618480571
483.9094577743808
483.4239728242823
482.95809596824876
482.5143141765297
482.0950067261295
481.7024251979859
481.3386919539804
481.00577986472496
480.705512629291
480.43956405876304
480.2094520445726
480.0165250671513
479.86195416445463
479.74673890003703
479.67170125531186
479.63750039038234
479.6446158882339
479.69334942928464
479.7838316390362
479.9160165713226
480.0897009326946
480.3045267328112
480.55998049336785
480.8553997100404
481.1899799547178
481.5627825174224
481.9727513367493
482.4187241977187
482.89942267959304
483.41346416226304
483.9593694342317
484.53559001243644
485.14050270570425
485.77242173399816
486.42961292867363
487.110299014124
487.81267565125086
488.53491192750596
489.27517247791275
490.031626471511
490.80244336009895
491.58580119683654
492.37991200197325
493.1830249971487
493.99342298340474
494.80943350689256
495.629426187735
496.45182671317474
497.2751124595126
498.0978225345172
498.91856043686346
499.73600711375434
500.54891829698926
501.3561257024751
502.1565355285405
502.9491308223936
503.73298220224393
504.50722990831866
505.2710893697399
506.02384302396354
506.76485134078104
507.4935461928134
508.20942640867975
508.91207072797954
509.6011246065236
510.276302604599
510.9373844485675
511.58420921589766
512.2167076544575
512.8348587548988
513.438667628471
514.0281796857694
514.6034591827467
515.1646042951361
515.7117332833345
516.2449897740718
516.7645389465408
517.2705612078788
517.7632521213508
518.2428112363198
518.7094414950523
519.163350599135
519.6047502360899
520.0338577146133
520.4508915248317
520.8560674556439
521.2496084660567
521.6317289488351
522.0026370169456
522.3625306186167
522.7115872538052
523.0499690911265
523.3778217242241
523.695266438156
524.002412209922
524.2993615549668
524.5861994023597
524.8629998835613
525.1298357508085
525.3867620184498
525.6338284159667
525.8710724133942
526.0985233487357
526.3162000558617
526.5241085087993
526.7222437119079
526.9106002150982
527.0891651524634
527.2579222521797
527.4168469840798
527.5659145320474
527.705083352184
527.8343221449219
527.9535952131702
528.0628652327356
528.162100110632
528.2512643397174
528.3303300044637
528.39927909387
528.4580972218206
528.5067806366368
528.5453235065883
528.573720342926
528.5919704366851
528.6000756599325
528.598046998327
528.5858979875662
528.5636380346064
528.5312807415629
528.4888500264933
528.4363734494802
528.3738976047073
528.3014642724734
528.2191172007485
528.126911029528
528.0249027713497
527.913154296087
527.7917259852429
527.6606877655528
527.5201038166838
527.370045552668
527.2105915053116
527.0418339994064
526.8638662663266
526.6767760527623
526.4806609409361
526.2756239581978
526.0617759278
525.8392312831473
525.6081147974442
525.3685552590206
525.1206857315691
524.8646459208505
524.6005845055822
524.328657151915
524.0490355720439
523.7618949537281
523.4674100910626
523.1657776181163
522.8571990037747
522.5418899431703
522.2200633865332
521.8919517409339
521.5578029525441
521.2178744841686
520.8724315504287
520.5217540330696
520.1661235801319
519.8058412072681
519.4412163245096
519.0725755160415
518.7002560122999
518.3246055310633
517.9459864446156
517.5647799425695
517.1813838209756
516.796206033819
516.4096669356499
516.02219047444
515.6342125789638
515.2461872481113
514.8585861642625
514.471891879672
514.0865932286807
513.7031804824228
513.32215332534
512.9440199733314
512.5692961854062
512.198508594464
511.83219161673384
511.4708800299533
511.1151145779719
510.765436538766
510.4223910002187
510.0865235827071
509.75837707775685
509.4384878571399
509.1273931434889
508.8256317904306
508.5337232093838
508.25218118258016
507.98151438198573
507.7222182204421
507.4747733039723
507.2396437277763
507.0172797448463
506.808111733051
506.6125418300617
506.43095064426075
506.26369955170077
506.1111288295446
505.9735493424641
505.8512562795926
505.7445080628356
505.6535382089089
505.5785521187452
505.51971959447593
505.477169608565
505.45100031363904
505.44125830627695
505.447957165217
505.471067444976
505.51052865012264
505.5662374471764
505.63804702636685
505.7257686689356
505.82917114902915
505.94798026087
506.08188299939525
506.2305121824442
506.3934593538174
506.57028344776774
506.76048692109373
506.9635379191765
507.17885991131686
507.4058345936128
507.64379826992797
507.8920580654468
508.14988222530667
508.416497267478
508.69109835591695
508.97284450171816
509.26086260868334
509.55424718410933
509.8520601370283
510.1533461242593
510.4571240092308
510.7623893869064
511.0681259819745
511.3732975715602
511.6768552845328
511.9777361549137
512.2748792765424
512.5672158421537
512.8536702025643
513.1331673126887
513.4046290004267
513.6669898735155
513.9192024666477
514.1602249014211
514.3890368909011
514.6046382761922
514.8060630471914
514.9923672132194
515.162634118657
515.3159752115778
515.4515371914698
515.5684980190906
515.666091205904
515.7435798530314
515.8002742092715
515.835535800062
515.848779351155
515.8394659310629
515.8071112198116
515.7512715013195
515.6715598283781
515.5676399879918
515.4392399257944
515.2861498609633
515.1082116974858
514.9053167840613
514.677398643679
514.4244469223715
514.1465057032171
513.8436804952021
513.5161276881528
513.1640614787252
512.7877432628028
512.3874818922338
511.96363167539823
511.5166035954278
511.0468417754756
510.5548415385095
510.041145635412
509.50634313178847
508.95106218192007
508.375967465268
507.78175774976387
507.1691590476568
506.53897043862764
505.8920409225697
505.22922990472784
504.5514180446105
503.8595000510205
503.15438990601297
502.43702975833196
501.70837660963804
500.9694192755471
500.2211665137291
499.46464356850754
498.7009013537998
497.9310078784137
497.1560459086933
496.3771124129493
495.5953264623427
494.8118238125938
494.0277624308834
493.24433488567615
492.4627527859776
491.68426248826904
490.9101221075651
490.1416007017068
489.37996637349954
488.6264981600288
487.88248905251544
487.14923369787095
486.4280311828512
485.72018750750703
485.02702015785684
484.3498563510833
483.6900160864849
483.0488100770252
482.42755051688675
481.8275332621518
481.250054777713
480.69639180659084
480.16780722435277
479.6655292403556
479.19076075442905
478.74467970988763
478.3284240062104
477.94308929668153
477.589728616543
477.26933647367633
476.98285900908616
476.7311799434771
476.5151130303156
476.3354031951435
476.1927078608603
476.0876110104764
476.02060235320005
475.992082947136
476.0023446126714
476.0515800135206
476.1398777969223
476.2672116340569
476.4334361798194
476.63829207963624
476.88139171604365
477.1622252111806
477.4801494254855
477.83439056554533
478.2240362637026
478.64804122197154
479.1052334640287
479.59430828593787
480.1138317528129
480.6622558961859
481.23788878993537
481.8389376125457
482.4634826402906
483.109489137174
483.7748130884859
484.45721206314533
485.15434588305345
485.86379767159667
486.5830737975617
487.30961775356695
488.0408049813398
488.77396869214186
489.50641542973887
490.23543720500214
490.9583224068783
491.6723630198445
492.3748644764163
493.06315353045
493.73460141110303
494.38662724952513
495.01671667792675
495.6224292337558
496.2014228431661
496.7514449360651
497.270379913698
497.7562282706035
498.2071197642075
498.6213209051194
498.99725426645284
499.33350782198636
499.6288409628942
499.88218931664136
500.0926171865694
500.259339220157
500.3817880028526
500.4596219260815
500.4927247226395
500.481198956995
500.42534424595885
500.32569444395585
500.1829784064412
499.99812669439433
499.77227361172606
499.50673705489305
499.2030307750617
498.8628435351212
498.4880441737372
498.0806598232088
497.64286871983654
497.17698331900766
496.685423351337
496.1707134644179
495.6354703777595
495.0824040430525
494.5143136393107
493.93406793435565
493.3445962914895
492.7488639404499
492.14987335093383
491.550634988165
490.9541510722628
490.3633923585598
489.781300802926
489.21077050978573
488.6546377698225
488.11566041695625
487.5965151570239
487.09976468722925
486.62787112728887
486.18317737960615
485.767902689345
485.3841239832749
485.0337624459528
484.71859060849573
484.44022524484575
484.20010831076104
483.9995174392857
483.8395556096584
483.7211440894125
483.6450296179722
483.61178169067944
483.6217976169125
483.6752911549269
483.7723061111185
483.9127133963107
484.0962199427673
484.32237183836946
484.5905581969537
484.90002238028904
485.24987182159555
485.6390643733428
486.06643865493186
486.53071191855685
487.030498035619
487.56431053962876
488.13057692232985
488.7276465721724
489.3537943852017
490.0072396796751
490.6861607624416
491.38867873374596
492.11290455132473
492.85691369452667
493.61878402104185
494.3965940784103
495.1884255269478
495.9923869791367
496.8066113222701
497.6292701396705
498.458570084786
499.29276403879976
500.13016821686455
500.96915247395026
501.8081473428145
502.64565455330995
503.480245994544
504.31056423001746
505.1353353939378
505.95336626803885
506.76354294227144
507.56483320235253
508.35628618940393
509.13703377210805
509.90628475111976
510.66334051253085
511.40756880970343
512.1384275005621
512.8554467875381
513.5582356461945
514.246475054882
514.9199134010297
515.5783619405533
516.2216990804571
516.849877492138
517.4629321485774
518.06093825304
518.6439991967367
519.2122490032785
519.765843166607
520.304981794307
520.8298687344347
521.340733618267
521.8378295761861
522.321415444752
522.7917662322019
523.2491527213302
523.6938559397059
524.1261553712171
524.546328233456
524.9546468193065
525.3513761641109
525.7367832491395
526.1111316096458
526.474670025794
526.8276369527231
527.1702389449807
527.5026774377628
527.825125551308
528.1377358947789
528.4406375265346
528.733944123876
529.0177517583921
529.2921393856584
529.5571586089027
529.8128519856832
530.059234475845
530.2963078844004
530.5240578699843
530.7424666288385
530.9514930174357
531.1510810257582
531.341154980113
531.5216343422933
531.6924332962883
531.8534560131466
532.0045939111361
532.1457425150135
532.2767921184803
532.3976249208333
532.508131717242
532.6081980209814
532.6977053667235
532.7765366583245
532.8445835721709
532.901738661651
532.9479027433126
532.9829834978267
533.0068874250452
533.0195290714292
533.0208291356971
533.010714628017
532.9891344563262
532.9560379786882
532.9113862869356
532.8551458510746
532.7872995806121
532.7078404448056
532.6167717188855
532.5141094320663
532.3998848309486
532.2741270692643
532.1368874373771
531.9882218943063
531.8282020654118
531.6569087609436
531.4744384985119
531.2809015001435
531.0764131063254
530.8611047649604
530.6351087016017
530.3985752476473
530.1516727540456
529.8945744672145
529.6274650879011
529.3505428981034
529.0640064193002
528.7680649846993
528.4629448805089
528.1488780266068
527.8261147655186
527.4949083485916
527.1555279059019
526.8082539548494
526.4533829017422
526.0912207480548
525.7220789335615
525.3462810702223
524.9641432749165
524.5759979666219
524.1821891749798
523.7830635242977
523.3789786211122
522.9703004995799
522.5574032491775
522.1406796734216
521.7205214572778
521.2973298538858
520.8715110418067
520.4434802179651
520.0136680097288
519.5824962876416
519.1503997075156
518.7178187909283
518.2851951229698
517.8529818418164
517.4216323229633
516.991610765892
516.5633874883952
516.1374298675505
515.714210707373
515.294199027063
514.8778704646655
514.4657110416172
514.0581992210635
513.6558186717101
513.2590446058609
512.8683585403564
512.4842322599412
512.1071356814782
511.737538187085
511.3759054659667
511.0226941028821
510.67835485157894
510.3433424539509
510.0181060482549
509.7030730962826
509.3986659652939
509.1053008952677
508.8233716410645
508.55325916203014
508.29532802702175
508.04992942515577
507.81740421929794
507.5980752031352
507.3922481547447
507.2002086114569
507.0222274979508
506.85854274462116
506.7093714002602
506.57490858558964
506.4553154807195
506.35073787119956
506.26129215509246
506.18706680161597
506.1281083398444
506.0844334044313
506.0560274605547
506.04284572488046
506.044816533286
506.0618405945985
506.0937773828337
506.1404512934788
506.2016510663946
506.2771315788998
506.36661149954296
506.4697797872127
506.5862782728535
506.71571045190905
506.8576458116612
507.01161989556255
507.17712573050966
507.3536316745702
507.5405710891907
507.73733436993956
507.94328725591083
508.1577586328402
508.3800415391058
508.6094007611628
508.84507185099875
509.08626682959215
509.33217364638665
509.5819536708535
509.8347347289904
510.08962812490137
510.3457326476769
510.60212789524036
510.8578744142576
511.11202701749284
511.36362616793025
511.61171138016005
511.855306260198
512.0934451887318
512.3251498472688
512.5494450351275
512.7653633467907
512.9719411842058
513.1682257340674
513.353281859275
513.5262014776624
513.6860913508423
513.832073883126
513.9633031087303
514.0789565746455
514.1782446789795
514.2604067735207
514.324709186128
514.3704539025881
514.3969803911453
514.4036781579159
514.3899752598079
514.355344180243
514.2993164012877
514.2214621012699
514.1213958810705
513.9987842441476
513.8533418420802
513.6848275631897
513.4930489580441
513.2778573406814
513.0391579199567
512.7768999937375
512.4910931922823
512.1817930265743
511.84909049411897
511.4931407936141
511.11414193768763
510.7123420288093
510.28803786091555
509.84156490740025
509.37330710369577
508.88369143652903
508.3731848662341
507.8423024101543
507.2916003101286
506.72165406855373
506.1330778775257
505.52655076983666
504.9028174560223
504.2626466339933
503.6068381648995
502.9362059756175
502.25159313291914
501.5538622538791
500.84390271444073
500.12263066919513
499.39099517779425
498.6499687670437
497.90053540854353
497.14371722721654
496.3805614584576
495.6121381490937
494.839548569248
494.06391366468927
493.2863908845371
492.5081715458997
491.73048533492556
490.9545988651995
490.18180590871776
489.413424520246
488.6507942996068
487.89526042519185
487.1481968305102
486.4109920600748
485.6850348167821
484.9717382530861
484.27253112091626
483.5888443916046
482.92213260174265
482.2738645625933
481.64551847146043
481.0385725623629
480.4545109805402
479.8948075863745
479.3609247395757
478.85432717378427
478.3764410635122
477.928673815874
477.51240704682056
477.12898494651034
476.7797197932632
476.4658730783757
476.1886517580942
475.9492063442544
475.7486375867127
475.58797046816784
475.4681477178683
475.39002742574786
475.35439390290964
475.36192942563457
475.41321453888594
475.5087108750601
475.64877029591577
475.8336090954716
476.0633348768968
476.3379214779075
476.65719529045987
477.0208502742295
477.4284394454523
477.8793516828925
478.37282600139855
478.9079487799281
479.48365844039995
480.098733440966
480.7517941935661
481.4413078932781
482.1655920062995
482.9228166862227
483.71100832579106
484.528045361339
485.3716547500442
486.23943091071357
487.1288357108147
488.03719904065935
488.96175726179405
489.8996491599814
490.8479109075515
491.8034957266923
492.7633031150813
493.72417638527816
494.68291652473795
495.6362946436051
496.58106730151604
497.5139857240782
498.43181189262174
499.3313349931063
500.2093680304224
501.0627899819562
501.8885484846565
502.6836732452462
503.44529998650347
504.1706808184577
504.85718963589164
505.5023354155469
506.1037676892656
506.6592959033753
507.166916421896
507.6248144752602
508.03133386448053
508.38496595123985
508.6844147259894
508.9286276618886
509.11680245144487
509.2483787471422
509.3230453319312
509.3407319066587
509.30160716337167
509.20605878792924
509.05472294681533
508.848495977124
508.58849582748024
508.27606891335665
507.91279411607496
507.5004534731114
507.0410347956598
506.5367155532726
505.98983888320294
505.40291426835813
504.7785968156515
504.11967370492795
503.4290556483021
502.7097712971139
501.96497177950783
501.1979042673072
500.41189198762703
499.6103449698631
498.79670966387874
497.9744557137198
497.1470692311137
496.3180219088181
495.49075959629386
494.6686732475928
493.85510037093314
493.05330241598267
492.2664490508518
491.4976159071433
490.7497564164569
490.02572490526904
489.328235422853
488.65985225609495
488.0229945568599
487.4199005535503
486.852640866415
486.32311335714775
485.83303284011885
485.38391754245185
484.97708990684526
484.61367859557396
484.29461725261433
484.020629011644
483.7922512688488
483.60981789349586
483.4734732765556
483.38317193260417
483.3387010043446
483.3396534709588
483.3854567305861
483.47538017437876
483.60853044746364
483.7838623844972
484.00021246974427
484.2562762417122
484.5506363397939
484.88176664039355
485.24804110590645
485.6477581683907
486.07913901006975
486.54033244160127
487.0294304375938
487.54448327108315
488.0835209892397
488.64455749306893
489.2256011240996
489.82466935921786
490.43979686496635
491.06902552159204
491.71042638840214
492.3621168115601
493.02226178783036
493.68907013445016
494.36080939383373
495.03581119328425
495.71247364040937
496.3892716157913
497.06476186236534
497.73759404162564
498.406504025245
499.0703200496902
499.7279462875842
500.3783827233722
501.0207270001443
501.6541650728086
502.27796581475707
502.89149050544773
503.4941911884073
504.0856155561519
504.66539002911253
505.2332266926144
505.7889036921099
506.332280721518
506.8633172148724
507.38203843097733
507.88852291083646
508.3828891583313
508.86529697886255
509.3359545885179
509.79510778079
510.2430376524367
510.68007801822364
511.1065825878554
511.52290260056765
511.9294185472557
512.3265236079752
512.7146091810606
513.094072290961
513.4653077216623
513.8287022676558
514.184651173424
514.5335445283293
514.8757608887132
515.2116790956013
515.5416646595337
515.8660611267866
516.1851858631289
516.4993236206047
516.8087466022143
517.1136756684059
517.4143136843953
517.7108354200469
518.0033932474593
518.292118871425
518.5771059555697
518.8584325519489
519.1361466462548
519.4102694571884
519.6808122052854
519.947760449826
520.2110674638751
520.470656050605
520.7264331736236
520.9782916905167
521.2260989897156
521.4697098231613
521.7089594285487
521.9436717006141
522.17364979084
522.3986752907804
522.6185355901332
522.8330097419107
523.0418588783501
523.2448493221603
523.4417273418251
523.6322419670413
523.8161503738589
523.9932059877218
524.1631465110551
524.3257254363854
524.4806911260172
524.6277965488583
524.7667937288073
524.8974390634834
525.0194873388187
525.1327142178995
525.236890875088
525.3317934704173
525.4172146962836
525.4929425388373
525.5587760187839
525.614527837976
525.6600294457837
525.6951274877821
525.7196715397906
525.7335302246754
525.7365854910792
525.7287225086641
525.7098412375638
525.679852579303
525.6386788011675
525.5862668346946
525.52258635006
525.4476216527555
525.3613702310231
525.2638477070353
525.155103716777
525.0352030699249
524.9042310157294
524.7622697592234
524.6094336428637
524.4458626929934
524.2717253455103
524.0872081218737
523.892507221436
523.6878351042797
523.4734311691477
523.2495614028244
523.0165137558578
522.7745890888575
522.5241270147318
522.2654749362611
521.9990052436051
521.725123783051
521.4442587537782
521.1568607104448
520.8633915435047
520.564332968682
520.260199358942
519.9515067361609
519.6387961816905
519.322622111155
519.0035403185442
518.6821261204258
518.358988237972
518.0347479832254
517.710022884252
517.3854407095087
517.0616488881374
516.7393000354722
516.4190616244865
516.1015971516873
515.7875646002545
515.4776365322866
515.17247423877
514.8727456556971
514.5791193263095
514.292251921468
514.0127975228368
513.7413991953183
513.4786983077283
513.2253090008231
512.9818404568107
512.7488753345156
512.5269698644681
512.3166713821545
512.1185054176738
511.93296730410026
511.76054004148085
511.60167934871845
511.45679241110247
511.3262713428414
511.2104784911752
511.1097384848631
511.0243390221813
510.9545294644256
510.9005240006423
510.862498348839
510.84057766259593
510.83484846544377
510.84537298561173
510.87216213641307
510.91517481999847
510.97434584278426
511.0495550275739
511.1406381199583
511.2473933483858
511.369563898592
511.5068445354228
511.6589036705415
511.8253509139933
512.0057594057974
512.1996575975519
512.406543239443
512.6258671126212
512.8570342956436
513.0994051143417
513.3523048710939
513.6150293711153
513.8868352024789
514.1669587702501
514.4545984922788
514.7489299672279
515.049094938123
515.3541989543946
515.6633329439957
515.975559815017
516.2899142121921
516.6054241206286
516.9211019970805
517.2359558922137
517.5489899758788
517.8591854095907
518.165511435528
518.4669406666168
518.762447134539
519.0510132426966
519.3316146881444
519.6032490796679
519.8649057091186
520.1156098820185
520.3543906883313
520.5802814542244
520.7923504321568
520.9896768404997
521.1713752259561
521.3366002191956
521.4845231270059
521.614347587647
521.7253117776307
521.8166994921602
521.8878139002029
521.9380035246592
521.9666640159568
521.973224416778
521.9571505317336
521.917954453974
521.8551929840526
521.7684856609108
521.6574889449391
521.5219207722239
521.3615303550393
521.1761179441827
520.965543433659
520.7297020723759
520.4685171033606
520.1819489257458
519.870025790501
519.5328223249294
519.1704599668452
518.7831162238172
518.3710123724181
517.9344211691352
517.473657582985
516.989056391855
516.4810084636522
515.9499424155127
515.3963306317197
514.8206891310508
514.2235646481122
513.60553690561
512.9672340187172
512.3093419664041
511.6325907111328
510.937745447498
510.22560267403884
509.49699914028974
508.75279437891817
507.9938969238385
507.22122013066036
506.4357070082964
505.6383633146595
504.83022741800215
504.0123573811866
503.18585023198204
502.3518234429641
501.51142204754115
500.66585344646575
499.81636105109305
498.9642421809371
498.1108400028617
497.2575268652813
496.4057093589386
495.5568465486824
494.71242229901253
493.87397228452033
493.0430588755063
492.2212568062597
491.4101773821243
490.61147056905935
489.8268006489797
489.05786313065505
488.3063664068537
487.57404356706945
486.8626376031897
486.1739214966976
485.5096791335749
484.87169721563845
484.26177225023287
483.6816779321787
483.1331801045453
482.6180117045347
482.1378887708455
481.6944931523631
481.28947023318864
480.9244352961181
480.60093382036456
480.3204560572478
480.0844295057289
479.89420251599904
479.7510320043546
479.6560796123779
479.61040751489884
479.6149853180907
479.6706580815154
479.77814946477
479.93805187346646
480.1508190782271
480.4167613170555
480.7360231984953
481.10859930746466
481.5343021411286
482.012769548119
482.5434902405736
483.1257338042578
483.75860801954786
484.44102926742346
485.17171559949685
485.9492222431074
486.7719018700474
487.6379096442984
488.5452065819249
489.4915812816094
490.4746423533693
491.49182074087855
492.54037975946477
493.6174176901109
494.7198648724844
495.84451443099306
496.98799911197926
498.14683231567744
499.31740186859133
500.4959978114689
501.6788303167329
502.8620310888862
504.0416735159474
505.2138093464442
506.3744562668575
507.5196188836797
508.64531218363084
509.7475679734635
510.82243910535726
511.8660097731217
512.8744309946512
513.843959705716
514.7709717731127
515.6519594113062
516.4835648532887
517.262578350002
517.985957205255
518.6508524879425
519.2546062431796
519.7947668514797
520.2690762489509
520.6754855495496
521.0121970283265
521.277678707585
521.4706561241169
521.5901361884918
521.6353997648376
521.6060442685401
521.5019345854561
521.3232166046521
521.070323116476
520.7439751903903
520.3451765539314
519.8752184595156
519.3356953434785
518.7284191753923
518.0554570530687
517.3191079692025
516.5218933524244
515.6665505163103
514.756020346062
513.7934268228518
512.7820681640924
511.7253823736161
510.62697704139225
509.4906238268919
508.3202006085751
507.1196879032862
505.8931385953905
504.6446626363513
503.37841566331116
502.09857635160967
500.8093324133814
499.51482935927436
498.21918883837554
496.9264832768362
495.64070215302326
494.3657623939664
493.10547996916523
491.8635664872243
490.64360281019515
489.4490267245508
488.2831260524798
487.1490131148834
486.0496289500961
484.9877313098641
483.965877333171
482.9864162166053
482.0515092844295
481.16310356082727
480.3229330230291
479.53249461232156
478.7930778450922
478.10573865002914
477.4713310193048
476.89048510009
476.3636039339241
475.89088928967493
475.47234437512907
475.107791010967
474.7968684918581
474.5390091575122
474.33350876361624
474.1794862789917
474.0759120604519
474.0216081763171
474.0152399602225
474.05535760403563
474.14041621534477
474.26876790446664
474.4386713801295
474.6483209222563
474.8958382206488
475.179283793563
475.49669199286615
475.84608641300014
476.2254648460527
476.63282567394367
477.06615225227745
477.52344016344085
478.00272153959173
478.5020472200353
479.01950317054997
479.5532240229809
480.1013794268694
480.6622141281626
481.2340152413243
481.8151309500983
482.40397711318775
482.99905865437364
483.598988916481
484.2024655584943
484.8082613863743
485.4152343141786
486.0223325659904
486.6285752676579
487.2330697823033
487.8350135255057
488.43368901758095
489.0284611374896
489.6187676488074
490.20413584301656
490.7841797346172
491.3585928105752
491.92712527786324
492.489578410332
493.04581119985954
493.5957418782759
494.13930936458803
494.67652168658844
495.20741444917735
495.7320459876201
496.25052256977693
496.7629709715809
497.26954386526864
497.77037871451137
498.26565929960805
498.75557062198976
499.2403000339865
499.72004062564025
500.1949796488499
500.66531134502293
501.13122836236346
501.59291834678936
502.0505701643584
502.50434996095845
502.9543857795962
503.4007850311755
503.84361921030165
504.28295897526783
504.718855296706
505.1513388563643
505.5803978525185
506.0059928759443
506.42808522327596
506.8466002691716
507.2614391634338
507.6725018007814
508.07966233235726
508.48275594438525
508.8815959021005
509.2759815267117
509.6656910364586
510.0504853544291
510.43010313915846
510.80428214058657
511.1727171252042
511.535124677047
511.8912207925343
512.2406858531451
512.5832034980912
512.9184423200298
513.2460748578164
513.565765908813
513.877204594989
514.180068744535
514.474033118735
514.7587821486738
515.034000529785
515.2994006472989
515.5546911536811
515.7995806708
516.0338053761049
516.2570995186151
516.4692051280656
516.6698595019099
516.8588347041375
517.0359291696487
517.2009663539096
517.3537780977372
517.4942230259055
517.622176628529
517.7375275856022
517.8401914232776
517.9301201672375
518.0072704515738
518.0716214304986
518.123170589083
518.1619405672238
518.1879882940689
518.2014056457464
518.2022937812906
518.1907744618064
518.1669879853544
518.1311083208964
518.0833495852296
518.0239355720505
517.9531285056314
517.8712098182584
517.7784914268091
517.6753027187603
517.5619968098439
517.4389543926684
517.306581196292
517.1653164581594
517.0156108378613
516.857926136961
516.6927433022519
516.5205633448246
516.3418948544958
516.157278523796
515.9672746323458
515.7724726575738
515.5734770120085
515.3708883467342
515.1653414296788
514.9574953699307
514.748035359504
514.5376395429722
514.3270072895945
514.1168347069804
513.9078271078432
513.7006940379655
513.4961525306693
513.2949191486176
513.0977129906894
512.9052696157598
512.7183046749119
512.5375275990931
512.363644082002
512.1973603881164
512.0393943578672
511.89044298522975
511.7511913503461
511.62232133655635
511.504503022434
511.3983884375642
511.3046032080983
511.2237753286906
511.1565249351449
511.10342159804736
511.0650155079851
511.0418289859201
511.03436804349116
511.0430992047453
511.06845649118776
511.110843869335
511.17063137569914
511.2481400019482
511.3436635760526
511.45747816370437
511.58982377995494
511.74088189372776
511.910792149095
512.0996382027145
512.3074662853113
512.5342664316935
512.7800131989203
513.044588410909
513.327829937551
513.6295499732017
513.9494993425635
514.2873844973502
514.6428738079024
515.0155846993349
515.4050708306272
515.8108265265877
516.2323045363503
516.6689166366929
517.1200258356072
517.5849054699454
518.0627895100293
518.5528901479765
519.0543526271488
519.5662736600596
520.0877220210353
520.6177533533568
521.1553710558836
521.6995420492906
522.2491885099461
522.8032015682692
523.3604375896615
523.9197342817533
524.4798854176274
525.0396612950749
525.5978178434734
526.153099490883
526.7042182305461
527.249873969816
527.7887703041167
528.3196107833573
528.8410845067812
529.3518823055077
529.8507151569241
530.336311148058
530.8074083294771
531.2627342001088
531.7010504768725
532.1211431479643
532.5218348178444
532.9019753751836
533.2604589595398
533.5961949669276
533.9081266681309
534.1952317413263
534.4565266307108
534.6910728222907
534.8980008315094
535.0764993773319
535.2258155758133
535.3452662419172
535.4342251854314
535.4921322905908
535.5184805159399
535.5128265575107
535.47480359037
535.40408765276
535.3004309915395
535.1636247198742
534.993535326316
534.7901013520548
534.5533255284814
534.2832864811832
533.9801505490274
533.6441290155549
533.2755029267045
532.8746148511905
532.4418603543032
531.977710019187
531.4827166217365
530.9574990164981
530.402721949424
529.8190951466282
529.2074049823989
528.5684809447744
527.9031970759488
527.2124708259901
526.4972727743838
525.7586520220844
524.9976986701727
524.2155459511039
523.4133860897233
522.5924493624678
521.7540005475656
520.8993527059692
520.0298679951932
519.1469388369818
518.2519971564269
517.3464971163805
516.4319190987029
515.5097594859784
514.5815346289029
513.6487860476452
512.7130940437694
511.7760737753216
510.83938895452314
509.9047310064445
508.97382261174073
508.04842126652665
507.1303324042123
506.22137301076765
505.32337435461943
504.43818903282033
503.56767837779597
502.7136949596829
501.8781103228111
501.0627899131954
500.26960715736175
499.50043962885314
498.7571693007434
498.04166527902004
497.35580837384657
496.70146754883996
496.08047145644684
495.49464750742
494.9458065028494
494.43570978826585
493.9660662390376
493.5385394579132
493.15473059941297
492.81617608180125
492.5243426156346
492.2806393236266
492.0863861232619
491.94282622617845
491.8511103528753
491.8122609704247
491.8271929347222
491.89671450976033
492.0215114529974
492.20212894353045
492.43895996356827
492.7322623659895
493.082141484149
493.4885309128475
493.9511996127108
494.4697353185911
495.0435637263719
495.6719157982843
496.35383473400043
497.0881768567416
497.87360014157724
498.70856205761766
499.59133789941677
500.520005292593
501.492462484096
502.5064149092236
503.5593893338034
504.6487272628788
505.7715902560235
506.92495966222356
508.1056415268211
509.3102743391797
510.53535055855093
511.77721729930215
513.0320955928178
514.2960918024567
515.5652169286847
516.8353741458595
518.1024062815404
519.3621006680571
520.610190509076
521.842394185893
523.0544049859637
524.2419138399298
525.4006388476789
526.5263465559918
527.6148560103815
528.6620670209286
529.6639618878079
530.6166326038028
531.5163139845795
532.3593950165448
533.1424344658925
533.862142647686
534.5154428110042
535.0994636868829
535.6115703787603
536.0493590279613
536.4106431187216
536.6934766889523
536.8961752244778
537.0173412525667
537.055866794252
537.0109459074324
536.8820665205135
536.669027445682
536.3719306573532
535.9911816356496
535.5275132399225
534.9819811233896
534.3559483939433
533.651089834028
532.8693651150733
532.0130154352987
531.0845502647925
530.0867129749408
529.0224884782431
527.8950981626373
526.7079515263287
525.4646527081302
524.1689943252217
522.8249346800396
521.4365847290065
520.0081985355815
518.5441611312214
517.0489518972564
515.5271514331126
513.9833961801978
512.4223635337611
510.84874337160556
509.2672249682045
507.682484002354
506.0991389942548
504.52174734210706
502.9547859607409
501.402623319815
499.86952934768146
498.35963594946685
496.87692900253734
495.4252434865428
494.0082512973122
492.62944839433845
491.29210590975913
489.999289914112
488.75386039628063
487.5584432963782
486.4154544561014
485.3270682764068
484.2952117773694
483.321577281114
482.40760352305387
481.55449527619993
480.7632004020972
480.03443165532275
479.3686677583713
478.76614249869664
478.22687410458803
477.7506607002933
477.3370879236134
476.9855352684643
476.69518302705785
476.46503532663155
476.29391781954484
476.18049565384507
476.12328768536304
476.1206548819708
476.1708280383301
476.2719157522863
476.4219145138273
476.6187360438224
476.8602128678725
477.14411725202837
477.4681714480583
477.83004679219044
478.2273974859647
478.6578526655477
479.1190320370557
479.60855871437366
480.1240739275264
480.66325121428406
481.2237837941695
481.80341509658786
482.3999246426768
483.01116133999994
483.6350324203562
484.2695092123023
484.9126318831711
485.562532979466
486.2174256080899
486.87561966013084
487.53550895337736
488.1955617793077
488.85434336460804
489.5105115428692
490.16283862317715
490.81018068148467
491.4514968549429
492.0858289374782
492.71232223607007
493.33023141048744
493.93890510163084
494.53778821429177
495.12640419490214
495.7043501020633
496.27129997096563
496.82699018958306
497.3712216120158
497.9038566389422
498.42482031645613
498.9340876434363
499.43166795855666
499.9176193462869
500.39202743600595
500.8550231842421
501.3067765838298
501.7474751916495
502.1773510128151
502.59666189694224
503.0056666653889
503.4046551170443
503.7939304121884
504.17380502900176
504.54459928795785
504.90664033790665
505.26026153587526
505.6057869876892
505.94353390352927
506.27379516272583
506.59686567013455
506.9130317825056
507.2225610827487
507.52571879284454
507.82274497837307
508.1138736373982
508.3993369803636
508.6793371961075
508.954064269449
509.22368740053815
509.48836403195304
509.7482381907131
510.00343008602175
510.25404525671513
510.50016383580373
510.7418672152701
510.9792256851845
511.21227733246104
511.44105931416016
511.66557778678003
511.8858323538049
512.1018165164695
512.3135073048309
512.520868108248
512.7238536193895
512.9224148537618
513.1164912675206
513.3060071816238
513.4908879795242
513.671039046423
513.8463594535219
514.0167490647053
514.1821027492958
514.3423068668324
514.4972399630085
514.6467777746592
514.7907916014202
514.9291399906018
515.0616954504048
515.1883297609028
515.3089214284201
515.4233590256634
515.5315183397518
515.6332787169885
515.728521716452
515.8171384233731
515.8990259766842
515.974077484603
516.0422001816481
516.1033116996496
516.1573342379666
516.2042106443383
516.2438722392922
516.2762809015804
516.3014033937865
516.3192230420813
516.3297338210156
516.332940956641
516.3288748076637
516.3175807803561
516.2991090962771
516.2735349926783
516.240948291132
516.2014560912029
516.1551833235517
516.1022688258106
516.0428764825355
515.9771800564532
515.9053786450959
515.8276902027588
515.7443539069877
515.6556236678549
515.561763520223
515.4630670243462
515.3598372744555
515.252388578011
515.1410654286133
515.0262243704783
514.9082489143633
514.7875338583291
514.6644914774281
514.5395510937528
514.4131519299264
514.2857491383027
514.1578088426777
514.0298140250903
513.9022506801748
513.775604572349
513.6503862498226
513.5270992371289
513.4062561282853
513.2883881820783
513.1740267420346
513.0637130712407
512.9579863832685
512.8573849821536
512.7624428135766
512.6736790926791
512.5916226788977
512.5167972551084
512.4497265344975
512.3909285694212
512.3408946401534
512.300111750159
512.269054291666
512.2481779997462
512.2379292746101
512.2387281048001
512.250983914987
512.2750941190529
512.311427520992
512.3603318523841
512.4221259216648
512.4971114870435
512.5855567742225
512.6877041047817
512.8037577843519
512.9338892513314
513.078253273547
513.236958509093
513.4100906931284
513.59769432848
513.7997739985522
514.0162911897273
514.2471808430785
514.4923264274768
514.7515786653687
515.0247414837842
515.3115866014356
515.6118463812306
515.9252157786191
516.2513479738276
516.5898434431289
516.9402630032264
517.3021277850306
517.67491722668
518.0580737891586
