528.765451080901
528.7609966842032
528.7565423724246
528.7520881459583
528.7476340051973
528.7431799505347
528.7387259823637
528.7342721010774
528.7298183070685
528.7253646007294
528.7209109824531
528.716457452632
528.7120040116585
528.7075506599252
528.703097397825
528.6986442257504
528.6941911440939
528.689738153248
528.6852852536048
528.6808324455566
528.6763797294958
528.6719271058147
528.6674745749052
528.6630221371594
528.6585697929689
528.6541175427254
528.6496653868204
528.6452133256456
528.6407613595928
528.6363094890534
528.6318577144183
528.6274060360789
528.6229544544263
528.6185029698514
528.614051582745
528.6096002934977
528.6051491024997
528.6006980101414
528.596247016813
528.5917961229048
528.5873453288074
528.582894634911
528.5784440416061
528.573993549283
528.5695431583318
528.5650928691422
528.5606426821038
528.5561925976064
528.5517426160399
528.547292737794
528.5428429632585
528.5383932928231
528.5339437268773
528.5294942658107
528.5250449100132
528.5205956598744
528.516146515784
528.5116974781314
528.5072485473057
528.5027997236967
528.4983510076937
528.4939023996859
528.4894539000626
528.485005509213
528.4805572275267
528.4761090553928
528.4716609932008
528.4672130413397
528.4627652001994
528.4583174701694
528.4538698516386
528.4494223449964
528.444974950632
528.4405276689344
528.4360805002924
528.4316334450947
528.42718650373
528.4227396765874
528.4182929640564
528.4138463665264
528.4093998843872
528.4049535180287
528.4005072678407
528.3960611342123
528.3916151175328
528.3871692181907
528.3827234365748
528.3782777730736
528.3738322280757
528.3693868019697
528.3649414951436
528.3604963079862
528.3560512408854
528.3516062942298
528.3471614684078
528.342716763808
528.3382721808194
528.3338277198314
528.3293833812332
528.3249391654139
528.3204950727624
528.316051103668
528.31160725852
528.3071635377074
528.3027199416193
528.2982764706445
528.2938331251713
528.2893899055877
528.284946812281
528.2805038456382
528.2760610060465
528.2716182938926
528.2671757095637
528.262733253447
528.2582909259296
528.2538487273988
528.249406658242
528.2449647188465
528.2405229095995
528.2360812308883
528.2316396831008
528.227198266624
528.2227569818452
528.2183158291515
528.21387480893
528.2094339215679
528.2049931674529
528.2005525469727
528.196112060515
528.191671708467
528.1872314912154
528.1827914091467
528.1783514626478
528.1739116521054
528.169471977906
528.1650324404364
528.160593040083
528.1561537772319
528.1517146522698
528.1472756655832
528.1428368175588
528.1383981085834
528.1339595390435
528.1295211093258
528.1250828198164
528.1206446709017
528.116206662968
528.1117687964019
528.1073310715898
528.1028934889183
528.0984560487738
528.0940187515422
528.0895815976095
528.0851445873615
528.080707721184
528.076270999463
528.0718344225842
528.0673979909335
528.0629617048966
528.058525564859
528.0540895712064
528.0496537243242
528.0452180245974
528.0407824724108
528.0363470681497
528.0319118121992
528.0274767049447
528.0230417467718
528.0186069380667
528.0141722792151
528.009737770603
528.005303412616
528.0008692056396
527.9964351500595
527.9920012462609
527.9875674946289
527.9831338955493
527.9787004494073
527.9742671565879
527.969834017476
527.965401032457
527.9609682019155
527.9565355262367
527.9521030058055
527.9476706410063
527.9432384322237
527.9388063798418
527.934374484245
527.9299427458174
527.9255111649423
527.9210797420034
527.9166484773831
527.9122173714642
527.9077864246293
527.9033556372611
527.8989250097421
527.8944945424543
527.8900642357795
527.8856340900999
527.8812041057973
527.8767742832539
527.8723446228518
527.8679151249727
527.8634857899987
527.8590566183119
527.8546276102944
527.8501987663282
527.8457700867954
527.8413415720785
527.8369132225597
527.8324850386213
527.8280570206451
527.8236291690133
527.8192014841076
527.8147739663092
527.8103466159997
527.8059194335605
527.8014924193725
527.7970655738169
527.7926388972747
527.7882123901273
527.7837860527558
527.7793598855407
527.7749338888628
527.7705080631032
527.7660824086425
527.7616569258613
527.7572316151396
527.7528064768575
527.7483815113945
527.7439567191306
527.7395321004452
527.7351076557183
527.7306833853291
527.7262592896574
527.721835369082
527.717411623982
527.7129880547365
527.7085646617244
527.7041414453248
527.699718405917
527.6952955438804
527.6908728595946
527.686450353439
527.6820280257931
527.6776058770366
527.6731839075491
527.6687621177094
527.6643405078963
527.6599190784879
527.6554978298622
527.6510767623973
527.6466558764713
527.6422351724622
527.6378146507483
527.633394311708
527.6289741557194
527.6245541831605
527.6201343944086
527.6157147898413
527.6112953698358
527.6068761347698
527.6024570850205
527.5980382209656
527.5936195429821
527.5892010514473
527.5847827467384
527.5803646292328
527.5759466993078
527.5715289573401
527.5671114037069
527.562694038785
527.5582768629512
527.5538598765817
527.5494430800526
527.5450264737398
527.5406100580191
527.5361938332663
527.5317777998572
527.527361958167
527.5229463085712
527.5185308514452
527.5141155871639
527.5097005161025
527.5052856386366
527.5008709551417
527.4964564659937
527.492042171568
527.48762807224
527.4832141683847
527.4788004603771
527.4743869485923
527.4699736334052
527.4655605151908
527.4611475943235
527.4567348711777
527.4523223461275
527.4479100195473
527.4434978918113
527.4390859632935
527.4346742343681
527.4302627054095
527.4258513767919
527.4214402488898
527.4170293220774
527.412618596729
527.4082080732188
527.4037977519212
527.3993876332098
527.3949777174586
527.3905680050412
527.3861584963316
527.3817491917035
527.3773400915303
527.3729311961853
527.3685225060418
527.3641140214733
527.359705742853
527.3552976705543
527.3508898049503
527.3464821464141
527.3420746953185
527.3376674520358
527.3332604169385
527.3288535903986
527.3244469727885
527.3200405644803
527.3156343658467
527.3112283772592
527.3068225990897
527.3024170317098
527.2980116754903
527.2936065308021
527.2892015980157
527.2847968775019
527.2803923696314
527.2759880747748
527.2715839933027
527.2671801255859
527.2627764719956
527.2583730329028
527.2539698086783
527.2495667996933
527.2451640063183
527.2407614289237
527.2363590678798
527.2319569235564
527.2275549963234
527.2231532865504
527.2187517946069
527.214350520862
527.2099494656851
527.2055486294452
527.2011480125108
527.196747615251
527.1923474380347
527.1879474812312
527.1835477452092
527.179148230338
527.174748936986
527.1703498655214
527.1659510163119
527.161552389725
527.1571539861287
527.1527558058912
527.1483578493802
527.1439601169635
527.1395626090083
527.1351653258818
527.1307682679509
527.1263714355829
527.1219748291452
527.1175784490055
527.1131822955316
527.1087863690915
527.104390670053
527.0999951987841
527.0955999556526
527.0912049410264
527.0868101552729
527.0824155987594
527.0780212718533
527.0736271749221
527.0692333083333
527.0648396724549
527.0604462676553
527.0560530943027
527.0516601527653
527.047267443411
527.0428749666077
527.0384827227232
527.0340907121257
527.0296989351833
527.0253073922642
527.0209160837361
527.0165250099673
527.0121341713258
527.0077435681798
527.0033532008975
526.998963069848
526.9945731753993
526.99018351792
526.9857940977782
526.9814049153421
526.9770159709793
526.9726272650574
526.9682387979434
526.9638505700042
526.9594625816068
526.9550748331177
526.9506873249035
526.9463000573306
526.9419130307659
526.9375262455761
526.9331397021277
526.9287534007873
526.9243673419211
526.9199815258957
526.9155959530775
526.9112106238332
526.9068255385288
526.9024406975303
526.8980561012037
526.8936717499149
526.8892876440299
526.8849037839149
526.8805201699362
526.8761368024603
526.8717536818536
526.8673708084822
526.862988182712
526.8586058049087
526.8542236754375
526.8498417946636
526.8454601629516
526.8410787806662
526.8366976481719
526.8323167658333
526.8279361340145
526.8235557530799
526.8191756233933
526.814795745319
526.8104161192206
526.8060367454619
526.8016576244069
526.7972787564187
526.7929001418607
526.7885217810964
526.784143674489
526.7797658224023
526.7753882252001
526.771010883246
526.7666337969036
526.7622569665365
526.7578803925081
526.7535040751821
526.7491280149221
526.7447522120916
526.7403766670546
526.736001380175
526.7316263518165
526.7272515823425
526.7228770721164
526.7185028215009
526.7141288308591
526.7097551005539
526.7053816309482
526.7010084224045
526.6966354752855
526.6922627899536
526.6878903667713
526.683518206101
526.6791463083051
526.6747746737464
526.6704033027873
526.6660321957908
526.6616613531188
526.6572907751332
526.6529204621958
526.6485504146682
526.6441806329118
526.6398111172879
526.6354418681573
526.6310728858808
526.6267041708192
526.6223357233326
526.6179675437819
526.6135996325276
526.6092319899304
526.6048646163514
526.600497512151
526.59613067769
526.5917641133284
526.5873978194264
526.583031796344
526.5786660444411
526.5743005640776
526.5699353556139
526.5655704194102
526.5612057558266
526.5568413652232
526.5524772479604
526.5481134043979
526.5437498348953
526.5393865398115
526.5350235195054
526.5306607743361
526.5262983046624
526.521936110844
526.5175741932397
526.5132125522088
526.50885118811
526.5044901013022
526.5001292921432
526.4957687609914
526.4914085082047
526.4870485341418
526.4826888391609
526.4783294236205
526.4739702878788
526.4696114322945
526.4652528572257
526.4608945630299
526.4565365500654
526.45217881869
526.4478213692611
526.4434642021355
526.4391073176699
526.4347507162207
526.4303943981444
526.4260383637976
526.4216826135372
526.4173271477199
526.4129719667027
526.4086170708421
526.4042624604946
526.399908136017
526.3955540977657
526.3912003460977
526.386846881369
526.3824937039361
526.3781408141557
526.3737882123847
526.3694358989798
526.365083874297
526.3607321386929
526.3563806925232
526.3520295361435
526.3476786699099
526.3433280941782
526.3389778093043
526.3346278156438
526.3302781135523
526.3259287033853
526.3215795854986
526.3172307602478
526.3128822279883
526.3085339890755
526.3041860438644
526.2998383927098
526.2954910359662
526.2911439739879
526.2867972071291
526.2824507357437
526.2781045601856
526.2737586808086
526.2694130979663
526.2650678120125
526.2607228233004
526.2563781321834
526.2520337390146
526.2476896441468
526.2433458479333
526.2390023507272
526.2346591528823
526.230316254752
526.2259736566899
526.2216313590499
526.2172893621852
526.2129476664494
526.2086062721961
526.2042651797786
526.1999243895501
526.1955839018634
526.1912437170714
526.1869038355268
526.1825642575819
526.1782249835891
526.1738860139006
526.1695473488688
526.1652089888458
526.1608709341834
526.1565331852331
526.1521957423466
526.1478586058757
526.143521776172
526.1391852535868
526.1348490384718
526.130513131178
526.1261775320562
526.1218422414571
526.1175072597313
526.1131725872293
526.1088382243012
526.104504171297
526.1001704285669
526.0958369964607
526.0915038753279
526.0871710655184
526.0828385673818
526.0785063812679
526.0741745075262
526.0698429465066
526.0655116985591
526.061180764034
526.0568501432809
526.0525198366496
526.0481898444897
526.0438601671509
526.0395308049825
526.0352017583338
526.0308730275541
526.0265446129935
526.0222165150013
526.0178887339267
526.0135612701184
526.0092341239248
526.0049072956939
526.0005807857734
525.9962545945106
525.9919287222525
525.9876031693462
525.9832779361387
525.978953022977
525.9746284302081
525.9703041581794
525.965980207238
525.9616565777311
525.9573332700057
525.9530102844086
525.9486876212867
525.9443652809872
525.9400432638569
525.9357215702422
525.9314002004897
525.927079154946
525.9227584339575
525.9184380378703
525.9141179670306
525.9097982217849
525.9054788024795
525.9011597094608
525.8968409430748
525.8925225036679
525.8882043915859
525.8838866071748
525.8795691507806
525.8752520227496
525.8709352234272
525.8666187531586
525.8623026122888
525.8579868011624
525.8536713201246
525.8493561695205
525.845041349695
525.8407268609927
525.8364127037588
525.8320988783381
525.8277853850756
525.8234722243161
525.8191593964049
525.8148469016875
525.8105347405091
525.8062229132146
525.8019114201489
525.7976002616568
525.7932894380828
525.7889789497714
525.7846687970674
525.7803589803158
525.7760494998612
525.7717403560486
525.7674315492228
525.7631230797289
525.7588149479114
525.754507154115
525.7501996986838
525.7458925819618
525.7415858042929
525.7372793660203
525.732973267487
525.7286675090355
525.7243620910086
525.7200570137489
525.7157522775993
525.7114478829027
525.7071438300021
525.7028401192402
525.6985367509593
525.694233725501
525.6899310432069
525.6856287044185
525.6813267094773
525.6770250587248
525.6727237525021
525.66842279115
525.6641221750093
525.6598219044205
525.6555219797239
525.6512224012596
525.6469231693678
525.6426242843885
525.6383257466615
525.6340275565261
525.6297297143216
525.6254322203866
525.6211350750594
525.6168382786778
525.6125418315793
525.6082457341007
525.6039499865793
525.5996545893523
525.5953595427562
525.5910648471273
525.5867705028021
525.5824765101166
525.578182869407
525.5738895810092
525.5695966452591
525.5653040624926
525.5610118330452
525.5567199572525
525.55242843545
525.5481372679732
525.5438464551572
525.5395559973371
525.5352658948474
525.5309761480229
525.5266867571985
525.5223977227091
525.5181090448892
525.5138207240733
525.509532760596
525.5052451547916
525.5009579069939
525.4966710175369
525.4923844867543
525.4880983149798
525.4838125025464
525.4795270497874
525.4752419570358
525.4709572246242
525.4666728528852
525.4623888421512
525.4581051927549
525.4538219050288
525.4495389793047
525.4452564159152
525.4409742151923
525.4366923774684
525.4324109030757
525.4281297923468
525.4238490456138
525.4195686632089
525.4152886454641
525.4110089927109
525.4067297052806
525.4024507835044
525.3981722277136
525.3938940382396
525.3896162154139
525.3853387595674
525.3810616710308
525.376784950135
525.3725085972106
525.3682326125885
525.3639569965991
525.3596817495728
525.35540687184
525.3511323637309
525.3468582255754
525.3425844577033
525.3383110604447
525.3340380341293
525.3297653790872
525.3254930956479
525.3212211841407
525.3169496448951
525.3126784782404
525.3084076845056
525.3041372640197
525.2998672171112
525.2955975441085
525.2913282453397
525.2870593211325
525.2827907718148
525.2785225977146
525.2742547991598
525.2699873764778
525.2657203299958
525.261453660041
525.2571873669405
525.252921451021
525.2486559126095
525.2443907520325
525.2401259696163
525.2358615656877
525.2315975405733
525.2273338945992
525.2230706280913
525.2188077413749
525.2145452347753
525.2102831086173
525.2060213632254
525.2017599989241
525.1974990160376
525.1932384148898
525.1889781958045
525.184718359105
525.1804589051147
525.1761998341573
525.1719411465562
525.1676828426349
525.1634249227171
525.1591673871259
525.1549102361838
525.1506534702136
525.1463970895376
525.142141094478
525.1378854853571
525.1336302624969
525.12937542622
525.1251209768483
525.1208669147032
525.116613240106
525.1123599533777
525.1081070548395
525.1038545448124
525.0996024236175
525.0953506915758
525.0910993490085
525.0868483962362
525.0825978335796
525.0783476613591
525.0740978798946
525.0698484895057
525.065599490512
525.0613508832331
525.0571026679887
525.0528548450985
525.0486074148822
525.0443603776595
525.04011373375
525.035867483473
525.0316216271477
525.027376165093
525.0231310976275
525.01888642507
525.0146421477397
525.0103982659554
525.0061547800357
525.0019116902996
524.997668997066
524.9934267006535
524.9891848013812
524.9849432995676
524.9807021955313
524.9764614895906
524.9722211820637
524.9679812732685
524.9637417635232
524.9595026531457
524.9552639424543
524.9510256317673
524.946787721403
524.9425502116798
524.9383131029157
524.9340763954284
524.9298400895351
524.9256041855527
524.9213686837985
524.9171335845896
524.9128988882436
524.908664595078
524.9044307054097
524.9001972195553
524.8959641378311
524.8917314605538
524.8874991880399
524.8832673206058
524.8790358585678
524.8748048022418
524.870574151944
524.8663439079907
524.8621140706979
524.8578846403817
524.8536556173582
524.8494270019434
524.8451987944528
524.8409709952026
524.8367436045088
524.8325166226879
524.8282900500559
524.8240638869285
524.8198381336211
524.8156127904496
524.8113878577293
524.8071633357755
524.8029392249035
524.7987155254287
524.7944922376661
524.7902693619304
524.7860468985369
524.7818248478007
524.7776032100372
524.7733819855617
524.7691611746894
524.764940777735
524.7607207950128
524.756501226837
524.7522820735213
524.748063335379
524.743845012723
524.7396271058659
524.7354096151204
524.731192540799
524.7269758832145
524.7227596426793
524.7185438195057
524.7143284140067
524.710113426495
524.7058988572836
524.7016847066853
524.6974709750131
524.6932576625796
524.6890447696975
524.684832296679
524.6806202438366
524.6764086114828
524.6721973999298
524.6679866094902
524.6637762404761
524.6595662931992
524.6553567679713
524.6511476651036
524.6469389849073
524.6427307276932
524.638522893773
524.634315483458
524.6301084970586
524.6259019348853
524.6216957972484
524.6174900844582
524.6132847968244
524.6090799346567
524.6048754982652
524.6006714879594
524.5964679040491
524.5922647468441
524.5880620166541
524.5838597137885
524.5796578385563
524.5754563912668
524.5712553722293
524.5670547817527
524.5628546201461
524.558654887718
524.5544555847774
524.5502567116329
524.5460582685924
524.541860255964
524.5376626740555
524.5334655231746
524.5292688036299
524.5250725157294
524.5208766597817
524.516681236095
524.512486244978
524.5082916867397
524.5040975616881
524.499903870132
524.4957106123799
524.4915177887398
524.4873253995198
524.4831334450286
524.4789419255745
524.4747508414661
524.4705601930112
524.4663699805179
524.4621802042935
524.4579908646457
524.4538019618818
524.4496134963098
524.4454254682374
524.4412378779724
524.4370507258228
524.4328640120972
524.4286777371041
524.4244919011518
524.4203065045482
524.4161215476014
524.4119370306195
524.407752953911
524.4035693177844
524.399386122548
524.3952033685097
524.3910210559776
524.3868391852599
524.3826577566643
524.3784767704989
524.3742962270711
524.3701161266887
524.3659364696592
524.3617572562906
524.3575784868905
524.353400161766
524.3492222812239
524.3450448455707
524.3408678551128
524.3366913101569
524.3325152110091
524.3283395579757
524.324164351363
524.3199895914769
524.3158152786228
524.3116414131065
524.3074679952339
524.3032950253106
524.2991225036423
524.2949504305342
524.2907788062918
524.2866076312201
524.2824369056244
524.2782666298098
524.2740968040811
524.2699274287428
524.2657585040992
524.2615900304542
524.2574220081116
524.2532544373747
524.2490873185469
524.244920651931
524.2407544378303
524.2365886765484
524.2324233683888
524.2282585136551
524.2240941126507
524.2199301656791
524.2157666730435
524.211603635047
524.2074410519928
524.2032789241836
524.1991172519223
524.1949560355116
524.1907952752541
524.186634971452
524.1824751244077
524.1783157344236
524.1741568018023
524.1699983268464
524.1658403098583
524.1616827511401
524.1575256509942
524.1533690097227
524.1492128276274
524.1450571050096
524.1409018421706
524.1367470394106
524.13259269703
524.1284388153291
524.1242853946079
524.120132435166
524.115979937303
524.1118279013184
524.1076763275122
524.1035252161838
524.0993745676327
524.0952243821581
524.0910746600595
524.0869254016362
524.0827766071876
524.0786282770124
524.0744804114091
524.0703330106759
524.0661860751103
524.06203960501
524.0578936006724
524.0537480623944
524.0496029904731
524.0454583852048
524.0413142468861
524.0371705758135
524.0330273722831
524.0288846365905
524.0247423690317
524.0206005699025
524.0164592394987
524.0123183781158
524.0081779860494
524.0040380635952
523.9998986110483
523.9957596287037
523.9916211168562
523.9874830758005
523.9833455058312
523.9792084072429
523.9750717803307
523.970935625389
523.9667999427121
523.962664732595
523.9585299953327
523.95439573122
523.9502619405515
523.946128623622
523.941995780726
523.9378634121578
523.9337315182119
523.9296000991823
523.9254691553627
523.9213386870471
523.9172086945283
523.9130791780993
523.9089501380525
523.9048215746803
523.9006934882747
523.8965658791273
523.89243874753
523.888312093775
523.884185918154
523.8800602209593
523.8759350024831
523.8718102630172
523.8676860028537
523.8635622222845
523.8594389216015
523.8553161010967
523.8511937610616
523.8470719017879
523.8429505235673
523.8388296266913
523.8347092114515
523.8305892781392
523.8264698270456
523.8223508584616
523.8182323726786
523.8141143699878
523.8099968506805
523.8058798150479
523.8017632633815
523.7976471959731
523.7935316131144
523.7894165150966
523.7853019022115
523.781187774751
523.7770741330065
523.7729609772697
523.7688483078315
523.7647361249825
523.7606244290133
523.7565132202145
523.7524024988762
523.7482922652881
523.7441825197394
523.7400732625193
523.7359644939171
523.7318562142219
523.727748423723
523.7236411227094
523.7195343114696
523.7154279902921
523.7113221594651
523.7072168192768
523.7031119700156
523.6990076119697
523.6949037454277
523.6908003706777
523.6866974880078
523.6825950977055
523.6784932000584
523.6743917953537
523.6702908838789
523.666190465921
523.6620905417664
523.6579911117016
523.6538921760131
523.6497937349869
523.6456957889085
523.6415983380631
523.6375013827356
523.6334049232111
523.6293089597744
523.6252134927103
523.6211185223027
523.6170240488356
523.6129300725926
523.6088365938573
523.6047436129128
523.6006511300417
523.5965591455266
523.5924676596497
523.5883766726935
523.5842861849404
523.5801961966732
523.5761067081745
523.5720177197269
523.5679292316128
523.5638412441143
523.5597537575137
523.5556667720931
523.5515802881347
523.5474943059204
523.5434088257324
523.5393238478529
523.5352393725635
523.5311554001463
523.5270719308834
523.5229889650562
523.5189065029466
523.514824544836
523.5107430910058
523.5066621417378
523.5025816973138
523.4985017580153
523.4944223241242
523.4903433959217
523.4862649736896
523.4821870577094
523.4781096482628
523.4740327456308
523.4699563500941
523.4658804619336
523.4618050814303
523.457730208865
523.453655844518
523.4495819886698
523.4455086416007
523.4414358035912
523.4373634749214
523.4332916558714
523.4292203467209
523.4251495477498
523.4210792592381
523.4170094814657
523.4129402147124
523.4088714592582
523.4048032153829
523.400735483366
523.3966682634865
523.3926015560229
523.3885353612533
523.3844696794555
523.3804045109074
523.3763398558864
523.3722757146694
523.3682120875329
523.3641489747534
523.3600863766075
523.3560242933717
523.3519627253226
523.3479016727366
523.3438411358906
523.3397811150609
523.3357216105238
523.3316626225559
523.3276041514333
523.3235461974319
523.3194887608275
523.3154318418962
523.3113754409134
523.3073195581547
523.3032641938959
523.2992093484123
523.2951550219792
523.2911012148717
523.287047927365
523.2829951597347
523.2789429122557
523.2748911852033
523.2708399788525
523.2667892934784
523.2627391293557
523.2586894867592
523.2546403659636
523.2505917672441
523.2465436908759
523.2424961371343
523.2384491062938
523.2344025986291
523.2303566144145
523.2263111539243
523.2222662174323
523.2182218052127
523.2141779175389
523.2101345546845
523.2060917169232
523.2020494045283
523.1980076177734
523.1939663569316
523.1899256222754
523.185885414077
523.1818457326086
523.1778065781424
523.1737679509503
523.1697298513042
523.1656922794758
523.1616552357369
523.1576187203592
523.1535827336139
523.1495472757721
523.145512347105
523.1414779478836
523.1374440783785
523.1334107388599
523.129377929598
523.1253456508631
523.121313902925
523.1172826860535
523.1132520005186
523.1092218465898
523.1051922245362
523.101163134627
523.097134577131
523.093106552317
523.0890790604539
523.0850521018111
523.0810256766582
523.0769997852645
523.0729744278998
523.0689496048338
523.0649253163361
523.0609015626759
523.0568783441223
523.0528556609444
523.0488335134108
523.04481190179
523.04079082635
523.0367702873588
523.0327502850843
523.0287308197941
523.0247118917556
523.0206935012362
523.0166756485033
523.0126583338241
523.0086415574655
523.0046253196944
523.0006096207775
522.9965944609813
522.9925798405721
522.988565759816
522.9845522189786
522.9805392183258
522.9765267581234
522.972514838637
522.9685034601322
522.9644926228742
522.9604823271285
522.9564725731603
522.9524633612349
522.948454691617
522.9444465645721
522.9404389803655
522.9364319392622
522.9324254415275
522.9284194874266
522.9244140772247
522.9204092111864
522.9164048895763
522.9124011126588
522.9083978806985
522.9043951939599
522.900393052707
522.8963914572038
522.8923904077138
522.8883899045012
522.8843899478296
522.8803905379629
522.8763916751647
522.872393359699
522.8683955918297
522.8643983718204
522.8604016999349
522.8564055764369
522.8524100015903
522.8484149756588
522.8444204989061
522.8404265715955
522.8364331939903
522.8324403663534
522.8284480889473
522.8244563620348
522.8204651858781
522.8164745607393
522.8124844868804
522.8084949645637
522.804505994051
522.8005175756044
522.7965297094858
522.7925423959567
522.7885556352788
522.7845694277133
522.780583773521
522.7765986729627
522.7726141262989
522.7686301337905
522.7646466956982
522.7606638122826
522.7566814838041
522.752699710523
522.7487184926996
522.7447378305941
522.7407577244663
522.7367781745762
522.7327991811832
522.7288207445459
522.7248428649231
522.720865542573
522.716888777754
522.7129125707235
522.7089369217391
522.7049618310583
522.7009872989385
522.6970133256369
522.6930399114113
522.6890670565195
522.6850947612187
522.6811230257659
522.6771518504185
522.6731812354334
522.6692111810681
522.6652416875796
522.6612727552248
522.6573043842606
522.6533365749439
522.6493693275316
522.6454026422804
522.6414365194463
522.6374709592857
522.6335059620543
522.6295415280075
522.6255776574004
522.6216143504881
522.6176516075253
522.6136894287664
522.6097278144656
522.6057667648771
522.6018062802547
522.5978463608518
522.5938870069223
522.5899282187198
522.5859699964986
522.582012340513
522.578055251017
522.5740987282651
522.5701427725113
522.5661873840096
522.5622325630135
522.5582783097763
522.5543246245514
522.5503715075921
522.5464189591515
522.5424669794826
522.5385155688379
522.53456472747
522.5306144556317
522.5266647535758
522.5227156215545
522.5187670598203
522.5148190686256
522.5108716482226
522.5069247988641
522.5029785208027
522.4990328142909
522.4950876795812
522.4911431169252
522.4871991265746
522.4832557087813
522.4793128637967
522.4753705918725
522.4714288932604
522.467487768212
522.463547216979
522.4596072398132
522.455667836966
522.4517290086889
522.4477907552333
522.4438530768508
522.4399159737931
522.4359794463118
522.4320434946586
522.4281081190849
522.4241733198415
522.4202390971792
522.4163054513482
522.4123723825984
522.4084398911797
522.404507977342
522.4005766413353
522.3966458834096
522.3927157038146
522.3887861028003
522.3848570806168
522.3809286375141
522.3770007737418
522.373073489549
522.3691467851851
522.3652206608991
522.3612951169404
522.357370153558
522.3534457710012
522.3495219695193
522.3455987493618
522.3416761107782
522.3377540540174
522.333832579328
522.3299116869583
522.3259913771566
522.3220716501713
522.3181525062511
522.3142339456446
522.3103159686008
522.3063985753687
522.3024817661968
522.2985655413337
522.2946499010276
522.2907348455266
522.2868203750785
522.2829064899312
522.2789931903327
522.2750804765311
522.2711683487743
522.26725680731
522.2633458523859
522.2594354842491
522.2555257031464
522.251616509324
522.2477079030276
522.2437998845029
522.2398924539958
522.2359856117529
522.2320793580208
522.228173693046
522.2242686170749
522.2203641303541
522.2164602331301
522.2125569256492
522.2086542081582
522.2047520809036
522.2008505441319
522.1969495980894
522.1930492430225
522.1891494791772
522.1852503068
522.1813517261372
522.1774537374355
522.1735563409408
522.1696595368991
522.165763325556
522.1618677071571
522.1579726819479
522.1540782501735
522.1501844120793
522.146291167911
522.1423985179141
522.1385064623338
522.1346150014152
522.1307241354037
522.1268338645442
522.1229441890811
522.1190551092587
522.1151666253214
522.1112787375138
522.1073914460804
522.1035047512661
522.0996186533151
522.0957331524725
522.0918482489827
522.0879639430906
522.0840802350409
522.0801971250781
522.0763146134462
522.0724327003892
522.068551386151
522.0646706709755
522.0607905551066
522.0569110387879
522.0530321222631
522.0491538057755
522.0452760895686
522.0413989738855
522.0375224589694
522.0336465450633
522.0297712324106
522.0258965212544
522.0220224118378
522.018148904404
522.014275999196
522.0104036964564
522.0065319964282
522.0026608993547
521.9987904054791
521.9949205150443
521.9910512282933
521.987182545469
521.9833144668142
521.979446992572
521.9755801229854
521.9717138582979
521.9678481987524
521.9639831445915
521.9601186960573
521.9562548533919
521.9523916168372
521.9485289866351
521.9446669630275
521.9408055462567
521.9369447365644
521.9330845341925
521.9292249393824
521.9253659523753
521.9215075734124
521.9176498027347
521.913792640583
521.9099360871982
521.9060801428205
521.9022248076902
521.8983700820473
521.8945159661315
521.8906624601819
521.8868095644378
521.8829572791382
521.8791056045221
521.8752545408285
521.8714040882952
521.8675542471602
521.8637050176613
521.8598564000366
521.8560083945237
521.8521610013596
521.8483142207814
521.8444680530257
521.8406224983293
521.8367775569285
521.8329332290601
521.8290895149606
521.8252464148665
521.8214039290143
521.8175620576404
521.8137208009813
521.8098801592733
521.8060401327531
521.8022007216565
521.7983619262196
521.794523746678
521.7906861832672
521.7868492362228
521.7830129057803
521.7791771921749
521.7753420956416
521.7715076164151
521.76767375473
521.7638405108211
521.7600078849226
521.7561758772687
521.752344488093
521.7485137176296
521.7446835661129
521.7408540337768
521.737025120855
521.7331968275809
521.7293691541878
521.7255421009094
521.7217156679791
521.7178898556302
521.7140646640956
521.7102400936079
521.7064161443997
521.7025928167033
521.6987701107511
521.6949480267757
521.6911265650098
521.6873057256856
521.6834855090357
521.679665915292
521.6758469446869
521.6720285974526
521.6682108738213
521.6643937740251
521.6605772982961
521.6567614468664
521.6529462199684
521.6491316178339
521.6453176406945
521.6415042887824
521.6376915623292
521.6338794615666
521.630067986726
521.626257138039
521.6224469157374
521.6186373200532
521.6148283512181
521.6110200094641
521.6072122950235
521.603405208128
521.5995987490095
521.5957929178995
521.5919877150296
521.5881831406313
521.5843791949359
521.5805758781752
521.5767731905809
521.5729711323844
521.5691697038175
521.565368905112
521.5615687364999
521.5577691982131
521.5539702904836
521.5501720135431
521.5463743676236
521.5425773529565
521.5387809697735
521.5349852183057
521.5311900987846
521.5273956114416
521.5236017565081
521.5198085342153
521.516015944794
521.512223988476
521.5084326654925
521.5046419760748
521.500851920454
521.497062498861
521.493273711527
521.4894855586825
521.4856980405585
521.481911157386
521.4781249093957
521.4743392968186
521.4705543198858
521.4667699788284
521.4629862738783
521.4592032052666
521.4554207732245
521.4516389779834
521.4478578197742
521.4440772988277
521.4402974153746
521.4365181696459
521.4327395618722
521.428961592284
521.4251842611121
521.4214075685865
521.4176315149372
521.4138561003939
521.4100813251861
521.4063071895431
521.4025336936944
521.3987608378692
521.3949886222964
521.391217047205
521.387446112824
521.3836758193823
521.3799061671085
521.376137156231
521.3723687869787
521.3686010595799
521.3648339742634
521.3610675312581
521.3573017307928
521.3535365730964
521.3497720583983
521.3460081869276
521.342244958913
521.3384823745834
521.3347204341673
521.3309591378928
521.3271984859881
521.3234384786814
521.319679116201
521.3159203987749
521.312162326631
521.3084048999971
521.304648119101
521.3008919841706
521.2971364954334
521.2933816531173
521.2896274574499
521.2858739086588
521.2821210069709
521.2783687526131
521.2746171458122
521.2708661867947
521.2671158757877
521.2633662130178
521.2596171987112
521.255868833094
521.2521211163922
521.2483740488323
521.2446276306404
521.2408818620432
521.2371367432676
521.23339227454
521.2296484560871
521.2259052881353
521.222162770911
521.218420904641
521.2146796895519
521.2109391258706
521.2071992138241
521.2034599536395
521.1997213455439
521.1959833897646
521.1922460865281
521.188509436061
521.1847734385898
521.1810380943404
521.1773034035388
521.173569366411
521.1698359831831
521.1661032540813
521.1623711793319
521.158639759161
521.154908993795
521.1511788834601
521.1474494283831
521.1437206287904
521.1399924849089
521.1362649969652
521.132538165186
521.128811989798
521.1250864710279
521.1213616091023
521.1176374042481
521.1139138566917
521.1101909666601
521.1064687343791
521.1027471600743
521.099026243971
521.0953059862942
521.0915863872684
521.0878674471184
521.0841491660686
521.0804315443439
521.0767145821688
521.0729982797676
521.0692826373644
521.0655676551834
521.061853333449
521.0581396723852
521.0544266722164
521.0507143331666
521.0470026554598
521.0432916393198
521.0395812849707
521.0358715926367
521.0321625625417
521.0284541949096
521.0247464899645
521.0210394479301
521.0173330690301
521.0136273534882
521.0099223015283
521.0062179133739
521.0025141892489
520.998811129377
520.9951087339822
520.9914070032881
520.9877059375184
520.9840055368965
520.9803058016456
520.9766067319889
520.9729083281496
520.969210590351
520.9655135188165
520.9618171137691
520.9581213754324
520.954426304029
520.9507318997818
520.9470381629138
520.943345093648
520.939652692207
520.9359609588133
520.9322698936891
520.9285794970561
520.9248897691365
520.9212007101518
520.9175123203235
520.913824599873
520.9101375490219
520.9064511679916
520.9027654570035
520.8990804162792
520.8953960460395
520.8917123465059
520.8880293178996
520.884346960442
520.8806652743543
520.8769842598575
520.8733039171728
520.8696242465215
520.8659452481248
520.8622669222037
520.858589268979
520.8549122886715
520.8512359815016
520.8475603476905
520.8438853874587
520.8402111010265
520.8365374886145
520.8328645504431
520.8291922867335
520.8255206977066
520.8218497835834
520.8181795445845
520.8145099809304
520.8108410928418
520.807172880539
520.8035053442428
520.7998384841736
520.796172300552
520.7925067935986
520.7888419635334
520.7851778105761
520.7815143349463
520.7778515368637
520.774189416548
520.7705279742187
520.7668672100959
520.7632071243999
520.7595477173505
520.7558889891678
520.7522309400714
520.7485735702809
520.7449168800161
520.7412608694968
520.7376055389424
520.7339508885722
520.7302969186056
520.7266436292622
520.7229910207612
520.7193390933218
520.7156878471627
520.7120372825035
520.7083873995635
520.7047381985623
520.7010896797188
520.6974418432522
520.693794689381
520.6901482183231
520.6865024302966
520.6828573255192
520.6792129042086
520.6755691665827
520.6719261128593
520.6682837432562
520.664642057991
520.6610010572807
520.6573607413421
520.6537211103922
520.6500821646474
520.6464439043244
520.6428063296399
520.6391694408104
520.6355332380518
520.6318977215807
520.628262891613
520.6246287483647
520.6209952920518
520.61736252289
520.6137304410944
520.6100990468805
520.606468340464
520.6028383220606
520.599208991886
520.5955803501553
520.5919523970834
520.5883251328856
520.5846985577765
520.5810726719711
520.5774474756842
520.5738229691298
520.5701991525222
520.5665760260755
520.5629535900042
520.5593318445227
520.5557107898454
520.5520904261867
520.5484707537615
520.544851772784
520.5412334834679
520.5376158860264
520.5339989806731
520.5303827676215
520.5267672470851
520.5231524192776
520.5195382844125
520.5159248427036
520.5123120943646
520.5087000396094
520.5050886786522
520.5014780117073
520.4978680389887
520.4942587607105
520.4906501770866
520.4870422883306
520.4834350946559
520.4798285962755
520.476222793403
520.4726176862522
520.4690132750362
520.4654095599682
520.4618065412611
520.4582042191283
520.4546025937831
520.4510016654391
520.4474014343099
520.4438019006087
520.4402030645489
520.4366049263436
520.4330074862065
520.429410744351
520.4258147009906
520.4222193563388
520.4186247106092
520.4150307640149
520.4114375167691
520.4078449690847
520.4042531211752
520.4006619732539
520.3970715255347
520.3934817782314
520.3898927315578
520.3863043857283
520.3827167409573
520.3791297974595
520.3755435554496
520.371958015142
520.3683731767511
520.364789040491
520.3612056065759
520.3576228752196
520.3540408466357
520.3504595210383
520.3468788986414
520.3432989796596
520.3397197643075
520.3361412527994
520.33256344535
520.3289863421743
520.3254099434874
520.3218342495046
520.3182592604409
520.3146849765118
520.3111113979331
520.3075385249207
520.3039663576902
520.3003948964575
520.2968241414379
520.293254092847
520.2896847509002
520.2861161158131
520.2825481878009
520.2789809670786
520.2754144538613
520.2718486483642
520.2682835508023
520.2647191613906
520.2611554803449
520.2575925078805
520.2540302442131
520.2504686895583
520.2469078441317
520.2433477081491
520.2397882818265
520.2362295653794
520.2326715590235
520.2291142629743
520.2255576774475
520.2220018026577
520.2184466388204
520.2148921861509
520.2113384448645
520.2077854151763
520.2042330973019
520.2006814914567
520.1971305978569
520.1935804167184
520.1900309482568
520.1864821926875
520.1829341502263
520.1793868210885
520.1758402054903
520.1722943036476
520.1687491157769
520.1652046420942
520.1616608828152
520.1581178381556
520.1545755083308
520.1510338935567
520.147492994049
520.1439528100235
520.1404133416964
520.136874589284
520.1333365530028
520.1297992330689
520.1262626296981
520.122726743106
520.1191915735081
520.1156571211201
520.1121233861576
520.1085903688366
520.1050580693733
520.1015264879833
520.097995624882
520.0944654802842
520.090936054405
520.0874073474596
520.083879359663
520.0803520912303
520.0768255423767
520.0732997133174
520.0697746042678
520.0662502154431
520.062726547059
520.0592035993308
520.0556813724737
520.0521598667027
520.0486390822324
520.045119019277
520.0415996780501
520.0380810587654
520.0345631616359
520.0310459868743
520.0275295346936
520.0240138053063
520.0204987989245
520.0169845157601
520.0134709560247
520.0099581199291
520.0064460076841
520.0029346195
519.9994239555871
519.9959140161551
519.992404801414
519.9888963115735
519.9853885468436
519.981881507434
519.9783751935539
519.9748696054129
519.9713647432203
519.9678606071851
519.9643571975163
519.9608545144223
519.9573525581117
519.9538513287927
519.9503508266733
519.9468510519611
519.943352004863
519.939853685586
519.9363560943372
519.9328592313235
519.9293630967514
519.9258676908274
519.9223730137577
519.9188790657485
519.915385847006
519.9118933577362
519.9084015981451
519.9049105684386
519.9014202688219
519.8979306995001
519.8944418606781
519.8909537525604
519.8874663753517
519.8839797292559
519.8804938144768
519.8770086312182
519.8735241796836
519.8700404600758
519.8665574725973
519.8630752174507
519.859593694838
519.8561129049612
519.8526328480215
519.84915352422
519.8456749337578
519.8421970768358
519.8387199536545
519.8352435644146
519.8317679093165
519.8282929885603
519.8248188023462
519.8213453508741
519.8178726343443
519.8144006529564
519.8109294069096
519.8074588964035
519.8039891216371
519.8005200828092
519.7970517801183
519.7935842137625
519.7901173839397
519.7866512908475
519.783185934684
519.779721315646
519.7762574339305
519.772794289734
519.7693318832529
519.7658702146838
519.762409284223
519.7589490920669
519.7554896384112
519.7520309234516
519.7485729473839
519.7451157104036
519.7416592127064
519.7382034544875
519.7347484359419
519.7312941572644
519.7278406186496
519.7243878202916
519.7209357623846
519.7174844451228
519.7140338686999
519.7105840333091
519.7071349391439
519.7036865863973
519.7002389752626
519.6967921059321
519.693345978599
519.6899005934564
519.686455950697
519.6830120505132
519.6795688930969
519.67612647864
519.6726848073339
519.6692438793701
519.6658036949399
519.6623642542335
519.6589255574407
519.6554876047511
519.6520503963542
519.6486139324392
519.645178213195
519.6417432388106
519.6383090094749
519.634875525377
519.6314427867054
519.6280107936485
519.6245795463948
519.6211490451327
519.6177192900506
519.6142902813361
519.6108620191768
519.6074345037599
519.6040077352726
519.6005817139018
519.5971564398341
519.5937319132557
519.5903081343523
519.5868851033091
519.583462820311
519.5800412855425
519.5766204991882
519.5732004614318
519.5697811724573
519.566362632448
519.5629448415867
519.5595278000563
519.5561115080392
519.5526959657171
519.5492811732719
519.5458671308851
519.5424538387384
519.5390412970131
519.5356295058904
519.5322184655514
519.5288081761772
519.5253986379488
519.5219898510471
519.5185818156532
519.5151745319482
519.5117680001134
519.50836222033
519.504957192779
519.5015529176411
519.4981493950971
519.4947466253274
519.4913446085119
519.4879433448308
519.4845428344642
519.4811430775916
519.4777440743923
519.4743458250449
519.4709483297282
519.4675515886205
519.4641556018995
519.4607603697426
519.4573658923272
519.4539721698303
519.4505792024287
519.4471869902985
519.4437955336158
519.4404048325558
519.4370148872939
519.4336256980049
519.430237264863
519.4268495880423
519.4234626677163
519.4200765040586
519.416691097242
519.4133064474394
519.4099225548229
519.4065394195644
519.4031570418359
519.3997754218088
519.3963945596548
519.393014455546
519.389635109654
519.3862565221506
519.3828786932071
519.379501622995
519.3761253116858
519.3727497594504
519.3693749664598
519.3660009328854
519.3626276588983
519.3592551446692
519.3558833903691
519.3525123961684
519.3491421622379
519.3457726887476
519.3424039758678
519.339036023768
519.3356688326174
519.3323024025852
519.3289367338401
519.3255718265508
519.322207680886
519.3188442970139
519.3154816751027
519.3121198153198
519.308758717833
519.3053983828098
519.3020388104168
519.2986800008206
519.2953219541879
519.2919646706849
519.2886081504779
519.285252393733
519.2818974006162
519.2785431712933
519.2751897059301
519.271837004692
519.2684850677441
519.2651338952511
519.2617834873771
519.2584338442865
519.2550849661433
519.2517368531113
519.2483895053546
519.245042923037
519.241697106322
519.238352055373
519.2350077703526
519.2316642514237
519.2283214987484
519.2249795124889
519.2216382928071
519.2182978398654
519.2149581538255
519.2116192348493
519.2082810830988
519.2049436987355
519.2016070819208
519.1982712328155
519.1949361515807
519.1916018383771
519.188268293365
519.1849355167047
519.1816035085561
519.178272269079
519.1749417984328
519.1716120967768
519.1682831642701
519.1649550010712
519.161627607339
519.1583009832319
519.1549751289089
519.151650044529
519.1483257302515
519.1450021862355
519.1416794126402
519.1383574096247
519.1350361773478
519.1317157159682
519.1283960256441
519.1250771065335
519.1217589587944
519.1184415825845
519.1151249780606
519.1118091453799
519.1084940846989
519.1051797961744
519.1018662799628
519.0985535362205
519.0952415651035
519.0919303667673
519.088619941367
519.0853102890577
519.0820014099944
519.0786933043322
519.0753859722257
519.0720794138291
519.0687736292963
519.0654686187812
519.0621643824378
519.0588609204195
519.0555582328792
519.0522563199694
519.0489551818426
519.0456548186518
519.0423552305498
519.03905641769
519.0357583802255
519.0324611183099
519.029164632096
519.0258689217366
519.0225739873846
519.0192798291927
519.0159864473134
519.0126938418992
519.0094020131027
519.0061109610755
519.0028206859689
518.9995311879337
518.9962424671202
518.9929545236781
518.9896673577574
518.9863809695079
518.9830953590789
518.9798105266199
518.9765264722799
518.973243196208
518.9699606985531
518.9666789794643
518.9633980390907
518.9601178775814
518.9568384950848
518.9535598917493
518.9502820677232
518.9470050231547
518.9437287581917
518.9404532729815
518.9371785676714
518.9339046424087
518.9306314973404
518.9273591326131
518.9240875483732
518.9208167447672
518.917546721941
518.9142774800406
518.9110090192115
518.9077413395993
518.9044744413494
518.901208324607
518.8979429895168
518.8946784362232
518.8914146648702
518.8881516756018
518.8848894685615
518.8816280438926
518.8783674017385
518.8751075422421
518.8718484655463
518.8685901717944
518.8653326611292
518.8620759336935
518.8588199896302
518.8555648290823
518.8523104521927
518.8490568591045
518.845804049961
518.8425520249051
518.8393007840795
518.8360503276261
518.832800655687
518.829551768404
518.8263036659185
518.8230563483725
518.8198098159077
518.816564068666
518.813319106789
518.810074930418
518.8068315396944
518.8035889347594
518.8003471157541
518.7971060828189
518.7938658360944
518.790626375721
518.7873877018395
518.7841498145905
518.7809127141139
518.7776764005497
518.7744408740376
518.7712061347173
518.7679721827282
518.7647390182095
518.7615066413003
518.7582750521395
518.7550442508658
518.7518142376179
518.7485850125344
518.745356575754
518.7421289274151
518.7389020676559
518.7356759966145
518.7324507144293
518.7292262212383
518.7260025171796
518.7227796023916
518.719557477012
518.7163361411782
518.7131155950273
518.7098958386963
518.7066768723224
518.7034586960427
518.7002413099939
518.6970247143119
518.6938089091321
518.6905938945903
518.6873796708213
518.6841662379596
518.6809535961391
518.677741745494
518.6745306861584
518.671320418266
518.6681109419504
518.664902257345
518.661694364583
518.6584872637981
518.6552809551239
518.6520754386942
518.6488707146426
518.6456667831029
518.6424636442088
518.6392612980934
518.6360597448901
518.6328589847318
518.6296590177511
518.6264598440802
518.623261463851
518.6200638771955
518.6168670842452
518.6136710851312
518.6104758799844
518.6072814689354
518.6040878521147
518.6008950296526
518.5977030016792
518.5945117683244
518.5913213297182
518.5881316859899
518.5849428372688
518.5817547836845
518.5785675253659
518.5753810624423
518.5721953950423
518.5690105232944
518.5658264473267
518.5626431672671
518.5594606832434
518.5562789953832
518.553098103814
518.5499180086634
518.5467387100583
518.5435602081253
518.5403825029911
518.5372055947822
518.5340294836254
518.5308541696471
518.5276796529735
518.5245059337307
518.5213330120449
518.5181608880422
518.5149895618478
518.5118190335869
518.5086493033849
518.5054803713673
518.5023122376596
518.4991449023872
518.4959783656763
518.4928126276526
518.4896476884418
518.4864835481693
518.4833202069605
518.4801576649405
518.4769959222348
518.4738349789678
518.4706748352645
518.4675154912496
518.4643569470478
518.4611992027834
518.4580422585803
518.4548861145626
518.4517307708539
518.4485762275784
518.4454224848595
518.4422695428206
518.4391174015849
518.4359660612753
518.4328155220145
518.4296657839253
518.4265168471303
518.4233687117518
518.4202213779121
518.417074845733
518.4139291153366
518.4107841868444
518.4076400603775
518.4044967360572
518.4013542140043
518.3982124943394
518.3950715771836
518.3919314626579
518.3887921508837
518.3856536419818
518.382515936073
518.3793790332778
518.3762429337168
518.3731076375101
518.3699731447776
518.3668394556393
518.3637065702145
518.360574488623
518.3574432109839
518.3543127374168
518.3511830680412
518.3480542029769
518.3449261423428
518.3417988862581
518.3386724348414
518.3355467882114
518.3324219464861
518.3292979097831
518.3261746782199
518.3230522519135
518.3199306309806
518.3168098155378
518.3136898057018
518.3105706015889
518.3074522033152
518.3043346109965
518.301217824749
518.2981018446884
518.2949866709304
518.2918723035904
518.2887587427834
518.2856459886247
518.282534041229
518.2794229007112
518.2763125671858
518.273203040767
518.270094321569
518.2669864097055
518.2638793052903
518.2607730084366
518.2576675192576
518.2545628378663
518.2514589643755
518.2483558988978
518.2452536415454
518.2421521924308
518.2390515516657
518.2359517193619
518.2328526956311
518.229754480585
518.2266570743353
518.2235604769934
518.2204646886697
518.2173697094748
518.2142755395192
518.2111821789134
518.2080896277681
518.2049978861945
518.2019069543034
518.1988168322049
518.1957275200092
518.1926390178259
518.1895513257642
518.1864644439332
518.1833783724418
518.1802931113988
518.1772086609129
518.1741250210924
518.1710421920451
518.1679601738784
518.1648789667
518.1617985706174
518.1587189857377
518.1556402121677
518.1525622500143
518.1494850993844
518.1464087603846
518.1433332331211
518.1402585176999
518.1371846142264
518.1341115228062
518.1310392435449
518.1279677765484
518.1248971219223
518.1218272797727
518.1187582502054
518.1156900333261
518.1126226292407
518.1095560380548
518.106490259874
518.1034252948033
518.1003611429472
518.09729780441
518.0942352792957
518.091173567709
518.088112669754
518.0850525855352
518.0819933151569
518.0789348587226
518.0758772163362
518.0728203881007
518.0697643741195
518.0667091744959
518.0636547893336
518.0606012187358
518.057548462806
518.0544965216476
518.0514453953637
518.0483950840575
518.0453455878322
518.0422969067912
518.0392490410374
518.0362019906732
518.0331557558014
518.0301103365244
518.0270657329448
518.0240219451651
518.0209789732879
518.0179368174157
518.0148954776508
518.0118549540952
518.0088152468501
518.005776356017
518.0027382816971
517.9997010239912
517.9966645829994
517.9936289588217
517.9905941515577
517.987560161307
517.9845269881688
517.9814946322425
517.9784630936277
517.975432372424
517.972402468731
517.9693733826481
517.9663451142745
517.9633176637097
517.9602910310526
517.9572652164019
517.9542402198562
517.9512160415142
517.9481926814741
517.9451701398337
517.9421484166909
517.9391275121433
517.9361074262891
517.9330881592267
517.9300697110544
517.9270520818703
517.9240352717721
517.9210192808572
517.9180041092226
517.9149897569649
517.9119762241806
517.9089635109661
517.9059516174174
517.9029405436298
517.899930289699
517.8969208557204
517.89391224179
517.8909044480034
517.887897474456
517.8848913212431
517.8818859884599
517.8788814762019
517.8758777845643
517.8728749136425
517.8698728635317
517.8668716343267
517.8638712261226
517.8608716390144
517.8578728730969
517.8548749284643
517.8518778052104
517.8488815034287
517.845886023213
517.8428913646566
517.8398975278527
517.8369045128946
517.8339123198756
517.830920948889
517.8279304000279
517.8249406733854
517.8219517690549
517.8189636871292
517.815976427701
517.8129899908625
517.8100043767057
517.8070195853219
517.8040356168025
517.8010524712389
517.7980701487221
517.7950886493428
517.7921079731917
517.7891281203594
517.7861490909362
517.783170885013
517.7801935026808
517.7772169440308
517.774241209154
517.7712662981415
517.7682922110843
517.7653189480728
517.7623465091978
517.7593748945491
517.7564041042164
517.7534341382888
517.7504649968554
517.7474966800052
517.7445291878272
517.7415625204104
517.7385966778432
517.7356316602144
517.7326674676125
517.729704100126
517.7267415578432
517.7237798408524
517.720818949242
517.7178588831001
517.714899642515
517.7119412275744
517.7089836383662
517.7060268749786
517.7030709374995
517.7001158260167
517.6971615406181
517.6942080813918
517.6912554484253
517.6883036418061
517.6853526616218
517.6824025079599
517.6794531809077
517.6765046805525
517.6735570069817
517.6706101602821
517.6676641405403
517.6647189478427
517.6617745822758
517.6588310439259
517.6558883328793
517.6529464492222
517.6500053930412
517.6470651644221
517.6441257634507
517.6411871902127
517.6382494447938
517.6353125272796
517.6323764377556
517.629441176308
517.6265067430228
517.623573137986
517.6206403612829
517.6177084129989
517.6147772932194
517.6118470020295
517.6089175395147
517.6059889057598
517.6030611008501
517.6001341248706
517.5972079779054
517.5942826600389
517.5913581713552
517.5884345119388
517.5855116818738
517.5825896812438
517.5796685101321
517.576748168622
517.5738286567961
517.570909974737
517.5679921225268
517.5650751002476
517.5621589079809
517.5592435458085
517.5563290138115
517.5534153120708
517.5505024406674
517.547590399682
517.5446791891949
517.5417688092865
517.5388592600374
517.535950541528
517.5330426538384
517.5301355970483
517.5272293712377
517.5243239764865
517.5214194128749
517.5185156804833
517.515612779392
517.5127107096808
517.5098094714302
517.5069090647202
517.5040094896311
517.5011107462436
517.4982128346377
517.4953157548933
517.4924195070904
517.4895240913082
517.4866295076262
517.4837357561236
517.48084283688
517.4779507499746
517.4750594954866
517.4721690734949
517.4692794840784
517.4663907273151
517.4635028032834
517.460615712061
517.4577294537256
517.4548440283551
517.4519594360266
517.4490756768176
517.4461927508054
517.4433106580676
517.4404293986821
517.4375489727266
517.4346693802789
517.4317906214172
517.4289126962198
517.4260356047649
517.4231593471308
517.4202839233948
517.4174093336347
517.414535577928
517.411662656352
517.4087905689843
517.4059193159022
517.4030488971833
517.4001793129052
517.3973105631454
517.3944426479819
517.3915755674924
517.3887093217548
517.3858439108475
517.3829793348485
517.3801155938357
517.3772526878869
517.3743906170797
517.3715293814918
517.3686689812006
517.3658094162835
517.3629506868177
517.3600927928807
517.3572357345491
517.3543795118998
517.3515241250092
517.3486695739538
517.3458158588099
517.3429629796536
517.3401109365603
517.3372597296055
517.3344093588647
517.3315598244134
517.3287111263274
517.3258632646829
517.3230162395558
517.3201700510225
517.3173246991588
517.3144801840407
517.3116365057443
517.3087936643459
517.3059516599218
517.3031104925484
517.3002701623021
517.2974306692594
517.2945920134968
517.2917541950909
517.2889172141184
517.286081070656
517.2832457647797
517.2804112965658
517.2775776660905
517.2747448734298
517.2719129186602
517.2690818018576
517.2662515230976
517.2634220824556
517.2605934800073
517.257765715828
517.2549387899929
517.2521127025772
517.2492874536553
517.2464630433016
517.2436394715904
517.2408167385962
517.2379948443928
517.2351737890543
517.2323535726547
517.229534195268
517.2267156569682
517.2238979578284
517.2210810979217
517.218265077321
517.2154498960989
517.2126355543277
517.2098220520796
517.2070093894268
517.2041975664414
517.2013865831951
517.1985764397597
517.1957671362067
517.1929586726072
517.1901510490328
517.1873442655548
517.1845383222443
517.1817332191719
517.1789289564082
517.1761255340233
517.1733229520872
517.1705212106698
517.1677203098405
517.1649202496684
517.1621210302222
517.159322651571
517.1565251137835
517.1537284169284
517.1509325610745
517.1481375462903
517.1453433726446
517.142550040206
517.1397575490431
517.1369658992243
517.1341750908176
517.1313851238914
517.1285959985138
517.125807714753
517.1230202726773
517.1202336723546
517.117447913853
517.1146629972403
517.1118789225847
517.1090956899537
517.1063132994153
517.1035317510376
517.1007510448886
517.0979711810368
517.0951921595505
517.0924139804987
517.08963664395
517.086860149973
517.0840844986359
517.0813096900073
517.0785357241556
517.0757626011494
517.0729903210575
517.0702188839488
517.0674482898922
517.0646785389571
517.0619096312124
517.0591415667271
517.0563743455704
517.0536079678112
517.0508424335188
517.0480777427618
517.045313895609
517.0425508921288
517.0397887323901
517.0370274164615
517.0342669444116
517.0315073163086
517.0287485322204
517.0259905922147
517.0232334963588
517.0204772447199
517.0177218373655
517.0149672743627
517.0122135557791
517.0094606816825
517.0067086521407
517.0039574672213
517.001207126992
516.9984576315197
516.9957089808717
516.9929611751148
516.9902142143159
516.9874680985412
516.9847228278571
516.9819784023301
516.9792348220266
516.9764920870128
516.9737501973556
516.9710091531218
516.9682689543787
516.9655296011928
516.9627910936305
516.9600534317582
516.9573166156423
516.9545806453492
516.9518455209453
516.949111242497
516.9463778100707
516.9436452237327
516.9409134835493
516.9381825895861
516.9354525419088
516.9327233405828
516.929994985673
516.9272674772445
516.9245408153619
516.9218150000896
516.9190900314919
516.9163659096329
516.9136426345766
516.9109202063872
516.9081986251289
516.9054778908652
516.9027580036594
516.9000389635747
516.8973207706744
516.8946034250215
516.8918869266794
516.889171275711
516.8864564721795
516.8837425161481
516.8810294076799
516.8783171468377
516.8756057336842
516.8728951682812
516.87018545069
516.8674765809723
516.8647685591897
516.8620613854033
516.8593550596744
516.8566495820636
516.8539449526312
516.8512411714374
516.8485382385426
516.8458361540064
516.8431349178885
516.8404345302484
516.8377349911453
516.8350363006376
516.8323384587835
516.8296414656414
516.8269453212698
516.8242500257267
516.8215555790695
516.818861981356
516.8161692326436
516.8134773329895
516.8107862824507
516.8080960810843
516.8054067289464
516.8027182260931
516.8000305725803
516.7973437684637
516.7946578137991
516.7919727086418
516.7892884530467
516.7866050470681
516.7839224907599
516.7812407841758
516.778559927369
516.7758799203926
516.7732007633
516.7705224561438
516.7678449989766
516.7651683918504
516.7624926348168
516.7598177279266
516.7571436712302
516.7544704647777
516.751798108619
516.7491266028038
516.7464559473814
516.7437861424006
516.7411171879099
516.7384490839573
516.7357818305906
516.7331154278569
516.7304498758032
516.7277851744763
516.7251213239225
516.7224583241881
516.7197961753187
516.7171348773596
516.7144744303561
516.7118148343528
516.7091560893942
516.7064981955244
516.7038411527875
516.7011849612273
516.6985296208878
516.6958751318126
516.6932214940454
516.6905687076293
516.6879167726073
516.685265689022
516.6826154569159
516.6799660763312
516.67731754731
516.674669869894
516.6720230441248
516.6693770700437
516.6667319476918
516.6640876771104
516.6614442583401
516.6588016914212
516.6561599763933
516.6535191132958
516.6508791021676
516.6482399430471
516.6456016359729
516.6429641809829
516.6403275781146
516.6376918274055
516.6350569288935
516.632422882616
516.6297896886105
516.6271573469143
516.6245258575647
516.6218952205987
516.6192654360531
516.6166365039636
516.6140084243663
516.611381197297
516.6087548227916
516.6061293008862
516.6035046316161
516.6008808150165
516.5982578511217
516.5956357399665
516.5930144815853
516.5903940760123
516.5877745232816
516.585155823427
516.5825379764821
516.5799209824796
516.5773048414522
516.5746895534318
516.5720751184496
516.569461536537
516.5668488077248
516.5642369320436
516.5616259095242
516.559015740197
516.5564064240922
516.5537979612396
516.5511903516687
516.5485835954083
516.5459776924873
516.5433726429343
516.5407684467774
516.5381651040449
516.5355626147644
516.5329609789634
516.5303601966685
516.5277602679063
516.5251611927025
516.5225629710827
516.5199656030719
516.5173690886946
516.514773427975
516.5121786209367
516.5095846676028
516.5069915679966
516.5043993221408
516.5018079300577
516.4992173917691
516.4966277072964
516.4940388766605
516.4914508998819
516.4888637769806
516.4862775079763
516.4836920928889
516.4811075317381
516.4785238245432
516.4759409713232
516.4733589720969
516.4707778268827
516.468197535699
516.4656180985636
516.463039515494
516.4604617865076
516.4578849116216
516.4553088908532
516.4527337242197
516.4501594117379
516.4475859534242
516.445013349295
516.4424415993666
516.4398707036552
516.4373006621767
516.4347314749467
516.4321631419808
516.4295956632942
516.4270290389019
516.4244632688188
516.4218983530599
516.4193342916393
516.416771084571
516.4142087318686
516.4116472335458
516.4090865896159
516.4065268000924
516.4039678649882
516.4014097843161
516.3988525580886
516.3962961863177
516.3937406690153
516.3911860061932
516.3886321978629
516.3860792440361
516.3835271447243
516.3809758999388
516.3784255096904
516.37587597399
516.3733272928488
516.3707794662779
516.3682324942885
516.3656863768916
516.3631411140983
516.360596705919
516.3580531523638
516.3555104534431
516.3529686091671
516.3504276195457
516.3478874845888
516.3453482043061
516.3428097787074
516.3402722078023
516.3377354915998
516.3351996301091
516.3326646233389
516.3301304712976
516.3275971739932
516.325064731434
516.322533143628
516.3200024105828
516.3174725323062
516.3149435088059
516.3124153400892
516.3098880261633
516.3073615670352
516.3048359627111
516.3023112131974
516.2997873185001
516.297264278625
516.2947420935778
516.2922207633638
516.2897002879878
516.2871806674544
516.2846619017681
516.2821439909327
516.279626934952
516.27711073383
516.27459538757
516.272080896175
516.2695672596479
516.2670544779916
516.2645425512084
516.2620314793004
516.2595212622692
516.2570119001158
516.2545033928405
516.2519957404437
516.2494889429255
516.2469830002857
516.2444779125241
516.2419736796402
516.2394703016333
516.2369677785024
516.2344661102458
516.2319652968616
516.229465338348
516.2269662347024
516.2244679859231
516.2219705920076
516.2194740529532
516.2169783687565
516.2144835394139
516.2119895649213
516.2094964452741
516.2070041804674
516.2045127704956
516.2020222153534
516.1995325150352
516.1970436695352
516.194555678847
516.1920685429637
516.1895822618784
516.1870968355839
516.1846122640733
516.182128547339
516.179645685373
516.177163678167
516.1746825257125
516.1722022280009
516.1697227850237
516.1672441967725
516.1647664632379
516.1622895844113
516.1598135602832
516.1573383908441
516.154864076084
516.1523906159924
516.149918010559
516.1474462597729
516.1449753636231
516.1425053220981
516.1400361351863
516.1375678028757
516.1351003251544
516.1326337020106
516.1301679334316
516.1277030194045
516.1252389599164
516.1227757549544
516.1203134045055
516.1178519085566
516.1153912670947
516.1129314801059
516.1104725475767
516.108014469493
516.1055572458405
516.1031008766041
516.1006453617691
516.0981907013203
516.0957368952419
516.0932839435183
516.0908318461335
516.0883806030716
516.0859302143164
516.0834806798508
516.0810319996582
516.0785841737212
516.0761372020226
516.073691084545
516.0712458212707
516.0688014121819
516.06635785726
516.0639151564866
516.0614733098431
516.0590323173107
516.0565921788703
516.0541528945033
516.0517144641905
516.0492768879127
516.0468401656509
516.0444042973855
516.041969283097
516.0395351227659
516.037101816372
516.034669363895
516.0322377653139
516.0298070206078
516.0273771297553
516.0249480927351
516.0225199095254
516.0200925801038
516.0176661044478
516.015240482535
516.0128157143428
516.0103917998487
516.0079687390295
516.005546531862
516.0031251783231
516.0007046783895
515.9982850320376
515.9958662392438
515.9934482999842
515.991031214235
515.9886149819723
515.9861996031719
515.9837850778093
515.9813714058592
515.9789585872965
515.9765466220953
515.9741355102302
515.9717252516756
515.9693158464053
515.9669072943929
515.9644995956115
515.9620927500338
515.9596867576316
515.9572816183769
515.9548773322409
515.9524738991951
515.9500713192102
515.9476695922571
515.945268718306
515.9428686973273
515.9404695292911
515.9380712141675
515.9356737519262
515.9332771425371
515.9308813859699
515.9284864821931
515.9260924311753
515.9236992328848
515.9213068872897
515.9189153943579
515.9165247540569
515.9141349663538
515.9117460312156
515.909357948609
515.9069707185009
515.9045843408577
515.9021988156459
515.899814142832
515.8974303223823
515.8950473542624
515.8926652384379
515.8902839748745
515.8879035635374
515.8855240043919
515.8831452974028
515.8807674425353
515.8783904397545
515.876014289025
515.873638990311
515.8712645435766
515.8688909487856
515.8665182059018
515.864146314888
515.8617752757074
515.8594050883231
515.8570357526986
515.8546672687972
515.8522996365822
515.8499328560162
515.8475669270616
515.8452018496806
515.8428376238356
515.8404742494889
515.8381117266027
515.8357500551393
515.8333892350607
515.8310292663288
515.8286701489052
515.8263118827514
515.8239544678287
515.8215979040987
515.8192421915229
515.8168873300627
515.8145333196791
515.812180160333
515.8098278519852
515.8074763945966
515.8051257881274
515.802776032538
515.8004271277883
515.7980790738385
515.7957318706484
515.7933855181778
515.7910400163865
515.7886953652338
515.786351564679
515.7840086146813
515.7816665152001
515.7793252661944
515.7769848676236
515.7746453194462
515.7723066216207
515.7699687741055
515.7676317768588
515.765295629839
515.7629603330039
515.7606258863117
515.7582922897196
515.7559595431843
515.753627646662
515.7512966001092
515.7489664034816
515.7466370567353
515.7443085598255
515.7419809127078
515.7396541153377
515.7373281676702
515.7350030696604
515.7326788212632
515.7303554224333
515.728032873125
515.7257111732923
515.723390322889
515.721070321869
515.718751170186
515.7164328677937
515.7141154146456
515.7117988106949
515.7094830558948
515.7071681501985
515.7048540935592
515.7025408859296
515.7002285272621
515.6979170175083
515.69560635662
515.6932965445491
515.6909875812472
515.6886794666663
515.686372200758
515.6840657834742
515.681760214767
515.6794554945878
515.6771516228881
515.6748485996187
515.6725464247301
515.6702450981721
515.6679446198947
515.6656449898477
515.6633462079809
515.6610482742441
515.658751188587
515.6564549509591
515.6541595613095
515.6518650195868
515.6495713257392
515.6472784797144
515.64498648146
515.6426953309241
515.640405028054
515.6381155727973
515.6358269651015
515.6335392049133
515.6312522921795
515.6289662268465
515.6266810088606
515.6243966381677
515.6221131147137
515.619830438444
515.617548609304
515.6152676272392
515.6129874921945
515.610708204115
515.6084297629455
515.6061521686307
515.603875421115
515.601599520343
515.5993244662587
515.5970502588062
515.5947768979294
515.5925043835715
515.5902327156758
515.587961894185
515.5856919190416
515.5834227901875
515.5811545075641
515.5788870711127
515.5766204807741
515.5743547364888
515.5720898381973
515.5698257858402
515.567562579358
515.565300218691
515.5630387037796
515.5607780345637
515.5585182109836
515.5562592329799
515.5540011004924
515.5517438134613
515.5494873718259
515.5472317755256
515.5449770244994
515.5427231186865
515.5404700580258
515.5382178424564
515.535966471917
515.5337159463458
515.5314662656807
515.5292174298598
515.5269694388213
515.5247222925028
515.5224759908416
515.5202305337749
515.5179859212395
515.515742153172
515.513499229509
515.5112571501869
515.509015915142
515.50677552431
515.5045359776267
515.5022972750277
515.5000594164482
515.4978224018233
515.4955862310882
515.4933509041774
515.4911164210258
515.4888827815674
515.4866499857359
515.4844180334645
515.4821869246865
515.479956659335
515.4777272373432
515.4754986586441
515.4732709231713
515.4710440308578
515.4688179816363
515.4665927754396
515.4643684121999
515.4621448918493
515.4599222143203
515.4577003795445
515.4554793874537
515.45325923798
515.4510399310553
515.4488214666113
515.4466038445795
515.4443870648914
515.4421711274784
515.4399560322719
515.4377417792028
515.4355283682022
515.4333157992008
515.4311040721296
515.4288931869193
515.4266831435003
515.4244739418037
515.4222655817599
515.4200580632988
515.4178513863502
515.4156455508438
515.4134405567098
515.4112364038784
515.4090330922794
515.406830621842
515.4046289924953
515.4024282041679
515.400228256788
515.3980291502838
515.3958308845837
515.3936334596157
515.3914368753077
515.3892411315875
515.3870462283827
515.3848521656208
515.3826589432293
515.3804665611357
515.3782750192673
515.3760843175513
515.3738944559151
515.3717054342859
515.3695172525905
515.3673299107555
515.3651434087077
515.3629577463738
515.3607729236807
515.3585889405546
515.3564057969216
515.3542234927075
515.3520420278375
515.3498614022366
515.3476816158301
515.345502668543
515.3433245603002
515.3411472910267
515.3389708606472
515.3367952690866
515.3346205162694
515.3324466021203
515.3302735265639
515.3281012895246
515.3259298909267
515.3237593306945
515.3215896087523
515.3194207250236
515.3172526794316
515.3150854718991
515.3129191023492
515.3107535707044
515.3085888768875
515.3064250208209
515.3042620024268
515.3020998216269
515.2999384783435
515.2977779724989
515.2956183040156
515.2934594728159
515.291301478822
515.2891443219554
515.2869880021377
515.2848325192905
515.282677873335
515.280524064193
515.2783710917857
515.2762189560348
515.2740676568611
515.2719171941854
515.2697675679279
515.2676187780086
515.2654708243471
515.2633237068634
515.2611774254773
515.2590319801085
515.2568873706767
515.2547435971013
515.2526006593013
515.2504585571952
515.2483172907017
515.2461768597387
515.244037264224
515.241898504075
515.239760579209
515.2376234895424
515.2354872349916
515.2333518154729
515.2312172309026
515.2290834811971
515.2269505662724
515.2248184860447
515.2226872404302
515.2205568293449
515.2184272527041
515.2162985104229
515.214170602416
515.2120435285977
515.2099172888826
515.2077918831848
515.2056673114181
515.2035435734962
515.2014206693326
515.199298598841
515.1971773619347
515.1950569585266
515.1929373885295
515.1908186518564
515.1887007484207
515.1865836781354
515.1844674409132
515.1823520366667
515.1802374653086
515.1781237267513
515.176010820907
515.1738987476875
515.1717875070048
515.1696770987702
515.1675675228954
515.165458779292
515.1633508678711
515.1612437885439
515.159137541221
515.1570321258131
515.1549275422309
515.152823790385
515.1507208701861
515.148618781545
515.1465175243726
515.1444170985793
515.1423175040751
515.1402187407695
515.1381208085714
515.1360237073897
515.1339274371329
515.1318319977103
515.1297373890308
515.127643611003
515.1255506635354
515.1234585465364
515.1213672599148
515.1192768035788
515.1171871774364
515.1150983813956
515.1130104153641
515.11092327925
515.1088369729604
515.1067514964026
515.1046668494836
515.1025830321101
515.1005000441893
515.0984178856285
515.0963365563349
515.0942560562158
515.092176385178
515.0900975431283
515.0880195299736
515.0859423456208
515.0838659899763
515.0817904629467
515.0797157644384
515.0776418943575
515.0755688526098
515.0734966391011
515.0714252537374
515.0693546964245
515.0672849670681
515.0652160655737
515.0631479918471
515.0610807457939
515.0590143273195
515.0569487363292
515.0548839727284
515.0528200364216
515.0507569273137
515.048694645309
515.0466331903114
515.044572562225
515.0425127609539
515.040453786402
515.0383956384736
515.0363383170721
515.0342818221012
515.0322261534644
515.0301713110651
515.0281172948067
515.0260641045924
515.0240117403249
515.0219602019071
515.0199094892411
515.0178596022289
515.0158105407721
515.0137623047718
515.0117148941287
515.009668308743
515.0076225485151
515.005577613345
515.0035335031326
515.0014902177774
514.9994477571792
514.997406121238
514.9953653098536
514.9933253229252
514.9912861603517
514.9892478220314
514.9872103078625
514.985173617743
514.9831377515715
514.9811027092456
514.979068490663
514.9770350957209
514.9750025243164
514.9729707763464
514.9709398517074
514.9689097502961
514.9668804720096
514.9648520167444
514.9628243843973
514.9607975748648
514.9587715880431
514.9567464238277
514.9547220821142
514.9526985627982
514.9506758657748
514.9486539909391
514.9466329381859
514.9446127074096
514.9425932985047
514.9405747113652
514.9385569458851
514.9365400019584
514.9345238794791
514.9325085783413
514.9304940984385
514.9284804396644
514.9264676019126
514.9244555850765
514.9224443890504
514.9204340137281
514.9184244590036
514.9164157247707
514.9144078109229
514.9124007173533
514.9103944439554
514.9083889906223
514.906384357247
514.9043805437228
514.9023775499428
514.9003753758003
514.8983740211887
514.8963734860014
514.8943737701317
514.8923748734729
514.8903767959183
514.8883795373605
514.8863830976921
514.8843874768057
514.8823926745937
514.8803986909483
514.8784055257617
514.8764131789259
514.8744216503329
514.8724309398748
514.870441047443
514.8684519729294
514.8664637162252
514.8644762772216
514.8624896558096
514.86050385188
514.8585188653243
514.8565346960337
514.8545513439
514.8525688088145
514.8505870906685
514.8486061893533
514.8466261047598
514.8446468367789
514.8426683853014
514.8406907502182
514.8387139314203
514.8367379287989
514.8347627422446
514.832788371648
514.8308148168993
514.8288420778887
514.8268701545061
514.8248990466412
514.8229287541836
514.8209592770228
514.8189906150479
514.8170227681481
514.8150557362125
514.8130895191294
514.8111241167873
514.809159529074
514.8071957558778
514.8052327970869
514.8032706525888
514.8013093222713
514.7993488060221
514.7973891037287
514.7954302152783
514.793472140558
514.7915148794551
514.7895584318568
514.7876027976505
514.7856479767239
514.7836939689647
514.7817407742604
514.7797883924978
514.7778368235641
514.7758860673458
514.7739361237292
514.7719869926005
514.7700386738462
514.7680911673525
514.766144473006
514.7641985906927
514.7622535202987
514.7603092617102
514.7583658148134
514.7564231794948
514.7544813556411
514.7525403431388
514.7506001418743
514.7486607517338
514.7467221726034
514.7447844043692
514.7428474469167
514.7409113001314
514.7389759638985
514.7370414381036
514.7351077226327
514.7331748173721
514.7312427222074
514.7293114370246
514.7273809617094
514.7254512961473
514.7235224402242
514.721594393826
514.7196671568382
514.7177407291462
514.7158151106347
514.7138903011884
514.7119663006916
514.710043109029
514.7081207260845
514.7061991517425
514.7042783858875
514.7023584284042
514.7004392791765
514.6985209380888
514.6966034050253
514.6946866798702
514.6927707625074
514.6908556528207
514.6889413506937
514.6870278560096
514.685115168652
514.6832032885039
514.6812922154483
514.6793819493679
514.6774724901455
514.6755638376636
514.6736559918046
514.6717489524507
514.6698427194839
514.6679372927862
514.6660326722398
514.6641288577272
514.6622258491308
514.660323646333
514.6584222492164
514.6565216576629
514.654621871554
514.6527228907718
514.6508247151982
514.6489273447147
514.6470307792027
514.6451350185431
514.6432400626169
514.6413459113049
514.6394525644877
514.6375600220455
514.6356682838588
514.6337773498077
514.6318872197725
514.6299978936337
514.628109371272
514.6262216525676
514.6243347374008
514.622448625652
514.620563317202
514.6186788119313
514.6167951097208
514.6149122104508
514.6130301140016
514.6111488202533
514.6092683290864
514.6073886403811
514.6055097540178
514.6036316698761
514.6017543878357
514.599877907776
514.5980022295759
514.5961273531142
514.5942532782698
514.5923800049214
514.590507532948
514.5886358622275
514.5867649926382
514.5848949240577
514.5830256563639
514.5811571894347
514.5792895231476
514.57742265738
514.5755565920093
514.573691326913
514.5718268619686
514.5699631970534
514.5681003320448
514.5662382668198
514.5643770012558
514.56251653523
514.5606568686193
514.5587980013007
514.5569399331508
514.5550826640462
514.553226193863
514.5513705224772
514.5495156497644
514.5476615756003
514.5458082998599
514.543955822419
514.5421041431529
514.5402532619368
514.5384031786454
514.5365538931529
514.5347054053337
514.5328577150616
514.5310108222103
514.5291647266532
514.5273194282637
514.5254749269149
514.5236312224798
514.5217883148317
514.5199462038437
514.5181048893888
514.5162643713401
514.5144246495698
514.5125857239501
514.5107475943524
514.5089102606486
514.5070737227103
514.5052379804093
514.503403033617
514.5015688822047
514.4997355260435
514.4979029650048
514.4960711989594
514.4942402277785
514.4924100513332
514.4905806694943
514.4887520821325
514.4869242891183
514.485097290322
514.4832710856136
514.4814456748635
514.4796210579415
514.4777972347171
514.4759742050595
514.4741519688381
514.4723305259218
514.4705098761796
514.4686900194798
514.466870955691
514.4650526846814
514.4632352063189
514.4614185204715
514.4596026270066
514.4577875257916
514.4559732166935
514.454159699579
514.452346974315
514.4505350407682
514.448723898805
514.4469135482924
514.4451039890968
514.4432952210847
514.4414872441224
514.4396800580763
514.4378736628124
514.4360680581973
514.4342632440972
514.4324592203781
514.4306559869052
514.4288535435438
514.4270518901591
514.4252510266157
514.4234509527784
514.4216516685116
514.4198531736798
514.4180554681471
514.4162585517776
514.4144624244349
514.4126670859829
514.410872536285
514.4090787752044
514.4072858026044
514.405493618348
514.4037022222986
514.4019116143191
514.4001217942726
514.398332762022
514.39654451743
514.3947570603588
514.3929703906705
514.3911845082272
514.3893994128908
514.3876151045234
514.3858315829867
514.384048848142
514.3822668998504
514.3804857379729
514.3787053623706
514.3769257729044
514.3751469694354
514.3733689518241
514.371591719931
514.3698152736162
514.3680396127398
514.3662647371617
514.3644906467413
514.362717341338
514.3609448208114
514.3591730850209
514.3574021338255
514.3556319670839
514.3538625846542
514.3520939863944
514.3503261721627
514.3485591418167
514.3467928952142
514.3450274322128
514.3432627526701
514.3414988564435
514.3397357433906
514.3379734133688
514.3362118662354
514.3344511018478
514.332691120063
514.3309319207389
514.3291735037329
514.3274158689034
514.3256590161083
514.3239029452058
514.3221476560533
514.3203931485081
514.318639422427
514.3168864776668
514.3151343140838
514.3133829315342
514.3116323298738
514.3098825089586
514.3081334686445
514.3063852087872
514.3046377292422
514.3028910298648
514.3011451105098
514.2993999710321
514.2976556112866
514.2959120311276
514.2941692304099
514.2924272089882
514.2906859667172
514.2889455034516
514.2872058190463
514.2854669133559
514.283728786235
514.2819914375383
514.2802548671208
514.2785190748372
514.2767840605419
514.2750498240895
514.2733163653339
514.271583684129
514.2698517803288
514.2681206537874
514.2663903043587
514.2646607318962
514.2629319362537
514.2612039172844
514.2594766748417
514.2577502087789
514.2560245189494
514.2542996052065
514.2525754674035
514.2508521053938
514.2491295190313
514.2474077081694
514.2456866726612
514.2439664123598
514.2422469271179
514.2405282167884
514.2388102812243
514.2370931202782
514.2353767338028
514.2336611216507
514.2319462836746
514.2302322197266
514.2285189296591
514.2268064133244
514.2250946705755
514.2233837012651
514.221673505246
514.2199640823707
514.2182554324912
514.2165475554601
514.2148404511296
514.2131341193518
514.2114285599788
514.2097237728623
514.208019757854
514.2063165148053
514.2046140435674
514.2029123439914
514.2012114159285
514.1995112592291
514.197811873744
514.1961132593234
514.1944154158178
514.1927183430772
514.1910220409515
514.1893265092905
514.187631747944
514.1859377567613
514.1842445355911
514.1825520842823
514.1808604026834
514.1791694906432
514.1774793480105
514.1757899746341
514.1741013703628
514.1724135350452
514.1707264685293
514.1690401706634
514.1673546412954
514.1656698802734
514.1639858874452
514.1623026626584
514.1606202057602
514.1589385165979
514.1572575950189
514.1555774408711
514.1538980540025
514.1522194342614
514.150541581496
514.1488644955549
514.1471881762865
514.1455126235395
514.1438378371626
514.1421638170042
514.1404905629125
514.1388180747355
514.1371463523211
514.1354753955178
514.1338052041737
514.1321357781363
514.1304671172535
514.1287992213726
514.1271320903412
514.1254657240071
514.1238001222179
514.1221352848212
514.1204712116645
514.118807902595
514.1171453574601
514.1154835761068
514.1138225583824
514.1121623041337
514.1105028132077
514.1088440854518
514.107186120713
514.1055289188386
514.1038724796757
514.1022168030714
514.1005618888727
514.0989077369267
514.0972543470804
514.0956017191808
514.0939498530748
514.0922987486096
514.0906484056319
514.0889988239888
514.0873500035274
514.0857019440942
514.0840546455362
514.0824081077
514.0807623304319
514.0791173135784
514.0774730569862
514.0758295605016
514.0741868239708
514.0725448472396
514.0709036301538
514.0692631725589
514.0676234742999
514.0659845352221
514.0643463551706
514.0627089339906
514.061072271527
514.0594363676247
514.0578012221282
514.0561668348815
514.0545332057287
514.0529003345138
514.0512682210807
514.0496368652731
514.0480062669345
514.0463764259083
514.0447473420378
514.0431190151668
514.0414914451395
514.0398646318
514.0382385749925
514.0366132745613
514.0349887303508
514.0333649422058
514.0317419099712
514.0301196334914
514.0284981126109
514.026877347174
514.025257337025
514.023638082008
514.0220195819671
514.0204018367464
514.0187848461895
514.0171686101409
514.015553128445
514.0139384009468
514.0123244274906
514.0107112079207
514.0090987420816
514.0074870298173
514.0058760709718
514.0042658653891
514.0026564129131
514.001047713387
513.9994397666543
513.9978325725584
513.996226130943
513.9946204416516
513.9930155045278
513.9914113194155
513.9898078861589
513.9882052046017
513.9866032745878
513.9850020959603
513.9834016685626
513.9818019922376
513.9802030668285
513.9786048921784
513.9770074681304
513.9754107945276
513.9738148712137
513.9722196980321
513.9706252748261
513.9690316014395
513.9674386777157
513.9658465034983
513.9642550786306
513.9626644029564
513.9610744763196
513.9594852985639
513.9578968695331
513.956309189071
513.9547222570214
513.9531360732282
513.9515506375352
513.949965949787
513.9483820098282
513.9467988175035
513.9452163726575
513.9436346751346
513.9420537247796
513.9404735214372
513.9388940649525
513.9373153551711
513.9357373919385
513.9341601750999
513.9325837045009
513.9310079799867
513.9294330014023
513.9278587685923
513.926285281401
513.9247125396729
513.9231405432521
513.9215692919828
513.9199987857093
513.9184290242753
513.9168600075242
513.9152917352995
513.9137242074454
513.9121574238058
513.9105913842246
513.909026088546
513.907461536614
513.9058977282726
513.9043346633661
513.9027723417386
513.9012107632344
513.8996499276979
513.8980898349729
513.8965304849033
513.894971877333
513.8934140121052
513.8918568890634
513.8903005080514
513.8887448689123
513.8871899714896
513.8856358156266
513.8840824011664
513.8825297279519
513.8809777958257
513.8794266046308
513.8778761542097
513.8763264444057
513.8747774750617
513.873229246021
513.8716817571261
513.8701350082198
513.8685889991447
513.8670437297434
513.8654991998586
513.8639554093326
513.8624123580074
513.8608700457252
513.8593284723273
513.8577876376552
513.8562475415503
513.8547081838545
513.8531695644098
513.8516316830575
513.8500945396391
513.8485581339966
513.8470224659715
513.8454875354056
513.8439533421407
513.8424198860185
513.8408871668811
513.8393551845708
513.8378239389302
513.8362934298021
513.8347636570292
513.8332346204539
513.8317063199191
513.8301787552676
513.8286519263421
513.8271258329856
513.8256004750414
513.8240758523526
513.8225519647627
513.8210288121151
513.8195063942532
513.8179847110206
513.8164637622609
513.8149435478177
513.8134240675344
513.8119053212541
513.8103873088204
513.8088700300763
513.8073534848646
513.8058376730281
513.8043225944092
513.8028082488503
513.8012946361933
513.7997817562806
513.798269608954
513.7967581940558
513.7952475114281
513.7937375609127
513.7922283423515
513.790719855586
513.789212100458
513.7877050768094
513.7861987844818
513.7846932233166
513.7831883931545
513.7816842938365
513.7801809252038
513.7786782870977
513.7771763793595
513.7756752018305
513.7741747543515
513.7726750367639
513.7711760489086
513.769677790627
513.7681802617609
513.7666834621522
513.765187391643
513.7636920500755
513.7621974372913
513.7607035531322
513.7592103974399
513.7577179700567
513.7562262708249
513.7547352995872
513.7532450561868
513.7517555404667
513.75026675227
513.7487786914397
513.7472913578187
513.7458047512501
513.7443188715773
513.742833718643
513.7413492922907
513.7398655923636
513.738382618705
513.7369003711586
513.735418849568
513.733938053777
513.7324579836298
513.7309786389702
513.7295000196419
513.7280221254888
513.7265449563544
513.7250685120822
513.7235927925154
513.7221177974972
513.7206435268705
513.7191699804781
513.7176971581627
513.7162250597668
513.7147536851331
513.7132830341046
513.7118131065246
513.7103439022363
513.7088754210832
513.7074076629086
513.7059406275561
513.7044743148689
513.7030087246904
513.7015438568639
513.7000797112324
513.6986162876398
513.6971535859294
513.6956916059452
513.6942303475313
513.6927698105327
513.6913099947946
513.689850900162
513.6883925264807
513.6869348735962
513.685477941354
513.6840217295995
513.6825662381785
513.6811114669362
513.6796574157175
513.6782040843681
513.6767514727336
513.67529958066
513.673848407993
513.6723979545787
513.6709482202635
513.6694992048939
513.6680509083168
513.6666033303796
513.6651564709297
513.6637103298141
513.6622649068805
513.6608202019767
513.6593762149502
513.6579329456484
513.6564903939194
513.6550485596109
513.6536074425709
513.6521670426474
513.6507273596889
513.6492883935438
513.6478501440607
513.6464126110883
513.6449757944753
513.6435396940702
513.642104309722
513.6406696412797
513.6392356885927
513.6378024515108
513.6363699298832
513.6349381235597
513.6335070323897
513.6320766562231
513.6306469949096
513.6292180482991
513.627789816242
513.6263622985886
513.6249354951893
513.6235094058949
513.622084030556
513.6206593690237
513.619235421149
513.6178121867839
513.61638966578
513.6149678579897
513.6135467632649
513.6121263814583
513.6107067124225
513.6092877560105
513.607869512076
513.6064519804728
513.6050351610548
513.603619053676
513.60220365819
513.6007889744509
513.5993750023127
513.5979617416298
513.5965491922562
513.5951373540462
513.5937262268536
513.5923158105328
513.590906104938
513.5894971099234
513.5880888253438
513.5866812510536
513.5852743869076
513.5838682327609
513.5824627884689
513.5810580538874
513.5796540288728
513.5782507132814
513.5768481069696
513.575446209794
513.5740450216114
513.5726445422787
513.5712447716529
513.5698457095915
513.5684473559519
513.5670497105917
513.5656527733685
513.5642565441398
513.5628610227633
513.5614662090967
513.5600721029974
513.5586787043229
513.5572860129311
513.5558940286797
513.5545027514271
513.5531121810315
513.5517223173516
513.5503331602469
513.5489447095762
513.5475569651982
513.5461699269716
513.5447835947554
513.5433979684084
513.5420130477897
513.5406288327582
513.5392453231726
513.5378625188924
513.5364804197774
513.5350990256871
513.5337183364815
513.5323383520205
513.5309590721646
513.5295804967742
513.5282026257097
513.5268254588319
513.5254489960017
513.5240732370804
513.5226981819295
513.521323830411
513.5199501823869
513.5185772377191
513.5172049962699
513.5158334579015
513.5144626224766
513.5130924898584
513.51172305991
513.5103543324946
513.5089863074755
513.5076189847163
513.5062523640805
513.5048864454326
513.5035212286367
513.5021567135574
513.5007929000591
513.4994297880068
513.4980673772651
513.4967056676988
513.4953446591732
513.4939843515532
513.4926247447039
513.4912658384902
513.4899076327769
513.4885501274285
513.4871933223102
513.4858372172872
513.484481812225
513.4831271069894
513.4817731014465
513.4804197954624
513.4790671889031
513.4777152816347
513.4763640735238
513.4750135644373
513.4736637542425
513.4723146428065
513.4709662299966
513.4696185156807
513.4682714997267
513.4669251820031
513.4655795623786
513.4642346407223
513.4628904169036
513.4615468907917
513.4602040622561
513.4588619311668
513.4575204973936
513.4561797608068
513.4548397212767
513.4535003786742
513.4521617328706
513.4508237837375
513.4494865311466
513.4481499749696
513.4468141150782
513.445478951344
513.444144483639
513.4428107118353
513.441477635805
513.440145255421
513.4388135705568
513.4374825810856
513.4361522868809
513.4348226878161
513.4334937837654
513.4321655746029
513.4308380602032
513.4295112404415
513.4281851151931
513.4268596843334
513.4255349477379
513.4242109052822
513.422887556842
513.4215649022937
513.4202429415135
513.4189216743786
513.4176011007659
513.4162812205524
513.4149620336153
513.4136435398324
513.4123257390812
513.41100863124
513.4096922161867
513.4083764937997
513.4070614639573
513.4057471265388
513.4044334814231
513.4031205284897
513.4018082676181
513.4004966986882
513.3991858215803
513.3978756361745
513.3965661423514
513.3952573399916
513.3939492289761
513.3926418091861
513.3913350805029
513.3900290428079
513.3887236959823
513.3874190399075
513.386115074465
513.3848117995368
513.3835092150049
513.382207320752
513.3809061166604
513.3796056026127
513.3783057784914
513.377006644179
513.3757081995583
513.3744104445119
513.373113378923
513.3718170026754
513.3705213156533
513.369226317741
513.367932008823
513.3666383887843
513.3653454575102
513.3640532148862
513.3627616607984
513.361470795133
513.3601806177766
513.3588911286162
513.3576023275388
513.356314214432
513.3550267891839
513.3537400516826
513.3524540018169
513.3511686394755
513.3498839645471
513.3485999769201
513.3473166764835
513.346034063126
513.3447521367369
513.3434708972055
513.3421903444215
513.3409104782751
513.3396312986566
513.3383528054568
513.3370749985667
513.3357978778778
513.3345214432821
513.3332456946722
513.3319706319406
513.3306962549804
513.3294225636845
513.328149557946
513.3268772376574
513.3256056027118
513.3243346530018
513.32306438842
513.3217948088599
513.3205259142154
513.3192577043811
513.3179901792515
513.3167233387213
513.3154571826855
513.3141917110394
513.3129269236789
513.3116628204997
513.3103994013974
513.309136666268
513.3078746150078
513.3066132475134
513.3053525636816
513.3040925634097
513.3028332465948
513.3015746131347
513.300316662927
513.2990593958699
513.2978028118613
513.2965469107991
513.2952916925816
513.2940371571075
513.2927833042753
513.2915301339839
513.2902776461327
513.2890258406214
513.28777471735
513.2865242762184
513.2852745171263
513.2840254399725
513.2827770446561
513.2815293310755
513.2802822991296
513.2790359487171
513.2777902797368
513.2765452920864
513.275300985664
513.2740573603676
513.2728144160949
513.2715721527436
513.2703305702112
513.269089668395
513.2678494471922
513.2666099064998
513.2653710462141
513.2641328662312
513.2628953664466
513.261658546756
513.2604224070549
513.2591869472385
513.2579521672026
513.2567180668423
513.255484646053
513.2542519047299
513.2530198427678
513.2517884600613
513.250557756505
513.2493277319934
513.2480983864207
513.2468697196807
513.2456417316673
513.2444144222743
513.2431877913955
513.2419618389245
513.2407365647543
513.2395119687778
513.2382880508874
513.2370648109754
513.2358422489344
513.2346203646566
513.2333991580338
513.2321786289574
513.2309587773186
513.229739603008
513.2285211059159
513.2273032859318
513.2260861429452
513.2248696768454
513.223653887522
513.222438774864
513.2212243387603
513.2200105790992
513.2187974957685
513.2175850886558
513.2163733576483
513.215162302633
513.2139519234963
513.2127422201245
513.2115331924033
513.2103248402184
513.209117163455
513.2079101619977
513.2067038357311
513.2054981845397
513.204293208308
513.2030889069204
513.201885280261
513.2006823282138
513.1994800506627
513.198278447491
513.1970775185816
513.1958772638172
513.1946776830803
513.1934787762532
513.192280543218
513.1910829838566
513.1898860980507
513.1886898856817
513.187494346631
513.1862994807796
513.1851052880086
513.1839117681989
513.1827189212311
513.1815267469858
513.1803352453433
513.1791444161836
513.1779542593865
513.1767647748318
513.1755759623991
513.1743878219679
513.1732003534182
513.1720135566295
513.1708274314813
513.1696419778527
513.1684571956232
513.1672730846717
513.1660896448768
513.1649068761169
513.1637247782703
513.1625433512152
513.1613625948298
513.1601825089922
513.1590030935802
513.1578243484714
513.1566462735439
513.1554688686754
513.1542921337439
513.153116068627
513.1519406732025
513.150765947348
513.1495918909407
513.1484185038576
513.1472457859752
513.1460737371701
513.1449023573191
513.1437316462986
513.1425616039853
513.1413922302556
513.1402235249861
513.1390554880534
513.1378881193339
513.1367214187037
513.1355553860387
513.1343900212148
513.1332253241073
513.1320612945913
513.1308979325415
513.1297352378328
513.1285732103397
513.1274118499366
513.1262511564976
513.1250911298966
513.1239317700076
513.1227730767043
513.1216150498601
513.1204576893479
513.1193009950405
513.1181449668111
513.1169896045324
513.1158349080772
513.114680877318
513.1135275121269
513.1123748123753
513.1112227779347
513.1100714086767
513.1089207044727
513.1077706651936
513.1066212907106
513.1054725808947
513.1043245356166
513.1031771547466
513.1020304381548
513.100884385711
513.0997389972849
513.0985942727464
513.097450211965
513.0963068148105
513.0951640811525
513.0940220108603
513.0928806038037
513.0917398598519
513.0905997788743
513.0894603607398
513.0883216053173
513.0871835124756
513.0860460820834
513.0849093140093
513.083773208122
513.08263776429
513.0815029823816
513.0803688622645
513.0792354038065
513.0781026068746
513.0769704713359
513.0758389970567
513.0747081839027
513.0735780317393
513.0724485404323
513.0713197098473
513.0701915398497
513.0690640303044
513.0679371810759
513.0668109920286
513.0656854630272
513.064560593936
513.0634363846198
513.0623128349432
513.0611899447715
513.0600677139698
513.0589461424031
513.0578252299358
513.056704976432
513.0555853817557
513.0544664457709
513.0533481683417
513.0522305493323
513.051113588607
513.0499972860296
513.0488816414638
513.0477666547733
513.0466523258217
513.045538654472
513.0444256405876
513.0433132840319
513.0422015846677
513.0410905423576
513.0399801569636
513.038870428348
513.0377613563726
513.0366529408991
513.0355451817888
513.0344380789031
513.0333316321032
513.0322258412505
513.0311207062061
513.0300162268315
513.0289124029875
513.0278092345347
513.0267067213338
513.025604863245
513.0245036601289
513.0234031118455
513.022303218255
513.021203979218
513.0201053945941
513.0190074642435
513.017910188026
513.0168135658016
513.0157175974302
513.0146222827718
513.0135276216863
513.0124336140336
513.0113402596735
513.0102475584656
513.0091555102697
513.0080641149448
513.0069733723496
513.0058832823427
513.0047938447822
513.0037050595263
513.0026169264336
513.0015294453622
513.0004426161702
512.9993564387153
512.9982709128551
512.9971860384471
512.9961018153483
512.9950182434152
512.9939353225041
512.992853052471
512.9917714331721
512.9906904644633
512.9896101462009
512.9885304782404
512.9874514604369
512.9863730926456
512.9852953747215
512.9842183065196
512.9831418878946
512.9820661187016
512.9809909987955
512.9799165280306
512.9788427062606
512.9777695333394
512.9766970091202
512.9756251334561
512.9745539061994
512.9734833272025
512.972413396318
512.9713441133979
512.9702754782941
512.9692074908585
512.9681401509426
512.9670734583981
512.9660074130759
512.9649420148271
512.9638772635024
512.9628131589523
512.9617497010274
512.9606868895783
512.9596247244551
512.958563205508
512.957502332587
512.9564421055422
512.955382524224
512.9543235884821
512.9532652981659
512.9522076531246
512.9511506532074
512.9500942982634
512.9490385881411
512.9479835226891
512.946929101756
512.9458753251904
512.9448221928408
512.943769704556
512.9427178601848
512.9416666595755
512.9406161025761
512.9395661890342
512.9385169187974
512.937468291713
512.9364203076279
512.9353729663892
512.934326267844
512.9332802118392
512.9322347982213
512.931190026836
512.930145897529
512.9291024101456
512.9280595645305
512.927017360528
512.9259757979826
512.9249348767391
512.9238945966424
512.9228549575369
512.9218159592663
512.9207776016744
512.9197398846052
512.9187028079016
512.9176663714063
512.9166305749616
512.9155954184091
512.9145609015907
512.913527024348
512.9124937865226
512.9114611879556
512.910429228488
512.909397907961
512.9083672262152
512.9073371830916
512.906307778431
512.9052790120741
512.9042508838609
512.9032233936316
512.902196541226
512.9011703264837
512.900144749244
512.8991198093458
512.8980955066288
512.8970718409321
512.8960488120947
512.8950264199555
512.8940046643527
512.8929835451247
512.8919630621101
512.8909432151474
512.8899240040753
512.8889054287317
512.8878874889544
512.8868701845811
512.8858535154493
512.8848374813967
512.8838220822606
512.8828073178781
512.8817931880865
512.8807796927229
512.8797668316245
512.878754604628
512.8777430115701
512.8767320522875
512.8757217266168
512.8747120343944
512.8737029754564
512.8726945496385
512.8716867567769
512.8706795967075
512.8696730692664
512.8686671742892
512.8676619116115
512.8666572810691
512.8656532824971
512.8646499157301
512.8636471806028
512.8626450769502
512.8616436046075
512.8606427634097
512.8596425531916
512.8586429737877
512.857644025032
512.8566457067584
512.855648018801
512.8546509609939
512.8536545331706
512.8526587351646
512.8516635668095
512.8506690279389
512.8496751183864
512.8486818379854
512.8476891865694
512.8466971639716
512.8457057700255
512.844715004564
512.8437248674206
512.8427353584289
512.8417464774222
512.8407582242346
512.8397705986997
512.8387836006511
512.8377972299224
512.8368114863472
512.8358263697587
512.8348418799906
512.8338580168763
512.8328747802495
512.8318921699438
512.8309101857924
512.8299288276287
512.828948095286
512.827967988598
512.826988507398
512.8260096515198
512.8250314207964
512.8240538150608
512.8230768341457
512.8221004778836
512.8211247461068
512.8201496386471
512.8191751553366
512.8182012960067
512.8172280604888
512.8162554486137
512.8152834602122
512.8143120951147
512.8133413531514
512.8123712341524
512.8114017379473
512.8104328643656
512.8094646132365
512.8084969843894
512.807529977654
512.8065635928594
512.805597829835
512.8046326884098
512.8036681684125
512.8027042696722
512.8017409920174
512.8007783352766
512.7998162992783
512.7988548838507
512.797894088822
512.7969339140197
512.7959743592712
512.7950154244036
512.7940571092438
512.7930994136184
512.7921423373539
512.7911858802761
512.7902300422109
512.789274822984
512.7883202224209
512.787366240347
512.7864128765875
512.7854601309684
512.7845080033151
512.7835564934524
512.7826056012057
512.7816553264004
512.7807056688619
512.779756628415
512.7788082048851
512.7778603980973
512.7769132078772
512.7759666340496
512.7750206764392
512.774075334871
512.7731306091694
512.7721864991588
512.7712430046638
512.7703001255088
512.7693578615178
512.7684162125154
512.7674751783254
512.7665347587722
512.76559495368
512.7646557628727
512.7637171861747
512.7627792234105
512.7618418744044
512.7609051389809
512.7599690169643
512.7590335081788
512.7580986124487
512.757164329598
512.7562306594507
512.7552976018303
512.7543651565602
512.7534333234637
512.7525021023641
512.7515714930844
512.7506414954473
512.7497121092761
512.7487833343937
512.7478551706233
512.7469276177878
512.7460006757101
512.745074344213
512.7441486231189
512.7432235122499
512.742299011428
512.7413751204756
512.7404518392148
512.7395291674677
512.7386071050566
512.7376856518033
512.7367648075294
512.7358445720567
512.7349249452068
512.7340059268006
512.7330875166592
512.7321697146033
512.7312525204536
512.7303359340315
512.7294199551586
512.7285045836572
512.7275898193495
512.7266756620579
512.7257621116048
512.7248491678126
512.723936830504
512.7230250995012
512.7221139746262
512.7212034557012
512.7202935425487
512.7193842349905
512.7184755328485
512.7175674359448
512.7166599441016
512.715753057141
512.714846774885
512.7139410971556
512.7130360237743
512.7121315545626
512.711227689342
512.710324427934
512.7094217701599
512.708519715841
512.7076182647991
512.7067174168558
512.7058171718325
512.7049175295504
512.704018489831
512.7031200524962
512.7022222173675
512.7013249842669
512.7004283530157
512.6995323234353
512.6986368953469
512.6977420685719
512.6968478429314
512.6959542182465
512.6950611943378
512.6941687710257
512.6932769481305
512.6923857254724
512.6914951028718
512.690605080149
512.689715657124
512.6888268336172
512.6879386094492
512.6870509844405
512.686163958411
512.6852775311811
512.684391702571
512.683506472401
512.682621840491
512.6817378066614
512.6808543707318
512.6799715325217
512.6790892918509
512.678207648539
512.6773266024056
512.6764461532703
512.6755663009519
512.6746870452698
512.6738083860434
512.6729303230925
512.6720528562364
512.6711759852949
512.6702997100876
512.6694240304344
512.6685489461547
512.6676744570684
512.6668005629947
512.6659272637521
512.6650545591588
512.6641824490328
512.6633109331922
512.6624400114547
512.6615696836384
512.6606999495614
512.6598308090415
512.6589622618965
512.6580943079437
512.6572269470003
512.6563601788837
512.6554940034114
512.6546284204007
512.653763429669
512.6528990310333
512.6520352243108
512.6511720093188
512.6503093858739
512.6494473537928
512.6485859128918
512.6477250629873
512.6468648038956
512.6460051354327
512.6451460574151
512.6442875696591
512.643429671981
512.6425723641971
512.6417156461239
512.6408595175776
512.6400039783746
512.6391490283313
512.6382946672641
512.6374408949889
512.6365877113221
512.6357351160802
512.6348831090802
512.6340316901392
512.6331808590744
512.6323306157028
512.6314809598418
512.6306318913087
512.6297834099203
512.6289355154934
512.6280882078445
512.6272414867901
512.6263953521468
512.625549803731
512.6247048413593
512.6238604648479
512.6230166740127
512.6221734686692
512.6213308486333
512.6204888137206
512.6196473637467
512.6188064985272
512.6179662178777
512.6171265216137
512.616287409551
512.6154488815052
512.6146109372926
512.613773576729
512.6129367996307
512.6121006058131
512.6112649950917
512.6104299672818
512.6095955221988
512.6087616596578
512.6079283794736
512.607095681461
512.6062635654353
512.6054320312112
512.6046010786038
512.6037707074281
512.6029409174994
512.6021117086325
512.6012830806421
512.6004550333428
512.5996275665486
512.5988006800737
512.5979743737319
512.5971486473368
512.5963235007025
512.5954989336431
512.5946749459727
512.5938515375055
512.593028708056
512.5922064574384
512.591384785467
512.5905636919563
512.5897431767205
512.5889232395739
512.5881038803307
512.5872850988051
512.5864668948116
512.5856492681648
512.5848322186796
512.5840157461707
512.5831998504527
512.5823845313398
512.5815697886458
512.5807556221844
512.5799420317696
512.5791290172153
512.5783165783348
512.5775047149411
512.5766934268474
512.5758827138663
512.5750725758105
512.574263012493
512.5734540237272
512.5726456093262
512.571837769103
512.5710305028708
512.5702238104429
512.5694176916322
512.5686121462516
512.567807174114
512.5670027750332
512.5661989488226
512.5653956952956
512.5645930142655
512.5637909055456
512.5629893689493
512.5621884042898
512.5613880113808
512.5605881900358
512.5597889400681
512.5589902612905
512.5581921535163
512.5573946165587
512.5565976502314
512.5558012543479
512.5550054287214
512.5542101731651
512.553415487492
512.5526213715152
512.5518278250474
512.5510348479008
512.5502424398871
512.5494506008179
512.5486593305043
512.5478686287577
512.5470784953891
512.5462889302094
512.5454999330293
512.5447115036598
512.5439236419113
512.5431363475943
512.542349620519
512.5415634604954
512.5407778673332
512.5399928408426
512.5392083808338
512.5384244871173
512.5376411595037
512.5368583978036
512.5360762018274
512.5352945713855
512.5345135062882
512.5337330063464
512.5329530713707
512.5321737011718
512.5313948955607
512.530616654348
512.5298389773445
512.5290618643603
512.5282853152055
512.5275093296902
512.5267339076247
512.5259590488188
512.5251847530824
512.524411020225
512.523637850056
512.5228652423855
512.5220931970232
512.5213217137791
512.5205507924636
512.5197804328868
512.5190106348587
512.5182413981893
512.5174727226886
512.5167046081667
512.5159370544343
512.5151700613021
512.514403628581
512.5136377560818
512.5128724436154
512.5121076909925
512.5113434980237
512.5105798645202
512.5098167902931
512.5090542751534
512.5082923189118
512.5075309213794
512.5067700823672
512.5060098016863
512.505250079148
512.5044909145638
512.5037323077454
512.5029742585045
512.5022167666527
512.5014598320017
512.5007034543635
512.4999476335499
512.4991923693728
512.4984376616442
512.4976835101759
512.4969299147804
512.4961768752698
512.4954243914567
512.4946724631534
512.4939210901725
512.4931702723266
512.4924200094276
512.491670301288
512.4909211477195
512.4901725485342
512.4894245035441
512.4886770125613
512.4879300753983
512.4871836918674
512.4864378617815
512.4856925849533
512.4849478611957
512.4842036903217
512.4834600721445
512.4827170064771
512.4819744931324
512.4812325319228
512.4804911226609
512.4797502651588
512.4790099592292
512.4782702046843
512.4775310013367
512.4767923489992
512.4760542474844
512.475316696605
512.4745796961736
512.4738432460028
512.473107345905
512.4723719956921
512.4716371951763
512.4709029441694
512.4701692424837
512.4694360899316
512.4687034863252
512.4679714314766
512.4672399251976
512.4665089673006
512.4657785575976
512.465048695901
512.4643193820236
512.463590615778
512.4628623969768
512.4621347254329
512.4614076009591
512.4606810233686
512.4599549924744
512.4592295080897
512.458504570028
512.4577801781031
512.4570563321288
512.4563330319186
512.455610277286
512.4548880680447
512.4541664040087
512.4534452849919
512.4527247108083
512.452004681272
512.4512851961967
512.4505662553963
512.4498478586847
512.449130005876
512.4484126967841
512.4476959312226
512.4469797090051
512.446264029945
512.4455488938561
512.4448343005517
512.4441202498456
512.4434067415511
512.442693775482
512.4419813514517
512.4412694692737
512.4405581287622
512.4398473297313
512.4391370719952
512.438427355368
512.4377181796633
512.4370095446945
512.4363014502756
512.4355938962201
512.434886882342
512.434180408455
512.4334744743733
512.4327690799114
512.432064224884
512.4313599091058
512.4306561323915
512.429952894556
512.4292501954139
512.4285480347803
512.42784641247
512.4271453282981
512.4264447820797
512.4257447736297
512.4250453027639
512.4243463692983
512.4236479730491
512.4229501138327
512.4222527914653
512.4215560057633
512.420859756543
512.4201640436211
512.419468866814
512.418774225938
512.4180801208097
512.4173865512457
512.4166935170631
512.4160010180783
512.4153090541079
512.4146176249681
512.4139267304754
512.4132363704468
512.4125465446994
512.4118572530499
512.4111684953157
512.4104802713136
512.409792580861
512.4091054237749
512.4084187998726
512.4077327089713
512.4070471508878
512.4063621254395
512.4056776324437
512.4049936717179
512.4043102430794
512.4036273463457
512.402944981334
512.402263147862
512.4015818457474
512.4009010748084
512.4002208348631
512.3995411257299
512.3988619472273
512.3981832991738
512.3975051813879
512.3968275936882
512.3961505358927
512.39547400782
512.3947980092883
512.3941225401159
512.3934476001214
512.3927731891231
512.3920993069396
512.3914259533897
512.3907531282923
512.3900808314665
512.3894090627311
512.3887378219049
512.388067108807
512.3873969232566
512.3867272650725
512.3860581340739
512.3853895300797
512.3847214529089
512.3840539023804
512.3833868783129
512.3827203805251
512.3820544088364
512.3813889630662
512.3807240430338
512.3800596485585
512.3793957794601
512.3787324355585
512.3780696166739
512.3774073226264
512.3767455532359
512.3760843083221
512.3754235877047
512.3747633912039
512.3741037186398
512.3734445698333
512.3727859446053
512.3721278427772
512.3714702641701
512.3708132086051
512.3701566759039
512.3695006658882
512.3688451783798
512.3681902132005
512.3675357701716
512.3668818491144
512.36622844985
512.3655755721995
512.3649232159839
512.3642713810245
512.3636200671426
512.3629692741597
512.362319001897
512.3616692501766
512.3610200188207
512.3603713076516
512.3597231164915
512.3590754451627
512.3584282934873
512.3577816612874
512.3571355483853
512.3564899546034
512.3558448797644
512.3552003236912
512.3545562862068
512.3539127671345
512.3532697662977
512.35262728352
512.3519853186251
512.3513438714367
512.3507029417788
512.3500625294753
512.3494226343507
512.3487832562298
512.3481443949374
512.3475060502985
512.3468682221385
512.3462309102831
512.3455941145585
512.3449578347909
512.344322070807
512.3436868224337
512.3430520894979
512.3424178718267
512.3417841692476
512.3411509815885
512.3405183086777
512.3398861503435
512.3392545064146
512.3386233767194
512.3379927610868
512.3373626593457
512.3367330713254
512.3361039968552
512.3354754357645
512.3348473878825
512.3342198530388
512.3335928310628
512.3329663217844
512.332340325034
512.331714840642
512.3310898684388
512.3304654082551
512.3298414599219
512.3292180232704
512.3285950981324
512.3279726843398
512.3273507817248
512.3267293901197
512.3261085093566
512.3254881392679
512.3248682796864
512.3242489304444
512.3236300913743
512.3230117623086
512.3223939430798
512.3217766335204
512.3211598334633
512.3205435427417
512.3199277611891
512.3193124886391
512.3186977249252
512.3180834698812
512.3174697233412
512.3168564851394
512.3162437551102
512.3156315330884
512.3150198189091
512.3144086124075
512.313797913419
512.3131877217791
512.3125780373236
512.3119688598888
512.3113601893103
512.3107520254246
512.3101443680678
512.3095372170765
512.3089305722872
512.3083244335364
512.3077188006612
512.3071136734989
512.3065090518871
512.3059049356643
512.3053013246692
512.3046982187409
512.3040956177181
512.3034935214398
512.3028919297451
512.3022908424732
512.3016902594634
512.3010901805544
512.3004906055855
512.299891534396
512.2992929668251
512.2986949027124
512.2980973418983
512.2975002842229
512.2969037295268
512.2963076776502
512.2957121284337
512.295117081718
512.2945225373442
512.2939284951535
512.2933349549876
512.2927419166879
512.2921493800961
512.2915573450546
512.2909658114054
512.2903747789908
512.2897842476534
512.289194217236
512.2886046875813
512.288015658532
512.2874271299308
512.2868391016202
512.2862515734425
512.2856645452405
512.2850780168569
512.2844919881347
512.2839064589173
512.2833214290483
512.2827368983719
512.2821528667325
512.2815693339746
512.2809862999427
512.2804037644819
512.2798217274376
512.2792401886554
512.2786591479814
512.278078605262
512.2774985603432
512.2769190130718
512.2763399632945
512.275761410858
512.275183355609
512.2746057973941
512.2740287360602
512.2734521714549
512.2728761034257
512.2723005318203
512.2717254564866
512.2711508772727
512.2705767940267
512.270003206597
512.2694301148322
512.2688575185807
512.2682854176912
512.2677138120125
512.2671427013934
512.2665720856828
512.2660019647301
512.2654323383842
512.2648632064943
512.2642945689097
512.2637264254797
512.2631587760536
512.2625916204806
512.2620249586105
512.2614587902929
512.2608931153779
512.2603279337161
512.2597632451582
512.2591990495553
512.2586353467589
512.2580721366207
512.2575094189926
512.2569471937263
512.2563854606738
512.2558242196872
512.2552634706185
512.2547032133198
512.2541434476432
512.2535841734409
512.2530253905654
512.2524670988696
512.2519092982063
512.2513519884287
512.2507951693897
512.2502388409425
512.2496830029406
512.2491276552373
512.2485727976859
512.2480184301396
512.2474645524514
512.2469111644748
512.2463582660632
512.2458058570703
512.2452539373496
512.244702506755
512.2441515651408
512.2436011123618
512.2430511482728
512.2425016727284
512.2419526855836
512.2414041866937
512.2408561759144
512.2403086531015
512.2397616181113
512.2392150708006
512.2386690110261
512.2381234386446
512.2375783535131
512.2370337554885
512.236489644428
512.2359460201894
512.2354028826305
512.2348602316092
512.2343180669832
512.2337763886101
512.2332351963478
512.2326944900544
512.2321542695884
512.2316145348082
512.2310752855726
512.2305365217405
512.2299982431712
512.2294604497242
512.2289231412594
512.2283863176365
512.2278499787151
512.2273141243554
512.2267787544176
512.2262438687624
512.2257094672505
512.225175549743
512.224642116101
512.2241091661856
512.2235766998583
512.2230447169807
512.2225132174144
512.2219822010211
512.2214516676622
512.2209216171998
512.2203920494958
512.2198629644124
512.2193343618119
512.2188062415564
512.2182786035085
512.2177514475304
512.217224773485
512.2166985812348
512.2161728706428
512.2156476415721
512.2151228938862
512.2145986274493
512.2140748421259
512.2135515377813
512.2130287142811
512.2125063714911
512.2119845092775
512.2114631275065
512.2109422260448
512.2104218047593
512.209901863517
512.2093824021852
512.2088634206318
512.2083449187251
512.2078268963335
512.2073093533259
512.206792289571
512.2062757049378
512.2057595992953
512.2052439725135
512.2047288244619
512.2042141550105
512.2036999640293
512.2031862513879
512.2026730169566
512.2021602606058
512.2016479822059
512.2011361816278
512.200624858742
512.2001140134191
512.19960364553
512.1990937549458
512.198584341538
512.1980754051788
512.1975669457411
512.1970589630978
512.196551457122
512.196044427687
512.1955378746661
512.1950317979333
512.1945261973628
512.1940210728292
512.193516424207
512.1930122513709
512.1925085541952
512.1920053325546
512.1915025863236
512.1910003153776
512.1904985195918
512.1899971988416
512.1894963530033
512.1889959819528
512.1884960855662
512.1879966637196
512.187497716289
512.1869992431511
512.1865012441826
512.1860037192605
512.1855066682617
512.1850100910635
512.1845139875434
512.1840183575789
512.1835232010478
512.183028517828
512.1825343077974
512.182040570834
512.1815473068168
512.1810545156247
512.1805621971369
512.1800703512324
512.1795789777912
512.179088076693
512.1785976478184
512.1781076910479
512.1776182062624
512.1771291933433
512.1766406521717
512.1761525826291
512.1756649845972
512.1751778579585
512.1746912025953
512.1742050183905
512.1737193052265
512.1732340629867
512.1727492915545
512.1722649908136
512.1717811606479
512.1712978009418
512.17081491158
512.1703324924474
512.1698505434292
512.1693690644111
512.1688880552788
512.1684075159187
512.1679274462172
512.1674478460609
512.1669687153371
512.1664900539333
512.1660118617372
512.1655341386368
512.1650568845205
512.1645800992765
512.1641037827931
512.1636279349589
512.1631525556629
512.1626776447945
512.1622032022433
512.1617292278995
512.1612557216538
512.1607826833972
512.1603101130208
512.159838010416
512.1593663754738
512.1588952080856
512.1584245081433
512.1579542755389
512.1574845101647
512.157015211913
512.156546380676
512.1560780163468
512.1556101188185
512.1551426879846
512.154675723739
512.154209225976
512.1537431945903
512.1532776294766
512.1528125305299
512.1523478976455
512.1518837307194
512.1514200296476
512.1509567943267
512.1504940246537
512.1500317205257
512.1495698818401
512.1491085084945
512.148647600387
512.1481871574163
512.1477271794809
512.1472676664798
512.1468086183124
512.1463500348782
512.1458919160768
512.1454342618083
512.144977071973
512.1445203464714
512.1440640852043
512.1436082880728
512.1431529549784
512.1426980858232
512.1422436805094
512.1417897389395
512.1413362610162
512.1408832466432
512.1404306957236
512.1399786081611
512.1395269838595
512.1390758227228
512.1386251246554
512.1381748895617
512.1377251173465
512.1372758079149
512.1368269611728
512.1363785770263
512.1359306553816
512.1354831961453
512.1350361992247
512.1345896645275
512.1341435919617
512.1336979814353
512.1332528328567
512.1328081461345
512.1323639211773
512.1319201578945
512.1314768561954
512.1310340159898
512.1305916371878
512.1301497196991
512.1297082634342
512.1292672683032
512.128826734217
512.1283866610863
512.1279470488223
512.1275078973365
512.1270692065407
512.1266309763471
512.1261932066684
512.1257558974175
512.1253190485077
512.1248826598523
512.1244467313654
512.124011262961
512.123576254553
512.1231417060555
512.1227076173827
512.1222739884488
512.1218408191685
512.121408109457
512.1209758592297
512.1205440684023
512.1201127368904
512.1196818646097
512.1192514514762
512.1188214974065
512.1183920023177
512.1179629661269
512.1175343887512
512.117106270108
512.1166786101151
512.1162514086905
512.1158246657528
512.1153983812212
512.1149725550149
512.114547187053
512.1141222772544
512.1136978255386
512.1132738318249
512.112850296033
512.1124272180823
512.1120045978926
512.1115824353833
512.111160730474
512.1107394830844
512.1103186931346
512.1098983605441
512.1094784852328
512.1090590671204
512.1086401061264
512.1082216021705
512.1078035551725
512.1073859650521
512.1069688317293
512.1065521551243
512.1061359351575
512.1057201717492
512.10530486482
512.10489001429
512.1044756200793
512.1040616821074
512.103648200294
512.1032351745587
512.1028226048215
512.1024104910023
512.1019988330211
512.1015876307983
512.1011768842548
512.1007665933107
512.1003567578864
512.099947377902
512.0995384532778
512.0991299839338
512.0987219697906
512.0983144107686
512.0979073067881
512.0975006577698
512.0970944636347
512.0966887243035
512.0962834396971
512.0958786097365
512.0954742343424
512.0950703134358
512.0946668469373
512.0942638347678
512.093861276848
512.0934591730984
512.0930575234395
512.0926563277915
512.0922555860745
512.0918552982089
512.0914554641147
512.0910560837124
512.0906571569226
512.0902586836662
512.0898606638641
512.0894630974371
512.0890659843062
512.0886693243924
512.0882731176168
512.0878773639008
512.0874820631657
512.087087215333
512.0866928203241
512.0862988780605
512.0859053884637
512.0855123514557
512.0851197669581
512.0847276348925
512.0843359551807
512.0839447277447
512.0835539525065
512.0831636293881
512.0827737583115
512.082384339199
512.0819953719729
512.0816068565555
512.0812187928693
512.0808311808369
512.0804440203806
512.0800573114229
512.0796710538866
512.0792852476943
512.0788998927685
512.0785149890316
512.0781305364064
512.0777465348156
512.0773629841817
512.0769798844276
512.0765972354759
512.0762150372498
512.0758332896721
512.0754519926659
512.0750711461537
512.0746907500579
512.0743108043007
512.073931308804
512.0735522634902
512.0731736682817
512.0727955231009
512.0724178278706
512.0720405825134
512.0716637869523
512.0712874411104
512.0709115449106
512.0705360982756
512.0701611011282
512.0697865533909
512.0694124549866
512.0690388058381
512.0686656058685
512.0682928550011
512.0679205531587
512.0675487002648
512.0671772962426
512.0668063410158
512.066435834508
512.066065776643
512.0656961673449
512.0653270065377
512.0649582941458
512.0645900300935
512.0642222143058
512.0638548467073
512.0634879272227
512.0631214557768
512.0627554322946
512.0623898567012
512.0620247289219
512.0616600488815
512.0612958165052
512.060932031718
512.0605686944455
512.0602058046131
512.0598433621467
512.0594813669718
512.0591198190143
512.0587587182001
512.0583980644551
512.0580378577054
512.0576780978772
512.0573187848972
512.056959918692
512.056601499188
512.0562435263118
512.0558859999901
512.0555289201493
512.0551722867158
512.0548160996159
512.0544603587764
512.0541050641241
512.053750215586
512.0533958130893
512.0530418565613
512.0526883459293
512.0523352811203
512.0519826620621
512.0516304886817
512.0512787609066
512.0509274786643
512.0505766418826
512.0502262504892
512.049876304412
512.0495268035786
512.0491777479169
512.0488291373551
512.0484809718216
512.0481332512452
512.0477859755547
512.0474391446792
512.0470927585477
512.0467468170893
512.0464013202334
512.0460562679091
512.045711660046
512.0453674965738
512.0450237774226
512.0446805025222
512.0443376718024
512.0439952851928
512.043653342623
512.0433118440228
512.0429707893222
512.0426301784514
512.0422900113404
512.041950287919
512.0416110081173
512.0412721718656
512.0409337790938
512.0405958297329
512.0402583237133
512.0399212609657
512.0395846414206
512.0392484650085
512.03891273166
512.0385774413055
512.0382425938756
512.0379081893011
512.0375742275132
512.037240708443
512.0369076320217
512.0365749981804
512.0362428068506
512.0359110579639
512.0355797514517
512.0352488872459
512.034918465278
512.0345884854796
512.0342589477821
512.0339298521171
512.0336011984166
512.0332729866125
512.0329452166368
512.0326178884218
512.0322910018997
512.031964557003
512.0316385536642
512.0313129918159
512.0309878713906
512.0306631923211
512.0303389545402
512.0300151579809
512.0296918025763
512.02936888826
512.0290464149662
512.028724382629
512.0284027911828
512.028081640562
512.0277609307013
512.0274406615354
512.0271208329989
512.0268014450269
512.0264824975543
512.0261639905161
512.0258459238473
512.0255282974833
512.0252111113598
512.0248943654124
512.0245780595772
512.0242621937903
512.0239467679878
512.0236317821059
512.0233172360809
512.0230031298493
512.0226894633479
512.0223762365135
512.0220634492835
512.0217511015951
512.021439193386
512.0211277245935
512.0208166951552
512.0205061050087
512.0201959540921
512.0198862423433
512.0195769697009
512.0192681361032
512.0189597414885
512.0186517857958
512.018344268964
512.0180371909325
512.0177305516406
512.0174243510278
512.0171185890335
512.0168132655976
512.0165083806601
512.016203934161
512.0158999260407
512.015596356239
512.0152932246965
512.0149905313538
512.0146882761514
512.0143864590304
512.0140850799314
512.013784138795
512.0134836355624
512.0131835701745
512.0128839425724
512.0125847526972
512.0122860004899
