523.9999999999999
523.6075063126062
523.2152929066515
522.8236391775607
522.4328227512998
522.0431186060828
521.6547982018299
521.2681286199477
520.8833717159633
520.5007832874799
520.1206122598836
519.7430998922193
519.3684790055743
518.9969732362118
518.6287963155896
518.2641513792837
517.9032303067617
517.5462130939011
517.1932672600756
516.844547291563
516.5001941229609
516.1603346582884
515.8250813334471
515.4945317216565
515.1687681834013
514.8478575623338
514.5318509285028
514.2207833701386
513.9146738350041
513.6135250221097
513.317323324464
513.026038823402
512.739625334825
512.4580205075018
512.1811459733651
511.9089075495579
511.6411954918361
511.37788479881266
511.1188355663997
510.86389339171416
510.6128898256483
510.36564287318794
510.1219575404529
509.88162642729554
509.6444303641069
509.4101390912868
509.1785119796242
508.94929878964666
508.7222404678837
508.49706997785336
508.2735131634735
508.05128964249917
507.830113727477
507.60969537157473
507.38974113652966
507.16995517989005
506.950040258687
506.72969874662635
506.5086336617753
506.2865497015823
506.0631542820615
505.8381585779285
505.61127856037757
505.38223602909255
505.15075963499663
504.9165858902143
504.6794601617479
504.43913764540304
504.1953843165589
503.9479778544161
503.69670853638104
503.4413800993232
503.1818105645002
502.9178330230058
502.6492963787457
502.3760660461321
502.0980245997728
501.8150723734929
501.52712800613307
501.2341289317079
500.93603181164235
500.63281290691907
500.3244683881226
500.0110145816147
499.6924881503225
499.3689462078232
499.04046636464454
498.70714670593463
498.3691056999212
498.0264820368428
497.6794343982928
497.3281411571542
496.97280000854755
496.6136275324476
496.25085868884196
495.88474624650513
495.51556014667176
495.14358680317014
494.7691283408607
494.3925017744333
494.0140381298281
493.63408151083536
493.2529881136886
492.87112519268874
492.48886998013006
492.1066085640087
491.7247347271843
491.34364875183815
490.9637561932598
490.5854666271837
490.2091923750488
489.835347211625
489.46434505951396
489.09659867511243
488.7325183306899
488.3725104973055
488.01697653332116
487.6663113832756
487.3209022919002
486.98112753807357
486.64735519349307
486.3199419108153
485.99923174595284
485.6855550191311
485.3792272192387
485.08054795589914
484.7897999635107
484.5072481613092
484.2331387732904
483.9676985115731
483.7111338265094
483.46363022662865
483.2253516712418
482.99644003827245
482.7770146695708
482.56717199567845
482.3669852417324
482.17650421592276
481.9957551816355
481.82474081411766
481.6634402421806
481.5118091751314
481.3697801147723
481.23726265194335
481.1141438466979
481.000288690804
480.8955406509001
480.7997222903075
480.7126359671752
480.63406460630597
480.56377254168945
480.50150642650476
480.4469962070877
480.39995615710916
480.36008596797524
480.32707189125784
480.3005879287521
480.2802970655794
480.2658525415892
480.2568991561738
480.25307460147536
480.2540108188256
480.25933537316604
480.2686728401415
480.281646200526
480.2978782366384
480.3169929254271
480.3386168229237
480.3623804348201
480.387919568029
480.4148766581736
480.44290206799707
480.47165535172263
480.5008064804519
480.53003702377055
480.55904128282407
480.58752737029823
480.61521823304
480.6418526133946
480.66718594563724
480.69099118414243
480.7130595602127
480.73320126486703
480.75124605538656
480.7670437838833
480.7804648465758
480.79140055279004
480.799763413032
480.80548734579736
480.80852780306566
480.8088618146488
480.80648795180963
480.80142621082894
480.7937178174704
480.78342495364683
480.77063040797185
480.7554371522354
480.73796784612165
480.7183642727335
480.6967867077535
480.67341322528733
480.6484389436395
480.6220752144711
480.59454875902065
480.566100755279
480.536985880129
480.50747131051304
480.4778356877813
480.44836804950774
480.4193667331611
480.3911382560152
480.36399617571817
480.33825993601533
480.3142537021292
480.2923051902767
480.27274449576163
480.25590292399346
480.24211182870994
480.2317014615618
480.22499983708093
480.2223316169462
480.22401701731945
480.23037074289493
480.2417009511538
480.2583082501221
480.28048473268416
480.3085130502822
480.3426655286315
480.3832033278761
480.4303756493994
480.48441899127414
480.5455564541027
480.61399709876207
480.68993535730414
480.7735504980072
480.86500614535
480.964449855458
481.07201274735604
481.187809190133
481.31193654589566
481.4444749681842
481.58548725532097
481.7350187579822
481.89309734009305
482.05973339197647
482.23491989452384
482.4186325330093
482.6108298590047
482.8114534986965
483.02042840578747
483.237663157074
483.4630502886532
483.6964666706248
483.93777391810227
484.18681883630285
484.4434338974289
484.70743774703084
484.9786357375313
485.25682048655733
485.5417724576956
485.8332605612969
486.13104277300863
486.4348667677528
486.74447056688325
487.0595831962635
487.3799253530285
487.70521007886356
488.0351434377145
488.3694251959192
488.7077495028395
489.0498055701547
489.39527834803334
489.7438491964855
490.0951965502886
490.44899657595425
490.8049238192703
491.1626518420479
491.5218538468199
491.8822032883558
492.2433744709824
492.605043130787
492.9668870018639
493.32858636583035
493.6898245839286
494.05028861111794
494.40966949166983
494.7676628358677
495.12396927747733
495.47829491170984
495.8303517134539
496.17985793561326
496.5265384874504
496.8701252929083
497.21035762895576
497.5469824440679
497.87975465700663
498.2084374361115
498.53280245930466
498.8526301550355
499.16770992443867
499.4778403450088
499.78282935611594
500.0824944267004
500.3766627055116
500.6651711542729
500.94786666411864
501.2246061556532
501.4952566629838
501.75969540207444
502.01780982373407
502.26949765153574
502.514666904968
502.75323590810183
502.985133284035
503.210297935365
503.42867901092694
503.6402358589983
503.8449379671653
504.0427648889931
504.23370615758586
504.41776118611546
504.59493915542834
504.76525888885794
504.92874871441336
505.08544631457846
505.23539856400583
505.37866135539036
505.515299413752
505.6453860993263
505.76900319925267
505.88624070821555
505.99719659817066
506.10197657728776
506.2006938381671
506.293468795308
506.38042881178234
506.46170791506916
506.53744650203595
506.6077910330858
506.67289371555376
506.73291217652474
506.7880091253042
506.8383520058043
506.88411263915964
506.9254668568849
506.96259412486785
506.9956771584957
507.02490152927396
507.0504552633489
507.07252843238234
507.09131273728497
507.10700108535366
507.11978716139583
507.129864993471
507.13742851390555
507.1426711162942
507.1457852092981
507.1469617680962
507.14638988436155
507.1442563156865
507.1407450354877
507.1360367844508
507.1303086245386
507.12373349660544
507.1164797827153
507.10871087428256
507.1005847471614
507.0922535447899
507.0838631705057
507.07555289022514
507.0674549467059
507.05969418659896
507.0523877014614
507.04564448389766
507.0395650999931
507.0342413792133
507.0297561229423
507.0261828328291
507.0235854600573
507.0220181766072
507.0215251695762
507.0221404596388
507.0238877447405
507.02678027013985
507.0308207258949
507.03600117278097
507.04230299749804
507.04969689793705
507.05814289920886
507.06759040102855
507.0779782569074
507.0892348854595
507.101278413971
507.114016854251
507.127348310656
507.1411612200537
507.1553346234115
507.16973846864806
507.18423394434865
507.198673843866
507.21290295923376
507.2267585042449
507.2400705659414
507.25266258361216
507.264351854254
507.2749500633618
507.28426383978723
507.2920953332776
507.2982428131971
507.30250128679927
507.30466313531315
507.30451876597976
507.30185727809163
507.29646714106315
507.28813688255127
507.276655784612
507.26181458580396
507.2434061870672
507.22122635915565
507.1950744493387
507.16475408505113
507.1300738721805
507.0908480856476
507.0468973499327
506.9980493072049
506.94413927076124
506.88501086152286
506.8205166253791
506.75051862918684
506.67488903327325
506.59351063833395
506.5062774047135
506.41309494214573
506.31388096813305
506.20856573323437
506.09709241161903
505.9794174553747
505.85551091121243
505.7253566983496
505.5889528464752
505.44631169283446
505.2974600376139
505.14243925692296
504.9813053727911
504.81412907973987
504.64099572765156
504.4620052608331
504.2772721134069
504.08692506130865
503.8911070312774
503.6899748673638
503.4836990556277
503.2724634078515
503.05646470524835
502.8359123032882
502.61102769890925
502.38204406150925
502.14920572920744
501.9127676719765
501.67299492340555
501.430161982957
501.1845521906468
500.9364570761729
500.68617568461656
500.43401388090615
500.1802836352971
499.925302292171
499.6693918244977
499.4128780763946
499.1560899962976
498.8993588632522
498.6430175088
498.3873995369603
498.13283854480056
497.87966734605385
497.62821720021833
497.3788170495108
497.13179276598686
496.88746641107065
496.64615550970905
496.4081723413491
496.1738232498851
495.9434079745915
495.71721900393743
495.4955409541032
495.278649973942
495.066813178026
494.860288109277
494.65932223253685
494.4641524602742
494.2750047114977
494.0920935048289
493.9156215866142
493.74577959483275
493.58274575944125
493.426685639669
493.2777518986752
493.1360841158396
493.00180863681044
492.8750384612873
492.7558731683937
492.6443988794065
492.54068825750085
492.44480054403454
492.3567816307737
492.2766641673499
492.20446770310525
492.14019886241937
492.0838515525697
492.0354072030504
491.99483503511163
491.96209236020843
491.9371249060364
491.9198671688094
491.9102427903418
491.9081649584681
491.91353682934124
491.92625197016497
491.9461948208832
491.9732411732879
492.00725866596105
492.04810729347395
492.09563992829305
492.14970285383873
492.2101363071374
492.27677502949035
492.3494488235706
492.4279831153898
492.51219951960246
492.6019164066363
492.69694947010095
492.7971122928781
492.90221691020963
493.0120743680171
493.126495274689
493.2452903446943
493.3682709325226
493.495249555481
493.62604040387174
493.7604598371485
493.8983268648205
494.0394636110781
494.18369576229594
494.3308529966781
494.48076939540175
494.6332838346669
494.7882403580583
494.9454885285629
495.1048837595362
495.2662876238985
495.4295681408965
495.59460003978234
495.76126499980376
495.9294518659885
496.0990568402738
496.26998364757816
496.44214367648465
496.61545609430635
496.7898479363878
496.9652541695954
497.1416177300181
497.3188895349858
497.4970284695714
497.6760013477532
497.8557828483783
498.03635542604604
498.21770919709047
498.3998418009763
498.5827582375326
498.766470680523
498.9509982680812
499.1363668706007
499.3226088367718
499.5097627185336
499.6978729757313
499.886989661314
500.0771680879361
500.26846847686477
500.46095559013554
500.6546983469724
500.84976942557876
501.0462448514395
501.24420357329467
501.44372702798177
501.6448986953873
501.84780364481054
502.05252807403014
502.25915884235394
502.46778299896175
502.6784873078946
502.89135777104934
503.10647915057257
503.3239344920763
503.5438046501118
503.766167817331
503.99109905875355
504.2186698525397
504.4489476386347
504.6819953766465
504.9178711143508
505.1566275682084
505.3983117172404
505.64296441156375
505.890619996832
506.1413059557735
506.39504256797096
506.6518425889772
506.91171094984526
507.174644478122
507.4406316412769
507.7096523134802
507.98167756660683
508.25666948627725
508.53458101366823
508.8153558137586
509.0989281705836
509.3852229100121
509.6741553504845
509.9656312820244
510.25954697371276
510.55578920976023
510.85423535428544
511.1547534447988
511.4572023142662
511.76143174155635
512.0672826299881
512.3745872136346
512.6831692909939
512.9928444855308
513.3034205324616
513.6146975910486
513.9264685816073
514.2385195463747
514.5506300333572
514.8625735021749
515.1741177508112
515.4850253621237
515.7950541689335
516.103957736476
516.411485860956
516.7173850829298
517.0213992141869
517.3232698767418
517.6227370524759
517.9195396419456
518.213416030849
518.5041046626018
518.7913446154729
519.0748761827427
519.3544414543435
519.6297848984028
519.9006539411175
520.1667995433926
520.427976772707
520.6839453686703
520.9344703007662
521.1793223168758
521.4182784812022
521.6511227001735
521.8776462349537
522.0976481992827
522.3109360414036
522.5173260088391
522.7166435948092
522.9087239651641
523.0934123647702
523.2705645022805
523.4400469122348
523.601737293494
523.7555248230893
523.9013104446468
524.0390071306067
524.1685401175
524.2898471135849
524.402878478199
524.5075973723136
524.6039798798838
524.6920150995769
524.7717052065113
524.8430654837147
524.906124323123
524.960923196038
525.0075165930879
525.045971933861
525.0763694464763
525.0988020173827
525.1133750116971
525.1202060644642
525.1194248433054
525.1111727829692
525.0956027922966
525.0728789340827
525.043176078321
525.0066795293379
524.9635846273928
524.9140963254032
524.8584287415639
524.7968046887153
524.7294551814146
524.656618921732
524.5785417648372
524.4954761655117
524.4076806067823
524.3154190118846
524.21896014081
524.1185769727446
524.014546075772
523.9071469652356
523.7966614521705
523.6833729832426
523.5675659736335
523.4495251343557
523.329534795483
523.2078782268215
523.0848369576771
522.9606900974537
522.8357136588444
522.7101798853402
522.5843565847416
522.4585064703431
522.3328865115076
522.2077472953364
522.0833324010864
521.9598777889768
521.8376112050529
521.71675160376
521.5975085898409
521.4800818811358
521.3646607938601
521.2514237518861
521.1405378214863
521.0321582729334
520.926428170306
520.8234779908092
520.7234252748625
520.6263743080938
520.53241583632
520.4416268145555
520.3540701910022
520.2697947269141
520.1888348531791
520.1112105644305
520.0369273514309
519.9659761723923
519.8983334637959
519.8339611911441
519.772806939943
519.7148040470587
519.6598717724644
519.6079155112167
519.5588270452981
519.5124848348053
519.4687543478484
519.4274884284426
519.38852770156
519.3517010143871
519.3168259127692
519.2837091517181
519.2521472387854
519.2219270089955
519.1928262299274
519.1646142354062
519.1370525861462
519.1098957555727
519.0828918389612
519.055783283972
519.0283076405444
519.0001983279776
518.9711854169301
518.9409964240492
518.9093571168983
518.875992326747
518.8406267667523
518.8029858530714
518.7627965264494
518.7197880718115
518.6736929333891
518.6242475228669
518.5711930180661
518.5142761497325
518.4532499740267
518.3878746283339
518.3179180680028
518.2431567816451
518.1633764827162
518.0783727752254
517.9879517914995
517.891930800035
517.7901387816015
517.6824169718509
517.568619368756
517.4486132033311
517.3222793722019
517.1895128307625
517.0502229457986
516.9043338066068
516.7517844937751
516.5925293049055
516.4265379367182
516.2537956231748
516.0743032294331
515.8880773015875
515.6951500722622
515.4955694222955
515.2893987989311
515.0767170911059
514.8576184624711
514.632212142901
514.4006221794115
514.162987147593
513.9194598247519
513.6702068261022
513.4154082054816
513.1552570221713
512.8899588754801
512.6197314088262
512.34480378512
512.0654161353654
511.7818189824875
511.4942726424587
511.2030466048165
510.9084188947185
510.6106754187138
510.31010929646345
510.0070201806463
509.70171356720107
509.3945000980099
509.08569485821954
508.7756166704443
508.4645873880459
508.15293118960176
507.84097387662996
507.5290421765734
507.2174630529879
506.9065630247773
506.5966674962154
506.2881000994004
505.98118205072564
505.6762315229121
505.37356303406796
505.07348685514313
504.7763084370509
504.4823278586318
504.19183929652206
503.9051305178365
503.6224823964366
503.3441684534678
503.0704544227853
502.8015978417937
502.5378476681064
502.2794439223266
502.0266173571424
501.77958915286155
501.53857063945713
501.30376304511503
501.0753572711687
500.85353369321325
500.6384619881192
500.4303009866086
500.2291985510062
500.0352914777261
499.8487054240086
499.66955485840913
499.4979430344891
499.333961987066
499.1776925503388
499.02920439717485
498.8885560988081
498.75579520419524
498.6309583383027
498.51407131860793
498.40514928910585
498.3041968711123
498.2112083301605
498.12616775827763
498.0490492709398
497.9798172180462
497.9184264083105
497.8648223464687
497.8189414827003
497.7807114736781
497.750051454731
497.7268723226403
497.7110770285685
497.7025608806394
497.7012118557312
497.7069109200747
497.7195323582478
497.73894411015374
497.7650081155627
497.7975806657411
497.8365127615651
497.88165047740574
497.93283533004114
497.98990465187984
498.0526919677995
498.1210273749434
498.19473792484774
498.27364800728674
498.3575797353075
498.4463533310296
498.53978751186753
498.6376998768071
498.7399072923304
498.8462262775751
498.9564733882611
499.0704655988154
499.1880206820289
499.3089575854747
499.43309680383084
499.56026074620763
499.6902740975636
499.82296417329627
499.95816126608014
500.0956989839693
500.2354145787737
500.3771492637422
500.52074851967154
500.66606238861584
500.81294575432935
500.9612586085568
501.1108663022987
501.26163978120735
501.4134558042332
501.56619714464273
501.71975277251386
501.8740180178333
502.02889471339665
502.1842913167885
502.34012301078684
502.496311781573
502.6527864741868
502.809482824787
502.9663434693847
503.12331792875324
503.280362569284
503.4374405396421
503.5945216831259
503.7515824256913
503.90860563971637
504.0655804837044
504.22250221822026
504.37937199844635
504.53619664384485
504.69298838549514
504.84976459177966
505.00654747318447
505.16336376706033
505.32024440327876
505.4772241517856
505.63434125315035
505.7916370333074
505.94915550378016
506.1069429487454
506.26504750032393
506.4235187035302
506.58240707241976
506.7417636390748
506.90163949707664
507.0620853411285
507.22315100452755
507.3848849962165
507.5473340391617
507.7105426118037
507.8745524943197
508.0394023214393
508.2051271436095
508.37175799828486
508.5393214930401
508.7078394021621
508.8773282783574
509.04779908116234
509.21925682358807
509.39170023844906
509.5651214657747
509.7395057626743
509.9148312369712
510.0910686057702
510.268180979977
510.44612367571085
510.6248440534756
510.80428138586376
510.98436675445043
511.1650229764248
511.34616456141146
511.52769769884594
511.7095202761691
511.891521927983
512.0735841161585
512.2555802407534
512.4373757814902
512.6188284694321
512.7997884883812
512.9800987054255
513.1595949300043
513.3381062007677
513.5154550993924
513.6914580903818
513.8659258858054
514.0386638338676
514.2094723301238
514.3781472500805
514.5444804018455
514.7082599974043
514.8692711410556
515.0272963334776
515.1821159898619
515.3335089705
515.4812531221789
515.625125828727
515.7649045689992
515.9003674805821
516.031293927447
516.1574650697854
516.2786644342639
516.3946784829412
516.5052971791358
516.6103145485707
516.7095292341899
516.8027450430249
516.889771483482
516.9704242914388
517.0445259436046
517.1119061566254
517.1724023704414
517.2258602144801
517.2721339553045
517.3110869243897
517.3425919247398
517.3665316151371
517.3827988708682
517.3912971198413
517.3919406530505
517.3846549084852
517.3693767276194
517.34605458368
517.314648780952
517.2751316244708
517.2274875594981
517.1717132802906
517.1078178077603
517.0358225357783
516.9557612460272
516.867680091398
516.7716375479752
516.6677043357364
516.5559633081693
516.436509311039
516.3094490105851
516.1749006914523
516.0329940246864
515.8838698061837
515.7276796660514
515.5645857494076
515.3947603691944
515.2183856316669
515.0356530353497
514.8467630443464
514.651924636967
514.4513548307557
514.2452781850851
514.033926282542
513.8175371903677
513.5963549032597
513.3706287689479
513.1406128980058
512.9065655593781
512.6687485630977
512.4274266317125
512.1828667619855
511.9353375784754
511.6851086806278
511.4324499850318
511.17763106454316
510.9209204860244
510.6625851485144
510.4028896236749
510.14209550037515
509.88046073525453
509.6182390110647
509.3556791046167
509.0930242661661
508.8305116120143
508.5683715320487
508.3068271139254
508.0460935855674
507.78637777762555
507.5278776075168
507.27078158662584
507.0152683522026
506.7615062254006
506.5096527968382
506.2598545410096
506.0122464607936
505.76695176322045
505.524081567572
505.2837346468439
505.045997203559
504.81094268084416
504.578631609616
504.3491114926512
504.12241672622565
503.8985685599028
503.6775750949076
503.459431321419
503.24411919503956
503.03160775254946
502.82185326685544
502.6147994408579
502.41037763981814
502.2085071616603
502.0090955444878
501.81203891049506
501.61722234535824
501.42452031213344
501.2337970986083
501.0449072969271
500.8576963142146
500.6720009128598
500.48764977900777
500.30446411767616
500.1222582728123
499.94084037053295
499.7600129837085
499.57957381594997
499.39931640295725
499.2190308290988
499.0385044570323
498.85752266812653
498.6758696113831
498.49332895851694
498.3096846628668
498.12472171981244
497.93822692637946
497.7499896376798
497.5598025178451
497.3674622831184
497.1727704347603
496.97553397943517
496.77556613478095
496.57268701790593
496.3667243146158
496.1575139272271
495.94490059888227
495.72873851234885
495.5088918613646
495.28523539269764
495.05765491718347
494.8260477880891
494.5903233452559
494.3504033235959
494.10622222463985
493.85772764996267
493.60488059541746
493.34765570524354
493.08604148526064
492.82004047450056
492.54966937478196
492.2749591378627
491.99595500992433
491.71271653328546
491.4253175054116
491.1338458954485
490.8384037186627
490.5391068693002
490.2360849125149
489.9294808361537
489.6194507632852
489.3061636264282
488.98980080457204
488.6705557242313
488.3486334259038
488.0242500974096
487.69763257573277
487.3690178190822
487.03865235096674
486.70679167816786
486.37369968455755
486.0396480027793
485.7049153659072
485.36978694125713
485.03455364854364
484.6995114645829
484.3649607167483
484.03120536743864
483.69855229186965
483.3673105515018
483.0377906654189
482.7103038819559
482.3851614528485
482.06267391215
481.74315036212477
481.4268977682861
481.11422026570165
480.8054184786383
480.50078885555365
480.2006230213448
479.90520714869535
479.6148213503147
479.32973909379206
479.0502266406754
478.7765425112659
478.5089369765081
478.2476515782505
477.9929186790654
477.74496104272015
477.5039914462419
477.2702123244085
477.04381544738607
476.82498163209317
476.61388048774285
476.4106701958784
476.2154973251428
476.0284966809164
475.8497911898166
475.6794918189
475.517697529319
475.3644952640902
475.2199599695079
475.0841546496358
474.9571304532043
474.8389267921545
474.72957149099506
474.6290809660304
474.5374604334154
474.4547041448748
474.3807956498426
474.3157080826945
474.25940447366753
474.21183808200647
474.1729527498149
474.14268327506056
474.1209558021862
474.1076882287875
474.1027906268096
474.10616567671224
474.1177091129986
474.13731017950494
474.16485209285725
474.20021251249835
474.2432640157006
474.2938745760201
474.35190804367005
474.4172246263282
474.489681368924
474.5691326309765
474.6554305600521
474.7484255599169
474.8479667519642
474.95390242845133
475.0660804960377
475.18434890813586
475.3085560846872
475.43855131812745
475.57418516438594
475.7153098177812
475.8617794687456
476.0134506435113
476.1701825250935
476.33183725506086
476.49828021570784
476.669380292362
476.84501011563066
477.0250462833992
477.20936956240826
477.39786506923355
477.5904224304837
477.78693592206497
477.98730458738754
478.1914323345023
478.39922801224577
478.610605465524
478.82548356989884
479.04378624572206
479.2654424521531
479.4903861614801
479.71855631422926
479.949896755611
480.18435615393287
480.42188790168245
480.6624499999743
480.90600492700844
481.15251949117015
481.40196466943104
481.65431543178755
481.90955055246474
482.16765240862895
482.4286067673967
482.6924025619823
482.95903165787917
483.2284886099776
483.5007704115095
483.7758762357018
484.0538071710351
484.33456595100574
484.6181566792791
484.90458455110485
485.19385557185876
485.48597627355707
485.7809534301987
486.0787937727828
486.37950370481354
486.68308901909177
486.98955461659426
487.2989042282113
487.61114014007944
487.9262629232475
488.2442711683584
488.56516122599913
488.8889269533905
489.2155594680907
489.5450469093318
489.8773742075368
490.21252286255583
490.5504707311817
490.89119182447195
491.23465611532686
491.5808293567517
491.92967291123637
492.28114359167586
492.63519351422497
492.9917699634385
493.3508152699906
493.71226670121393
494.0760563647125
494.442111125295
494.8103525354335
495.1806967794261
495.5530546314177
495.9273314273716
496.3034270510448
496.68123593402254
497.06064706988286
497.4415440425303
497.82380506870453
498.20730305463275
498.5919056667718
498.9774754165549
499.3638697590481
499.750941205398
500.1385374489211
500.5265015046633
500.9146718622327
501.30288265166485
501.6909638220491
502.07874133264534
502.4660373562034
502.85267049418644
503.23845600354616
503.6232060346608
504.0067298800436
504.3888342334223
504.7693234587745
505.14799986887294
505.52466401282885
505.8991149721014
506.2711506644349
506.6405681551576
507.00716397526094
507.3707344457059
507.7310760073922
508.0879855562076
508.4412607825496
508.7907005146468
509.13610506500794
509.47727657933564
509.814019387226
510.1461403539642
510.47344923271527
510.79575901637565
511.1128862883228
511.4246515713
511.7308796736654
512.0314000322471
512.3260470510522
512.6146604350937
512.8970855185937
513.173173586816
513.442782190786
513.7057754541937
513.9620243717892
514.2114070985372
514.4538092287613
514.6891240645076
514.9172528723434
515.1381051278152
515.351598746828
515.5576603032293
515.7562252318597
515.9472380163556
516.1306523610281
516.3064313461167
516.4745475657138
516.6349832476856
516.7877303549692
516.9327906676765
517.0701758454659
517.1999074697139
517.3220170650387
517.4365460998188
517.543545965471
517.6430779343028
517.7352130957446
517.8200322707303
517.8976259040415
517.9680939345365
518.0315456432139
518.0880994790466
518.1378828625436
518.1810319670292
518.2176914776418
518.2480143280645
518.2721614150761
518.290301291096
518.3026098349957
518.3092699015679
518.310470950142
518.3064086529225
518.2972844836931
518.2833052875559
518.2646828324243
518.2416333430829
518.2143770186967
518.1831375347265
518.1481415302504
518.1096180817632
518.067798164571
518.0229141029545
517.9751990102942
517.9248862203866
517.8722087112731
517.8173985230425
517.7606861711512
517.7023000568014
517.6424658759308
517.581406028418
517.5193390291724
517.4564789227767
517.3930347033345
517.3292097411721
517.2652012180421
517.2011995725179
517.1373879573115
517.0739417102325
517.0110278404737
516.9488045319167
516.8874206651179
516.8270153596208
516.7677175382402
516.7096455149084
516.6529066076334
516.5975967780679
516.5438002991448
516.4915894522181
516.4410242551838
516.3921522230429
516.3450081623162
516.2996140006272
516.2559786526641
516.2140979235825
516.1739544507788
516.1355176848804
516.0987439107149
516.0635763088327
516.0299450578946
515.9977674780798
515.9669482155823
515.937379468141
515.9089412514259
515.8815017059231
515.8549174438624
515.8290339356425
515.8036859351463
515.7786979432303
515.7538847085281
515.7290517645645
515.7039960020372
515.6785062749739
515.6523640393721
515.6253440227466
515.5972149229099
515.5677401341679
515.536678499002
515.5037850831603
515.4688119719535
515.4315090854342
515.391625010069
515.3489078444443
515.3031060564608
515.2539693494016
515.2012495341847
515.1447014050267
515.0840836156809
515.0191595534029
514.9496982077718
514.8754750314234
514.79627278974
514.7118823965375
514.6221037328697
514.5267464460676
514.4256307261644
514.3185880568702
514.2054619383209
514.0861085788828
513.9603975533877
513.8282124252635
513.6894513301798
513.5440275189463
513.3918698575254
513.2329232820703
513.0671492070726
512.89452588485
512.7150487147626
512.5287305007153
512.3356016557008
512.1357103522928
511.9291226181591
511.71592237581007
511.4962114259962
511.2701093744194
511.0377535016687
510.7992985764597
510.55491661245884
510.30479656918834
510.0491439976907
509.7881806318329
509.5221439263089
509.2512865426048
508.97587578442585
508.6961929842555
508.41253284286955
508.1252027238372
507.8345219052318
507.5408207909625
507.2444400843115
506.9457299264091
506.64504900248585
506.34276361886515
506.0392467538081
505.73487708543183
505.4300380000411
505.12511658432953
504.8205026049782
504.5165874792161
504.21376323991836
503.91242149883726
503.6129524115713
503.31574364786377
503.0211793708389
502.7296392287649
502.44149736286795
502.1571214346472
501.8768716761002
501.6010999662245
501.33014893705916
501.0643511123772
500.8040280820484
500.5494897149787
500.3010334133365
500.05894341059457
499.8234901157912
499.5949295062234
499.3735025705596
499.1594348041583
498.952935758154
498.7541986436361
498.56339999206614
498.38069937284496
498.20623916871847
498.0401444095247
497.8825226645641
497.73346399361276
497.5930409563636
497.4613086798263
497.3383049829725
497.22405055767985
497.1185492048097
497.02178812406686
496.93373825608086
496.85435467494693
496.7835770292593
496.72133002943764
496.6675239789561
496.6220553469406
496.5848073795064
496.55565074709324
496.53444422491947
496.5210354035726
496.5152614266969
496.51694975268833
496.5259189372636
496.5419794336815
496.56493440733294
496.59458056140807
496.63070897035414
496.67310591783837
496.72155373596854
496.7758316425898
496.8357165735255
496.90098400669785
496.97140877514175
497.046765866039
497.12683120297993
497.21138240866173
497.3001995451857
497.39306582914486
497.4897683187997
497.59009857080315
497.6938532641701
497.8008347893986
497.91085180084673
498.0237197306483
498.1392612626461
498.2573067651307
498.37769468156387
498.50027187875213
498.6248939520967
498.7514254877584
498.87974028178263
499.009721516414
499.14126189396757
499.2742637287045
499.40863899725423
499.5443093482179
499.68120607169226
499.81927002959293
499.95845154782427
500.09871027147574
500.240014984375
500.38234339451486
500.5256818870001
500.6700252462147
500.81537634898723
500.96174583065215
501.10915172603296
501.25761908740105
501.40717958146206
501.5578710674352
501.70973715828626
501.86282676717923
502.0171936412418
502.17289588478104
502.32999547407655
502.4885577658603
502.64865100155777
502.81034580936284
502.9737147061889
503.13883160146275
503.305771304621
503.4746090380812
503.64541995738114
503.8182786801104
503.9932588251804
504.1704325639168
504.3498701843871
504.5316396702494
504.71580629522947
504.90243223421123
505.0915761918428
505.28329304949676
505.47763353129795
505.67464388979874
505.8743656118208
506.0768351448802
506.2820836445007
506.490136742617
506.7010143372215
506.9147304033489
507.1312928253721
507.3507032504563
507.57295696294335
507.79804277941037
508.02594296408176
508.25663316419684
508.49008236487794
508.7262528630141
508.9651002596739
509.20657347050764
509.4506147535237
509.6971597535796
509.94613756295286
510.1974707973625
510.45107568680197
510.7068621804953
510.96473406524404
511.22458909642927
511.4863191409506
511.74981033138806
512.0149432306836
512.2815930066477
512.5496296155825
512.818917994344
513.0893182602289
513.3606859180771
513.632872073979
513.9057236550225
514.1790836345666
514.4527912625556
514.7266823003879
515.0005892598581
515.2743416457408
515.5477662016579
515.8206871588877
516.0929264877636
516.3643041513138
516.6346383608131
516.9037458329243
517.1714420481171
517.4375415100991
517.701858006002
517.9642048670585
518.2243952295332
518.4822422957089
518.7375595947567
518.9901612433372
519.239862205777
519.4864785536331
519.729827724486
519.9697287798065
520.2060026616904
520.4384724482525
520.666963607483
520.8913042493804
521.1113253761495
521.3268611302814
521.5377490403541
521.7438302643493
521.94494983024
522.1409568736009
522.33170487199
522.5170518758433
522.6968607356381
522.8709993251072
523.0393407602659
523.2017636139693
523.3581521256644
523.5083964060033
523.6523926359953
523.7900432603446
523.9212571745336
524.0459499051912
524.1640437833074
524.2754681098661
524.3801593134461
524.4780610993527
524.5691245898504
524.6533084550435
524.7305790339268
524.8009104451075
524.8642846867076
524.9206917249653
524.9701295709898
525.0126043451239
525.048130328472
525.0767300012701
525.0984340678083
525.1132814676205
525.1213193726935
525.1226031704341
525.1171964321478
525.1051708667837
525.0866062597082
525.061590396274
525.0302189699206
524.9925954744461
524.9488310800693
524.8990444929584
524.8433617979135
524.7819162838972
524.7148482521718
524.6423048068528
524.5644396277714
524.4814127256458
524.3933901796307
524.300543857402
524.2030511180012
524.1010944977482
523.994861379555
523.8845436460033
523.7703373165397
523.6524421691853
523.5310613472584
523.4064009516969
523.2786696195931
523.1480780895992
523.0148387549342
522.879165204798
522.7412717550822
522.6013729693838
522.4596831714324
522.3164159500521
522.1717836577981
522.0259969044596
521.8792640466644
521.7317906748684
521.5837790990377
521.4354278343765
521.2869310884823
521.1384782513509
520.9902533897097
520.842434747197
520.6951942519364
520.5486970330835
520.4031009479118
520.2585561209848
520.1152044969953
519.9731794088922
519.8326051629134
519.6935966421189
519.5562589299768
519.4206869555729
519.2869651619835
519.1551671993768
519.025355644433
518.8975817477318
518.7718852107259
518.6482939938226
518.5268241569821
518.4074797341922
518.290252643118
518.1751226311119
518.0620572586369
517.9510119209649
517.8419299088071
517.7347425083896
517.6293691413865
517.5257175449334
517.4236839918233
517.3231535509107
517.2240003876504
517.1260881045741
517.0292701213691
516.9333900940945
516.8382823729593
516.7437724979798
516.64967773165
516.5558076276201
516.4619646342197
516.3679447315164
516.2735381004441
516.1785298223778
516.0827006073073
515.9858275485959
515.8876849022074
515.7880448881979
515.6866785121633
515.5833564041991
515.4778496728354
515.3699307713185
515.259374373515
515.1459582565845
515.0294641874304
514.9096788098292
514.7863945290864
514.6594103910967
514.5285329526325
514.3935771396852
514.2543670906551
514.1107369811843
513.9625318274011
513.8096082643528
513.6518352964507
513.4890950168278
513.3212832925432
513.1483104126329
512.9701016961485
512.7865980574127
512.5977565258261
512.4035507176749
512.2039712575468
511.99902614712715
511.7887410792989
511.57315969566594
511.35234378583704
511.12637342693097
510.8953470619416
510.65938151585897
510.41861194871336
510.1731917449249
509.92329233857356
509.66910297444525
509.4108304049207
509.1486985229929
508.8829479319692
508.6138354526645
508.3416335691218
508.0666298141511
507.78912609619374
507.50943796927436
507.22789384808493
506.94483417052055
506.66061051021535
506.3755846418295
506.09012756205465
505.8046184694906
505.5194437067244
505.23499566810807
504.9516716769039
504.6698728356317
504.39000285358264
504.112466855599
503.837670176395
503.5660171448139
503.29790986243586
503.03374698099697
502.7739224831573
502.518824471175
502.2688339680161
502.0243237354222
501.78565711341844
501.5531868856816
501.3272541751312
501.108187374033
500.8963011128091
500.69189527164826
500.49525403885053
500.3066450196794
500.12631839932936
499.9545061634118
499.791421379165
499.63725754037273
499.4921879787092
499.35636534395746
499.2299211553053
499.11296542564435
499.00558636045326
498.907850132537
498.8198007336169
498.741459903497
498.67282713722346
498.6138797703491
498.56457314208484
498.5248408357871
498.49459499592393
498.4737267203248
498.46210652622204
498.4595848883277
498.4659928468461
498.48114268295177
498.5048286589766
498.53682782031456
498.5769008558406
498.62479301342
498.68023506685324
498.7429443303772
498.81262571666065
498.88897283407107
498.9716691188639
499.06038899783294
499.1547990768497
499.25455935062894
499.35932442897683
499.46874477470885
499.5824679484285
499.7001398553929
499.8214059896936
499.9459126709942
500.07330826914875
500.2032444121235
500.33537717275397
500.46936822996224
500.6048860001447
500.74160673450274
500.879215578086
501.01740758636953
501.1558886953169
501.29437664116256
501.43260182647174
501.5703081293138
501.707253652638
501.8432114111821
501.9779699535464
502.1113339175097
502.243124517168
502.37317996083345
502.5013557989393
502.62752520153396
502.7515791652654
502.873426649999
502.9929946454325
503.1102281683058
503.22509019100227
503.33756150256477
503.4476405033744
503.5553429350091
503.66070154709865
503.76376570326516
503.86460092843595
503.96328839999796
504.0599243854679
504.1546196295773
504.2474986938973
504.33869925230414
504.42837134572244
504.516676599661
504.60378740807585
504.6898860871201
504.77516400239415
504.8598206733836
504.9440628588424
505.02810362690343
505.11216141371557
505.1964590744375
505.2812229303867
505.36668181605506
505.4530661296214
505.5406068905023
505.62953480736735
505.72007935993366
505.81246789779277
505.90692475941785
506.00367041429536
506.1029206309315
506.2048856733421
506.30976952846424
506.4177691667211
506.5290738377877
506.6438644034367
506.7623127091622
506.8845809960781
507.01082135439566
507.1411752195552
507.2757729118595
507.41473322024666
507.5581630306838
507.70615699951213
507.8587972718416
508.01615324487534
508.1782813758707
508.3452250342975
508.517014397615
508.69366638994825
508.87518466279704
509.0615596167419
509.25276846301193
509.44877532368156
509.649531369157
509.85497499150614
510.06503201211893
510.27961592212216
510.4986281538624
510.7219583816761
510.9494848501221
511.1810747278257
511.41658448503483
511.65586029298777
511.89873844324023
512.1450457851083
512.3946001793641
512.6472109663314
512.902679446541
513.160799372124
513.4213574471619
513.6841338353003
513.9489026729633
514.2154325865409
514.4834872119852
514.752825715361
515.0232033129346
515.2943717894595
515.5660800133948
515.8380744478629
516.1100996562135
516.3818988011082
516.6532141361289
516.9237874889819
517.1933607354651
517.4616762634251
517.7284774260158
517.9935089835913
518.2565175336347
518.5172519282354
518.7754636787051
519.0309073469665
519.2833409234206
519.5325261910796
519.7782290758103
520.0202199825402
520.2582741173414
520.4921717953589
520.721698734597
520.9466463356298
521.1668119473205
521.3819991186602
521.592017836848
521.7966847517595
521.9958233869556
522.189264337435
522.3768454544019
522.5584120173056
522.7338168933908
522.9029206849909
523.0655918647877
523.221706899259
523.3711503605697
523.5138150271259
523.6496019730104
523.7784206464836
523.9001889377337
524.0148332360251
524.1222884763773
524.2224981758861
524.3154144597731
524.4009980772277
524.4792184070726
524.5500534532694
524.613489830275
524.669522738237
524.7181559279801
524.7594016556942
524.7932806272541
524.819821932105
524.8390629666725
524.8510493473276
524.855834813004
524.8534811175583
524.8440579119783
524.827642616451
524.804320282289
524.7741834436913
524.7373319593639
524.6938728440169
524.6439200896924
524.5875944767789
524.5250233745178
524.4563405307977
524.3816858510326
524.3012051659205
524.2150499879158
524.123377256299
524.02634907079
523.9241324137183
523.8168988608469
523.7048242809916
523.5880885245978
523.4668751014351
523.3413708475824
523.211765581945
523.0782517526055
522.9410240733373
522.8002791506202
522.6562151015397
522.5090311629709
522.3589272924995
522.2061037615881
522.0507607416121
521.8930978834848
521.7333138916603
521.5716060933039
521.4081700034416
521.2431988869708
521.0768833184972
520.9094107409912
520.7409650243021
520.5717260245639
520.4018691455817
520.231564903322
520.0609784946686
519.8902693716263
519.7195908221513
519.5490895587734
519.3789053162803
519.2091704597731
519.0400096043991
518.8715392480952
518.7038674186589
518.5370933364595
518.3713070940739
518.2065893541215
518.0430110665646
517.8806332067403
517.7195065354051
517.5596713820847
517.4011574530406
517.2439836651708
517.0881580071258
516.9336774288817
516.7805277609443
516.6286836642602
516.4781086118138
516.3287549027933
516.1805637101008
516.0334651619024
515.8873784577034
515.7422120192513
515.5978636764465
515.4542208883358
515.3111609991615
515.1685515293252
515.026250501009
514.8841067981115
514.7419605601302
514.5996436095146
514.4569799118784
514.313786068353
514.1698718392041
514.0250406976604
513.8790904127545
513.7318136598906
513.5829986577334
513.4324298298836
513.2798884896586
513.1251535461587
512.9680022296454
512.8082108341237
512.6455554749884
512.4798128595271
512.3107610679716
512.138180342707
511.96185388315683
511.78156864379855
511.5971161327148
511.40829320803164
511.21490286955145
511.01675504286925
510.8136673532361
510.6054658864112
510.3919859337391
510.17307271873386
509.94858210251573
509.71838126549613
509.48234936270745
509.2403781502012
508.9923725800117
508.7382513612808
508.47794748524296
508.2114087119
507.93859801631123
507.65949399254106
507.37409121341426
507.08240054435095
506.7844494096835
506.4802820099931
506.1699594892084
505.85356005041166
505.5311790194675
505.20292885575634
504.86893910947805
504.52935632516073
504.1843438912102
503.83408183555593
503.4787665676453
503.11861056722904
502.7538420205736
502.38470440491204
502.01145602213603
501.6343694829211
501.25373114264437
500.8698404906302
500.4830094944759
500.09356190138544
499.70183249858746
499.3081663350846
498.9129179071471
498.51645031008337
498.1191343589451
497.72134768094634
497.3234737824733
496.92590109365955
496.52902199363575
496.13323181963545
495.7389278632006
495.34650835681447
494.95637145433824
494.56891420865617
494.18453154995507
493.8036152680513
493.42655300215426
493.0537272414481
492.68551433982276
492.3222835480392
491.9643960665601
491.6122041222055
491.26605007171844
490.92626553524775
490.59317056265854
490.26707283545556
489.94826690697835
489.6370334834082
489.3336387479669
489.038333730508
488.7513537245379
488.47291775354773
488.20322808834527
487.94246981686587
487.6908104677341
487.4483996886738
487.21536898069496
486.9918314887762
486.7778818495457
486.57359609627935
486.3790316213681
486.19422719619695
486.01920304814865
485.8539609942387
485.6984846306852
485.5527395775053
485.4166737770182
485.2902178449582
485.1732854727445
485.065773879256
484.96756431025284
484.87852258339217
484.7984996766611
484.72733235795613
484.66484385341687
484.6108445520018
484.5651327436966
484.52749538864305
484.4977089144531
484.47554003891736
484.46074661522914
484.45307849675487
484.4522784183432
484.4580828911232
484.4702231077512
484.488425855084
484.51241443127077
484.54190956428397
484.5766303289303
484.61629505938834
484.6606222543003
484.7093314714352
484.7621442088967
484.81878476984184
484.8789811077153
484.9424656490828
485.00897609131687
485.0782561725597
485.1500564115053
485.2241348146489
485.300257548788
485.3781995767878
485.45774525497535
485.5386888908153
485.6208352596927
485.70400007976934
485.78801044402957
485.87270520877956
485.95793533796837
486.0435642027625
486.12946783585664
486.2155351401178
486.30166805134877
486.3877816551078
486.47380425768813
486.5596774115313
486.6453558955096
486.73080765063503
486.8160136718948
486.90096785707664
486.98567681359805
487.0701596244778
487.1544475747718
487.2385838399318
487.32262313758974
487.4066313443042
487.4906850788773
487.57487125396057
487.6592865977708
487.7440371478159
487.8292377185929
487.91501134528494
488.00148870555313
488.08880752156233
488.17711194441233
488.2665519231762
488.3572825607441
488.4494634586419
488.5432580529787
488.6388329436542
488.7363572189963
488.83600177800275
488.9379386523518
489.0423403302818
489.14937908434814
489.259226304987
489.37205184179555
489.48802335438523
489.607305674611
489.7300601819367
489.8564441936235
489.9866103713521
490.12070614579443
490.2588731605569
490.40124673685193
490.5479553601573
490.69912019002635
490.8548545941337
491.01526370755766
491.1804440181707
491.3504829788891
491.5254586474553
491.7054393543317
491.89048339920436
492.0806387765472
492.2759429306241
492.476422540226
492.68209333333067
492.8929599317535
493.1090157257974
493.33024277886216
493.55661176187186
493.7880819173034
494.0246010525354
494.2661055621725
494.5125204789177
494.7637595525176
495.0197253562729
495.28030942052135
495.54539239246606
495.81484422166506
496.08852437044766
496.3662820484808
496.6479564706625
496.9333771374773
497.2223641369357
497.5147284671719
497.81027237873735
498.10878973564286
498.41006639416366
498.71388059837926
499.0200033914209
499.32819904140524
499.6382254810216
499.94983475972697
500.26277350749723
500.57678340906557
500.89160168757434
501.20696159657774
501.52259291936804
501.8382224745736
502.1535746269435
502.4683718022638
502.7823350054048
503.09518434052853
503.40663953245854
503.71642044817895
504.02424761748006
504.32984275181684
504.63292926043664
504.93323276277454
505.23048159614297
505.5244073178218
505.81474520069946
506.1012347216196
506.3836200415712
506.6616504769026
506.93508096079046
507.2036724941743
507.4671925853606
507.72541567755707
507.9781235636456
508.22510578749205
508.4661600310882
508.70109248687794
508.92971821464783
509.1518614823919
509.3673560905792
509.57604567921976
509.7777840171153
509.9724352727278
510.1598742661341
510.33998670154836
510.5126693799118
510.6778303910715
510.8353892850984
510.98527722231995
511.1274371016235
511.2618236665837
511.38840358905423
511.5071555299661
511.6180701771464
511.72115026003286
511.81641054121206
511.90387778473746
511.98359070125485
512.0555998699743
512.1199676375223
512.1767679937417
512.2260864245845
512.2680197422816
512.3026758929342
512.3301737416074
512.3506428350139
512.364223141896
512.3710647712503
512.3713276685903
512.3651812904735
512.3528042576003
512.3343839869137
512.3101163032477
512.2802050311203
512.2448615672698
512.2043044345829
512.1587588181213
512.1084560840158
512.0536332820606
511.99453263291144
511.9314010008253
511.8644893528793
511.7940522056297
511.72034706024016
511.64363382714396
511.5641742413485
511.4822312695488
511.39806851029414
511.31194958851376
511.2241375457215
511.13489422724825
511.0444796679089
510.95315147753314
510.8611642278166
510.7687688419544
510.6762119885502
510.58373548129185
510.49157568592585
510.39996293609494
510.3091209596039
510.2192663166419
510.1306078514822
510.04334615917054
509.9576730687477
509.87377114449436
509.79181320661075
509.71196187277553
509.63436912204224
509.55917588245404
509.48651164371876
509.41649409625086
509.34922879784864
509.2848088692474
509.2233147197623
509.1648138041197
509.1093604114584
509.05699548741507
509.0077464902001
508.96162728157157
508.91863805358435
508.87876529190646
508.84198177636546
508.8082466192464
508.77750534176874
508.74968998906934
508.7247192838405
508.7024988185117
508.68292128569647
508.6658667465409
508.65120293651273
508.6387856080274
508.6284589091639
508.62005579764366
508.6133984891765
508.6082989392193
508.60455935708967
508.60197275127535
508.60032350467213
508.5993879783605
508.5989351424065
508.59872723203637
508.598520427435
508.59806555531736
508.5971088102885
508.59539249390474
508.59265576928567
508.58863542903634
508.5830666741664
508.5756839017072
508.56622149870566
508.5544146402097
508.540000088818
508.5227169933324
508.5023076839916
508.4785184617479
508.45110037906693
508.41981000978325
508.3844102055781
508.3446708366867
508.30036951446976
508.2512922935233
508.19723435100434
508.13800064092203
508.0734065212539
508.00327835187346
507.9274540614067
507.84578368123397
507.7581298449533
507.6643682516799
507.5643880916252
507.4580924325519
507.3453985658662
507.22623831127703
507.1005582791266
506.96832008960865
506.82950054820253
506.68409177688125
506.53210130088536
506.37355209092544
506.2084825607767
506.0369465204486
505.8590130853177
505.674766541768
505.4843061700056
505.287746024909
505.08521467593033
504.8768549071646
504.6628233788304
504.443290251521
504.2184387747324
503.98846484133435
503.75357650978145
503.51399349591173
503.269946636266
503.0216773249845
502.76943692639617
502.51348616544254
502.2540944981155
501.99153946415356
501.7261060243462
501.4580858848133
501.18777681059714
500.9154819309108
500.64150903843307
500.36616988507325
500.08977947664994
499.8126553689011
499.53511696711496
499.2574848315116
498.98007999042596
498.7032232633157
498.4272345955785
498.15243240707224
497.87913295612987
497.6076497207699
497.3382927986738
497.0713683274187
496.8071779263917
496.54601816171754
496.28818003542915
496.03394849994953
495.78360199879126
495.5374120342051
495.29564276238267
495.0585506167553
494.82638395983565
494.599382763928
494.3777783208973
494.1617929810235
493.95163992079426
493.7475229393591
493.5496362833522
493.3581644997227
493.1732823160941
492.99515454803145
492.8239360325124
492.6597715868252
492.5027959920382
492.3531340001265
492.2109003637958
492.0761998880099
491.94912750214127
491.8297683516363
491.71819790807905
491.61448209648165
491.5186774386087
491.43083121115205
491.35098161755457
491.27915797227104
491.21538089629956
491.1596625229028
491.1120067125072
491.07240927572917
491.040858203451
491.0173339029985
491.00180943962135
490.99425078248777
490.9946170543722
491.0028607842837
491.0189281623329
491.0427592961664
491.07428846835296
491.113444394136
491.1601504789848
491.21432507549974
491.27588173935334
491.34472948392016
491.4207730331458
491.50391307210134
491.5940464945925
491.6910666472388
491.7948635696299
491.9053242303105
492.02233275832805
492.14577067005035
492.27551709114556
492.41144897386425
492.55344130987623
492.7013673388807
492.8550987531976
493.0145058985593
493.17945797133564
493.3498232123651
493.52546909744046
493.7062625243683
493.89206999644136
494.0827578021932
494.27819219133727
494.47823954676176
494.6827665524046
494.8916403567867
495.10472873195357
495.321900227612
495.5430243203296
495.7679715576645
495.9966136970504
496.2288238392709
496.4644765563427
496.7034480135555
496.9456160853874
497.19086046500985
497.43906276707276
497.6901066234586
497.9438777716907
498.20026413570514
498.45915589868537
498.72044556762
498.9840280292476
499.24980059708423
499.5176630491895
499.78751765637554
500.05926920067554
500.3328249839656
500.6080948266344
500.88499105610225
501.16342848490126
501.44332437806196
501.7245984097354
502.0071726091806
502.29097129633
502.5759210071124
502.8619504087514
503.1489902053103
503.43697303376445
503.72583335096147
504.01550731191344
504.30593263977886
504.5970484879061
504.88879529448957
505.18111463048564
505.47394904143505
505.76724188382735
506.0609371566895
506.3549793291762
506.6493131649706
506.9438835443261
507.23863528459765
507.53351296018093
507.82846072286054
508.12342212354304
508.4183399362915
508.7131559855215
509.00781097721546
509.302244335042
509.59639404228756
509.89019649057616
510.1835863363916
510.4764963664023
510.76885737252275
511.06059803759644
511.3516448325893
511.64192192615263
511.93135110730117
512.2198517218349
512.5073406230244
512.7937321370205
513.078938043447
513.3628675716922
513.6454274135061
513.9265217525341
514.2060523112815
514.4839184158157
514.7600170784082
515.0342430983206
515.3064891808691
515.5766460747959
515.8446027279005
516.1102464607403
516.3734631580298
516.6341374772676
516.8921530741536
517.1473928443654
517.3997391812512
517.6490742489113
517.8952802700575
518.1382398279579
518.3778361816773
518.6139535937386
518.8464776692962
519.075295705919
519.300297053125
519.5213734806957
519.7384195547925
519.9513330208978
520.160015192585
520.3643713450269
520.564311112146
520.7597488862477
520.9506042189539
521.136802222185
521.3182739679679
521.4949568858923
521.6667951570093
521.8337401029521
521.9957505691119
522.1527933007332
522.3048433107366
522.4518842379897
522.5939086947102
522.7309186017127
522.8629255101993
522.9899509088317
523.112026514889
523.2291945483372
523.3415079876053
523.4490308058494
523.5518381865293
523.6500167172422
523.743664560823
523.832891602747
523.9178195738231
523.9985821470755
524.0753250077735
524.1482058956901
524.2173946186605
524.2830730364554
524.345435014136
524.404686344233
524.4610446372941
524.5147391804315
524.5660107634849
524.6151114723023
524.6623044486842
524.7078636166897
524.7520733751782
524.7952282564911
524.8376325510867
524.8795998979346
524.9214528405471
524.963522348589
525.0061473050641
525.0496739591841
525.0944553451427
525.1408506672695
525.1892246522408
525.2399468691392
525.2933910182333
525.3499341894327
525.4099560915337
525.4738382535267
525.5419631994332
525.6147135982537
525.6924713906391
525.7756168938877
525.8645278869432
525.9595786772239
526.0611391512873
526.1695738114198
526.2852408003204
526.4084909161004
526.5396666199937
526.6791010393557
526.8271169687133
526.9840258717381
527.1501268870156
527.3257058404981
527.5110342676476
527.7063684483646
527.9119484578717
528.127997236838
528.3547196840187
528.5923017746118
528.8409097075062
529.1006890845823
529.3717641252824
529.6542369197483
529.9481867237922
530.2536692987608
530.5707162992064
530.8993347112364
531.2395063443324
531.5911873793555
531.9543079753603
532.3287719376597
532.7144564493125
533.1112118680269
533.518861590455
533.9372019857819
534.3660024003475
534.805005234842
535.2539260954323
535.7124540199794
536.1802517802314
536.6569562605101
537.142178913201
537.6355062911036
538.136500656385
538.644700665461
539.1596221287587
539.6807588441062
540.2075835022835
540.7395486631257
541.2760878003918
541.8166164133263
542.3605332025181
542.9072213073927
543.456049602396
544.0063740486875
544.5575390978915
545.1088791442583
545.6597200213852
546.2093805394711
546.7571740588353
547.3024100952865
547.8443959527592
548.3824383783954
548.9158452349812
549.4439271855048
549.9659993844147
550.4813831699806
550.9894077521288
551.4894118902866
551.980745555895
552.462771574241
552.9348672402564
553.3964259029739
553.8468585133539
554.2855951303133
554.7120863799787
555.1258048633387
555.5262465074993
555.9129318558236
556.2854072925244
556.6432461976323
556.986050028517
557.3134493242981
557.6251046296771
557.9207073349935
558.1999804296087
558.4626791659688
558.7085916319712
558.937539229619
559.149377058262
559.343994201025
559.5213139134053
559.6812937134504
559.8239253733103
559.9492348123782
560.0572818927164
560.1481601178198
560.2219962359344
560.2789497494015
560.3192123318763
560.3430071556659
560.3505881316974
560.3422390649233
560.3182727283767
560.2790298595759
560.2248780833854
560.1562107657161
560.0734458026129
559.9770243494589
559.8674094951975
559.7450848866474
559.6105533081171
559.4643352215867
559.3069672727999
559.1390007685286
558.9610001302806
558.7735413299314
558.577210313008
558.3726014155408
558.1603157803723
557.9409597786603
557.7151434423148
557.4834789131082
557.246578913991
557.005055247918
556.7595173291417
556.5105707516775
556.2588158995786
556.0048466035549
555.7492488481893
555.4925995336758
555.2354652955934
554.9784013858679
554.7219506178207
554.466642377969
554.2129917069842
553.9614984520589
553.7126464927137
553.4669030416518
553.2247180217381
552.9865235196409
552.7527333163295
552.5237424943479
552.2999271214501
552.0816440098473
551.8692305500444
551.6630046179395
551.4632645534725
551.2702892087793
551.084338063596
550.905651405492
550.7344505723072
550.5709382539015
550.4152988499959
550.2676988806447
550.1282874457879
549.9971967302658
549.8745425504513
549.760424938471
549.6549287599663
549.5581243613004
549.4700682420566
549.3908037486515
549.3203617848899
549.2587615352614
549.2060111967357
549.1621087148648
549.1270425202172
549.1007922613791
549.0833295309149
549.0746185809008
549.0746170248897
549.0832765233691
549.100543450039
549.1263595364666
549.1606624927637
549.2033866020587
549.2544632868023
549.3138216451767
549.3813889560581
549.4570911513346
549.5408532548767
549.6325997878085
549.7322551398867
549.8397439068609
549.9549911937833
550.0779228844547
550.2084658773956
550.3465482889125
550.4920996241126
550.6450509169665
550.8053348406004
550.9728857892127
551.1476399334148
551.3295352510409
551.5185115356243
551.7145103847824
551.9174751708285
552.1273509958621
552.3440846335125
552.5676244594628
552.7979203728636
553.0349237106905
553.2785871571376
553.5288646501796
553.7857112874236
554.0490832332063
554.3189376285779
554.5952325055865
554.8779267071809
555.1669798140077
555.4623520792413
555.7640043725564
556.0718981342957
556.3859953407114
556.7062584809817
557.0326505465534
557.3651350330485
557.703675954532
558.0482378696361
558.3987859188484
558.7552858720344
559.1177041850563
559.4860080642644
559.860165537528
560.2401455303985
560.6259179459715
561.0174537469172
561.4147250381118
561.8177051480887
562.2263687072359
562.6406917204862
563.0606516322807
563.4862273818466
563.9173994469285
564.3541498739997
564.7964622929605
565.2443219144715
565.6977155081875
566.1566313602032
566.6210592080558
567.0909901517348
567.566416539364
568.0473318264268
568.5337304074616
569.0256074192281
569.5229585145945
570.0257796068057
570.5340665840615
571.0478149944865
571.5670197017455
572.091674511851
572.6217717719859
573.1573019424275
573.6982531428933
574.2446106747865
574.7963565210613
575.3534688257515
575.9159213554747
576.4836829453545
577.0567169319046
577.6349805755666
578.2184244758417
578.806991982256
579.4006186048956
579.9992314284424
580.6027485335178
581.2110784290281
581.8241194991897
582.4417594689254
583.0638748913545
583.6903306610704
584.3209795568538
584.9556618174395
585.5942047538492
586.236422401845
586.8821152180299
587.5310698229489
588.1830587942836
588.8378405130242
589.4951590653454
590.154744202797
590.8163113632571
591.4795617548348
592.1441825045267
592.8098468730539
593.4762145368509
594.1429319377572
594.8096327007751
595.4759381202307
596.1414577145471
596.8057898494385
597.46852242893
598.1292336532132
598.7874928418202
599.4428613200281
600.0948933660458
600.7431372163941
601.3871361266912
602.0264294847236
602.6605539723544
603.2890447725038
603.911436817141
604.527266072028
605.1360708538408
605.7373931750261
606.3307801114236
606.9157851875557
607.4919697743331
608.058904493557
608.6161706234658
609.1633614996822
609.7000839059244
610.2259594488004
610.7406259109954
611.2437385772913
611.734971527919
612.2140188936933
612.6805960674126
613.1344408661489
613.5753146390969
614.0030033157143
614.4173183889618
614.8180978285869
615.2052069196958
615.5785390223072
615.9380162480574
616.2835900505014
616.6152417257448
616.932982820524
617.2368554451095
617.5269324885129
617.8033177336686
618.0661458706804
618.3155824067617
618.5518234720448
618.7750955208023
618.9856549279565
619.1837874812131
619.3698077695424
619.5440584691493
619.7069095285154
619.8587572543997
620.0000233008409
620.1311535635833
620.252616982804
620.3649042573204
620.4685264738438
620.564013655334
620.6519132329453
620.7327884464786
620.8072166785638
620.8757877279305
620.9391020271787
620.9977688105355
621.0524042372181
621.1036294763092
621.1520687594505
621.198347408052
621.2430898417985
621.2869175751716
621.3304472086675
621.3742884213999
621.4190419717851
621.4652977129716
621.5136326296324
621.5646089026941
621.6187720086818
621.67664886042
621.7387459956226
621.8055478196843
621.8775149089231
621.9550823804478
622.0386583345369
622.128622375033
622.2253242128097
622.3290823569364
622.4401828979111
622.5588783869591
622.685386814973
622.8198906943668
622.9625362468805
623.1134326999742
623.2726516938775
623.4402268008835
623.616153158392
623.8003872170082
623.9928466043864
624.193410104888
624.4019177547246
624.6181710520485
624.8419332811073
625.072929948999
625.3108493330728
625.5553431367226
625.8060272510332
626.0624826193834
626.3242562017481
626.590862035172
626.8617823866407
627.1364689942695
627.414344392407
627.6948033159512
627.9772141788741
628.2609206215818
628.5452431214783
628.8294806608383
629.1129124458151
629.3947996701925
629.6743873175366
629.9509059956264
630.2235737972264
630.4915981813563
630.7541778691087
631.0105047479121
631.2597657781021
631.5011448958211
631.7338249063703
631.956989362234
632.1698244200978
632.3715206713134
632.5612749404274
632.738292046573
632.901786522824
633.0509842890348
633.1851242740546
633.3034599834764
633.4052610093162
633.4898144783309
633.5564264360695
633.6044231640728
633.6331524278482
633.6419846533859
633.6303140301757
633.5975595390781
633.5431659038065
633.4666044651012
633.3673739769678
633.2450013246356
633.0990421640516
632.9290814829128
632.7347340835136
632.5156449878699
632.2714897658155
632.0019747872491
631.7068374001502
631.3858460362064
631.038800245909
630.6655306649848
630.2658989141211
629.8397974340924
629.3871492585954
628.9079077272596
628.4020561413988
627.869607365068
627.3106033741059
626.7251147560371
626.1132401637708
625.475105726049
624.8108644176988
624.1206953927132
623.4048032829879
622.6634174654539
621.8967913002855
621.1052013427233
620.288946531001
619.4483473528188
618.5837449928331
617.6955004635656
616.7839937219816
615.849622773891
614.8928027682753
613.9139650835868
612.913556408038
611.892037815774
610.8498838406458
609.7875815490778
608.7056296134803
607.6045373876491
606.4848239854922
605.3470173644681
604.1916534152429
603.0192750591209
601.8304313547061
600.6256766149612
599.405569535601
598.1706723357426
596.921549911828
595.658769005819
594.382897388662
593.0945030600607
591.7941534655861
590.4824147321486
589.159850922888
587.8270233124523
586.4844896836388
585.1328036464668
583.7725139807272
582.4041640028687
581.0282909579361
579.6454254371502
578.2560908217175
576.8608027535964
575.4600686340515
574.0543871509066
572.644247835419
571.2301306496643
569.8125056051427
568.3918324131412
566.9685601673592
565.5431270594316
564.115960128007
562.6874750419049
561.2580759176633
559.8281551716675
558.3980934070012
556.9682593350715
555.53900973193
554.1106894290269
552.6836313380405
551.2581565093677
549.8345742237079
548.4131821159501
546.9942663304781
545.5781017070191
544.1649519961782
542.7550701037367
541.3486983626171
539.9460688313553
538.5474036177932
537.1529152266436
535.7628069294794
534.3772731556124
532.9964999022632
531.620665162292
530.2499393674619
528.884485844967
527.5244612849888
526.1700162171494
524.8212954936797
523.4784387769984
522.1415810293638
520.8108530023553
519.4863817239976
518.1682909812973
516.8567017958582
515.5517328901299
514.2535011417993
512.9621220238902
511.6777100282683
510.4003790704002
509.1302428733373
507.86741532899345
506.6120108348724
505.36414460453216
504.1239329502778
502.89149353685895
501.66694560528174
500.45041016615266
499.24201016213965
498.0418705991268
496.85011864555486
495.66688369943034
494.4922974226509
493.3264937424733
492.16960882005225
491.0217809861164
489.883150644119
488.75386014146295
487.6340536096649
486.5238767745636
485.42347673785525
484.33300173139594
483.2526008458291
482.1824237351108
481.12262029845505
480.07334034121817
479.0347332163457
478.0069474481043
476.9901303398352
475.98442756744964
474.9899827604424
474.0069370724329
473.03542874347954
472.0755926564157
471.1275598894186
470.19145726707933
469.2674069122535
468.35552580085044
467.4559253216321
466.5687108430337
465.69398128901815
464.83182872602276
463.9823379630679
463.1455861669551
462.32164249429326
461.5105677419226
460.7124140172181
459.92722442975804
459.1550328057795
458.39586342667053
457.6497307925509
456.91663941187795
456.196583617939
455.48954741302646
454.7955043409245
454.1144173880863
453.44623891368013
452.7909106085777
452.14836348322507
451.51851788424955
450.9012835395995
450.2965596319194
449.704234899849
449.1241877669973
448.55628649822387
448.0003893826434
447.4563449425854
446.9239921676492
446.40316077303504
445.8936714813539
445.395336327017
444.90795898222103
444.43133510347263
443.96525269755864
443.5094925058929
443.0638284062271
442.62802783065564
442.20185219870723
441.7850573642764
441.3773940751356
440.97860844367017
440.5884424274051
440.20663431792843
439.8329192369296
439.46702963822474
439.1086958146712
438.757646408818
438.41360892614097
438.0763102496813
437.74547715485886
437.4208368232747
437.10211735438037
436.78904827394774
436.4813610383531
436.17878953368904
435.8810705686477
435.5879443601117
435.2991550104755
435.01445097581166
434.7335855240615
434.45631718243243
434.1824101731954
433.9116348370908
433.64376804358494
433.3785935872192
433.1159025693099
432.85549376430714
432.59717397015936
432.34075834203134
432.08607070870056
431.83294387092985
431.5812198812194
431.3307503045339
431.0813964597046
430.83302964116507
430.5855313206427
430.3387933283752
430.09271801344767
429.8472183829265
429.60221821947476
429.35765217716823
429.11346585534085
428.86961585034754
428.6260697851177
428.3828063163655
428.13981511935714
427.8970968501057
427.65466308489414
427.4125362372153
427.1707494522915
426.92934647928837
426.6883815213024
426.4479190632222
426.20803367763654
425.96880980906195
425.73034153681596
425.4927323169124
425.256094703421
425.0205500498378
424.786228191062
424.5532671065231
424.3218125649633
424.0920177513983
423.86404287684223
423.6380547715589
423.41422646286816
423.1927367386544
422.9737696976107
422.7575142871466
422.54416382989587
422.3339155397991
422.1269700287825
421.92353080510577
421.7238037645081
421.5279966753094
421.336318658577
421.1489796643493
420.96618994482327
420.7881595254162
420.61509767461644
420.4472123736012
420.2847097867014
420.12779373380886
419.9766651658071
419.8315216442027
419.6925568262421
419.5599599567266
419.43391536760686
419.3146019863812
419.20219285429647
419.09685465532135
418.99874725677716
418.90802326245114
418.82482757900857
418.74929699652824
418.6815597840357
418.6217353009317
418.56993362514083
418.5262551987608
418.49079049203533
418.46361968655816
418.44481237853023
418.43442730274603
418.43251207792156
418.43910297391835
418.45422470133605
418.47789022389054
418.51010059398106
418.5508448118317
418.6000997085563
418.6578298533978
418.7239874853312
418.79851246917343
418.881332276269
418.97236198978277
419.07150433463863
419.17864973213386
419.29367637921183
419.416450352344
419.54682573599507
419.6846447755816
419.82973805474955
419.9819246966749
420.1410125889805
420.30679863186896
420.47906900914916
420.65759948187105
420.8421557042858
421.03249356183096
421.2283595308208
421.4294910595158
421.63561697024136
421.8464578821002
422.06172665362635
422.28112884464656
422.50436319659883
422.7311221305718
422.9610922622553
423.1939549328371
423.4293867548395
423.6670601720397
423.90664403267476
424.1478041750478
424.3902040245887
424.63350520133775
424.87736813671125
425.1214526984243
425.3654188225451
425.6089271515953
425.8516396774577
426.09322038778873
426.3333359146508
426.5716561841028
426.80785506553855
427.041611019585
427.27260774336935
427.5005348119553
427.7250883146938
427.94597148520256
428.16289532362896
428.37557920975684
428.58375150548306
428.787150145204
428.98552321264924
429.17862950271797
429.3662390669036
429.54813374089724
429.7241076530222
429.89396771225057
430.05753407465994
430.21464058725127
430.3651352080966
430.5088804017583
430.6457535088904
430.7756470889369
430.8984692348567
431.014143858841
431.1226109480253
431.2238267891916
431.3177641615232
431.40441249660165
431.48377800497764
431.5558837686611
431.6207697988652
431.6784930584313
431.72912744848685
431.7727637590257
431.80950958327196
431.83948919579825
431.8628433944742
431.8797293063916
431.890320157956
431.8948050094107
431.89338845413306
431.88629028312215
431.8737451152096
431.8560019937175
431.8333239503305
431.8059875369069
431.77428232607656
431.7385103816767
431.6989857001844
431.6560336243984
431.60999023074567
431.56120169175523
431.51002361540606
431.45682036315895
431.40196434847485
431.34583531759
431.2888196143381
431.2313094309547
431.1737020469322
431.1163990580857
431.0598055980376
431.00432955425754
430.95038078067233
430.89837030891186
430.84870956046615
430.80180956208414
430.7580801666561
430.7179292817649
430.681762108086
430.64998038982617
430.62298167940736
430.60115861856303
430.5848982379483
430.57458127734986
430.5705815285247
430.57326520255174
430.5829903234777
430.6001061500082
430.6249526268794
430.65785986739013
430.69914766847404
430.7491250595741
430.80808988639075
430.87632843048135
430.9541150655978
431.04171195146876
431.1393687655427
431.24732247307116
431.3657971358407
431.49500375968506
431.6351401806332
431.78639098940636
431.94892749384684
432.12290771872347
432.3084764422793
432.50576526876216
432.71489273591163
432.93596445604703
433.16907328919007
433.4142995465997
433.6717112230158
433.94136425583497
434.2233028093427
434.51755958207457
434.82415613528764
435.143103240445
435.4744012435781
435.81804044437064
436.1740014877009
436.5422557652742
436.9227658249549
437.3154857854643
437.7203617541501
438.1373322455113
438.5663285981518
439.0072753878609
439.4600908345799
439.9246872011023
440.4009711814352
440.8888442768506
441.3882031578167
441.8989400100938
442.42094286328364
442.9540959001026
443.4982797446807
444.0533717283564
444.61924613161995
445.1957744009511
445.7828253394991
446.3802652707981
446.98795817493084
447.6057657967822
448.2335477262941
448.8711614508408
449.5184623800366
450.175303843564
450.84153706275583
451.5170110966319
452.20157276319725
452.8950665370521
453.59733442450454
454.3082158174924
455.0275473277589
455.7551626027412
456.49089212469244
457.2345629947719
457.9859987040638
458.74501889362057
459.51143910570414
460.2850705284405
461.0657197360661
461.853188426875
462.6472731609235
463.44776509955875
464.25444974887796
465.06710670926304
465.88550943320803
466.7094249937184
467.5386138655066
468.3728297210798
469.2118192436533
470.05532195869466
470.9030700858027
471.7547884125161
472.6101941915232
473.46899706257517
474.33089900023947
475.19559428844286
476.0627695225167
476.9321036393303
477.80326797602487
478.67592635776504
479.5497352147733
480.42434372877983
481.29939400894267
482.1745212972459
483.0493542032598
483.9235149679426
484.7966197559061
485.6682789753072
486.5380976243634
487.4056756633924
488.2706084112134
489.1324869646685
489.99089863989013
490.8454274338251
491.69565450441263
492.5411586677185
493.3815169102395
494.21630491453055
495.0450975962539
495.8674696507606
496.6829961072632
497.49125288862456
498.29181737489523
499.0842689688181
499.86818966144216
500.64316459597
501.4087826280732
502.1646368810199
502.9103252939312
503.6454511614219
504.36962366285786
505.0824583795176
505.78357779813166
506.47261179950453
507.1491981310271
507.81298286194664
508.463620820406
509.1007760113531
509.72412201451266
510.3333423617216
510.92813089303553
511.5081920910654
512.0732413930145
512.6230054800382
513.1572225437616
513.675642529931
514.1780273592583
514.6641511255833
515.1338002715531
515.5867737420797
516.022883115925
516.4419527158551
516.8438196978572
517.2283341200326
517.5953589918479
517.9447703044239
518.2764570426044
518.5903211796037
518.8862776550698
519.1642543374073
519.4241919712265
519.6660441106962
519.8897770395606
520.0953696786488
520.2828134817979
520.4521123210716
520.6032823620442
520.7363519299146
520.851361367306
520.9483628846484
521.0274204039565
521.088609396702
521.1320167163118
521.1577404257213
521.1658896204727
521.1565842480021
521.1299549237615
521.0861427447317
521.0252991007326
520.9475854838498
520.8531732961943
520.742243656132
520.6149872030695
520.4716039008771
520.3123028399151
520.137302037559
519.9468282371197
519.7411167051363
519.5204110269916
519.2849629006907
519.0350319285424
518.7708854064781
518.49279811076
518.2010520817536
517.8959364044056
517.5777469850777
517.246786324402
516.9033632858037
516.5477928592891
516.1803959200339
515.8014989813715
515.4114339419524
515.0105378269564
514.5991525231882
514.1776245078659
513.7463045709711
513.3055475309217
512.8557119433026
512.3971598024743
511.93025623595395
511.45536919145087
510.9728691164316
510.4831286301207
509.98652218781564
509.4834257374379
508.97421636834133
508.45927195245497
507.9389707778666
507.4136911750468
506.88381113599894
506.34970792669833
505.81175769333134
505.2703350628876
504.72581273860294
504.1785610907544
503.628947743326
503.07733715706445
502.5240902094869
501.96956377245914
501.4141102880471
500.8580773434385
500.30180724576275
499.745636597667
499.18989587451074
498.63490900402235
498.08099294926785
497.52845729583146
496.9776038442048
496.42872620848516
495.88210942250566
495.3380295545213
494.79675333156507
494.2585377745849
493.7236298454396
493.1922661068135
492.6646723961571
492.1410635148573
491.6216429338701
491.10660251697806
490.59612226278284
490.0903700664788
489.58950150241924
489.0936596283675
488.6029748121616
488.1175645814061
487.6375334967367
487.16297304920636
486.6939615824673
486.23056424054596
485.77283294195
485.3208063806974
484.87451005473156
484.43395632211036
483.99914448528386
483.5700609037544
483.1466791353994
482.72896010670524
482.31685231209576
481.9102920424382
481.5092036426803
481.11349979851065
480.7230818518533
480.33784014481137
479.95765439150546
479.582394077178
479.21191888381856
478.84607914143794
478.484716304049
478.1276634493697
477.77474580125613
477.42578127391414
477.0805810369737
476.7389501003396
476.4006879175133
476.0655890060065
475.7334435834041
475.40403821744906
475.07715648840554
474.75257966195556
474.43008737093163
474.10945830421457
473.7904709010917
473.4729040493072
473.1565377849658
472.84115399240847
472.52653710216015
472.21247478502744
471.89875864040425
471.58518487686865
471.2715549831774
470.9576763877589
470.6433631047819
470.32843636489986
470.0127252288048
469.6960671817262
469.378308707054
469.0593058372659
468.73892468043715
468.4170419206991
468.0935452910559
467.7683340170311
467.44131922973133
467.11242434698664
466.78158542124896
466.4487514529302
466.11388466792215
465.7769607582285
465.4379690848214
465.0969128418614
464.7538091814192
464.4086892979116
464.06159847161337
463.7125960708025
463.3617555122868
463.0091641801254
462.65492330238834
462.29914778590694
461.9419660091143
461.5835195732217
461.2239630121169
460.86346346152123
460.5022002880888
460.14036467925604
459.7781591947787
459.4157972810341
459.05350274931936
458.691509219457
458.33005953006074
457.9694051168984
457.60980536093973
457.2515269078069
456.8948429604274
456.5400325467712
456.1873797647134
455.8371730061743
455.4897041627237
455.14526781495323
454.8041604080432
454.46667941603187
454.1331224973802
453.8037866444546
453.4789673295423
453.1589576500304
452.8440474754672
452.53452259923665
452.2306638975963
451.93274649890355
451.64103896585743
451.3558024935186
451.07729012581564
450.8057459932294
450.5414045743311
450.28448998383914
450.03521528985215
449.7937818628364
449.56037875884084
449.3351821393152
449.1183547298107
448.9100453197083
448.7103883049737
448.51950327573996
448.3374946503106
448.16445135709125
448.0004465658986
447.84553746992907
447.69976511951614
447.5631543086795
447.43571351530693
447.31743489562405
447.208294333395
447.1082515440374
447.01725023362684
446.9352183125657
446.8620681634944
446.7976969627885
446.7419870547288
446.69480637721665
446.6560089376857
446.62543533764153
446.60291334409305
446.58825850598083
446.5812748135694
446.5817553985971
446.58948327275306
446.6042321018449
446.6257670128446
446.653845430812
446.6882179425259
446.72862918350734
446.7748187450547
446.826522097873
446.8834715288376
446.9453970874328
447.01202753845615
447.08309131757136
447.1583174862193
447.2374366823624
447.32018206348647
447.40629023818593
447.4955021826915
447.58756413878865
447.6822284896656
447.77925461026155
447.8784096887435
447.97946951579473
448.0822192384854
448.1864540756013
448.29197999145475
448.39861432542705
448.5061863747592
448.6145379282834
448.72352374897287
448.83301200349075
448.94288463727906
449.0530376940287
449.16338157865016
449.273841263069
449.3843564343714
449.49488158505187
449.6053860453679
449.71585395789435
449.8262841944693
449.9366902159687
450.04709987569623
450.15755516744656
450.26811191956244
450.37883943661217
450.4898200905763
450.60114886361373
450.7129328446088
450.82529068186074
450.9383519944373
451.0522567449087
451.1671545763432
451.2832041165343
451.4005722525129
451.51943337853754
451.6399686208418
451.76236504243275
451.886814831244
452.01351447500144
452.14266392619425
452.2744657605145
452.40912433209195
452.5468449288576
452.6878329313756
452.8322929784672
452.9804281427969
453.13243911940464
453.2885234300585
453.44887464621183
453.61368163328586
453.78312781892436
453.9573904877215
454.1366401047708
454.3210396702203
454.51074410676375
454.7058996817277
454.9066434652624
455.1131028260467
455.32539496574304
455.54362649321934
455.7678930393537
455.9982789130204
456.23485679866434
456.4776874957312
456.72681970002355
456.98228982684606
457.24412187564417
457.51232733568247
457.7869051321265
458.06784161170543
458.3551105669792
458.64867329808436
458.94847871072903
459.2544634490951
459.56655206221205
459.88465720230704
460.2086798535523
460.538509589557
460.8740248579191
461.2150932901165
461.56157203495815
461.9133081137495
462.2701387952964
462.6318919889186
462.9983866536304
463.36943322161625
463.7448340341637
464.12438378826374
464.5078699921606
464.8950734281948
465.28576862131814
465.6797243116881
466.07670392981777
466.47646607283383
466.87876498048627
467.2833510096597
467.6899711062406
468.0983692732638
468.50828703433166
468.9194638913952
469.33163777603914
469.74454549339
470.1579231578561
470.5715066201064
470.98503188482255
471.398235518776
471.8108550488279
472.2226293495661
472.63329902045103
473.04260675247076
473.45029768428935
473.8561197478297
474.2598240033122
474.66116496382585
475.059900909515
475.4557941914576
475.8486115253404
476.2381242750827
476.62410872662724
477.00634635214743
477.38462406490845
477.7587344649921
478.1284760761393
478.4936535740002
478.8540780060507
479.2095670033969
479.5599449846323
479.90504335187325
480.2447006790646
480.57876289260355
480.90708344428
481.22952347657684
481.5459519803813
481.85624594509596
482.16029050111524
482.4579790546431
482.7492134147829
483.03390391277617
483.3119695132285
483.583337917096
483.84794565611804
484.10573817832494
484.3566699242483
484.60070439350665
484.8378142014217
485.0679811252781
485.29119613985193
485.5074594418578
485.7167804629738
485.91917787108747
486.11467955941816
486.3033226232123
486.4851533237339
486.6602270392505
486.8286082027168
486.9903702259351
487.1455954099761
487.29437484157705
487.4368082752618
487.5730040009796
487.7030786970635
487.82715726829883
487.94537266888995
488.0578657101267
488.16478485264446
488.2662859832782
488.36253217653353
488.45369344069616
488.5399464486915
488.6214742539192
488.6984659913567
488.77111656424586
488.8396263167173
488.90420069274074
488.9650498818044
489.02238845176544
489.0764349693258
489.12741160862777
489.1755437485298
489.22105955918084
489.2641895785353
489.3051662794683
489.34422362822716
489.3815966350027
489.417520897405
489.4522321376409
489.48596573426624
489.5189562494372
489.55143695263297
489.5836393418517
489.6157926633425
489.6481234309621
489.68085494625683
489.7142068203515
489.74839449870484
489.78362878984166
489.82011539921206
489.8580544693361
489.8976401273504
489.93906004100785
489.98249498415385
490.02811841273785
490.0760960524177
490.1265854987779
490.1797358312217
490.23568724163016
490.29457067885136
490.3565075100118
490.42160919963163
490.48997700754836
490.56170170660624
490.63686332104237
490.7155308864586
490.7977622321537
490.88360378654875
490.97309040648696
491.06624523118484
491.1630795616126
491.2635927660848
491.36777221286036
491.4755932305101
491.58701909670305
491.7020010559458
491.82047836674803
491.9423783786455
492.067616639428
492.1960970328137
492.3277119466954
492.46234247195423
492.5998586317492
492.74011964113345
492.8829741967998
493.0282607966955
493.1758080891606
493.3254352511929
493.4769523953939
493.6301610050745
493.7848543969205
493.9408182105074
494.0978309238568
494.2556643940918
494.4140844221454
494.5728513403863
494.73172062196335
494.8904435105726
495.0487676692572
495.20643784675485
495.36319655983897
495.5187847900113
495.67294269279756
495.82541031783234
495.9759283379896
496.12423878576874
496.2700857949305
496.4132163452474
496.5533810082715
496.6903346920203
496.82383738241487
496.95365487920117
497.07955952400295
497.2013309181312
497.31875662781584
497.4316328745045
497.53976520784573
497.64296915900366
497.7410708719671
497.83390771053786
497.9213288387297
498.0031957723144
498.0793828992829
498.14977796706785
498.2142825344514
498.27281238614137
498.3252979080814
498.37168442168075
498.4119324752588
498.44601809111674
498.47393296679587
498.4956846292205
498.5112965405689
498.52080815486295
498.5242749243954
498.52176825526044
498.5133754114335
498.49919936699746
498.4793586062699
498.453986871821
498.423232860564
498.387259868259
498.346245382992
498.3003806283902
498.24987005752615
498.1949307986542
498.1357920541367
498.0726944541248
498.0058893667698
497.93563816693114
497.8622114654929
497.78588830155064
497.70695529992827
497.6257057966805
497.5424389354128
497.45745873742
497.3710731488492
497.28359306825223
497.19533135796
497.1066018428151
497.017718299962
496.9289934435004
496.84073790783543
496.75325923358434
496.66686085989943
496.5818411271241
496.4984922937616
496.4170995716882
496.3379401834424
496.2612824453511
496.18738488022353
496.1164953633085
496.04885030514004
495.9846738747972
495.9241772669384
495.8675580157981
495.8149993591778
495.76666965529006
495.7227218551254
495.68329303285094
495.64850397657233
495.6184588415493
495.5932448676797
495.5729321628142
495.5575735531969
495.5472045020378
495.54184309691243
495.54149010640435
495.5461291061325
495.5557266739619
495.57023265387534
495.5895804876712
495.6136876133769
495.6424559289263
495.67577231933217
495.7135092453094
495.75552539103455
495.8016663684493
495.8517654752695
495.9056445036209
495.96311459596166
496.0239771447542
496.0880247321848
496.15504210601443
496.2248071874039
496.2970921064273
496.37166426091903
496.4482873942127
496.52672268718504
496.60672985995467
496.6880682785533
496.77049806185494
496.8537811839919
496.9376825674966
497.0219711624765
497.10642100723726
497.19081226592147
497.2749322388072
497.35857634093577
497.4415490447883
497.52366478283324
497.6047488058708
497.6846379932258
497.7631816110572
497.84024201537864
497.9156952967121
497.98943186358076
498.0613569622978
498.1313911307722
498.19947058442006
498.26554753269784
498.3295904251828
498.39158412650056
498.45153001976024
498.5094460384672
498.56536662717406
498.6193426314016
498.6714411176095
498.7217451242299
498.7703533450453
498.8173797464937
498.86295312076044
498.90721657681
498.95032697186804
498.99245428617553
499.0337809440876
499.0745010847661
499.11481978591473
499.1549522441866
499.1951229160528
499.2355646230466
499.276517625418
499.3182286683449
499.3609500049461
499.4049384003467
499.45045412105486
499.49775991399576
499.54711997956707
499.59879894296523
499.6530608279617
499.71016803727707
499.7703803436564
499.83395389569955
499.90114024239233
499.972185380121
500.0473288257691
500.12680271933533
500.2108309593061
500.2996283738324
500.3933999305656
500.4923399877873
500.5966315892663
500.7064458050438
500.82194112008557
500.94326287248174
501.07054274263777
501.20389829463295
501.34343257066837
501.48923373926874
501.64137479766504
501.79991332853814
501.96489131106483
502.13633498598585
502.3142547741918
502.4986452481017
502.6894851548944
502.8867374904735
503.0903496228574
503.3002534635207
503.5163656850309
503.7385879831746
503.9668073816458
504.2008965772098
504.4407143231623
504.6861058488169
504.93690331266674
505.19292628678096
505.4539822699355
505.7198672269276
505.9903661514943
506.2652536502552
506.54429454511944
506.82724449161003
507.11385061059957
507.4038521309816
507.69698104085853
507.9929627448699
508.2915167253649
508.59235720521485
508.89519381011564
509.19973222824336
509.5056748652468
509.81272149271285
510.12056988837793
510.4289164664684
510.7374568965993
511.04588670971987
511.3539018897313
511.66119944957353
511.9674779907587
512.2724382454535
512.5757836002673
512.8772206009702
513.1764594375016
513.4732144087671
513.767204366897
514.0581531406784
514.3457899379579
514.6298497268872
514.9100735959577
515.186209092805
515.4580105418062
515.7252393405788
515.987664235553
516.2450615768472
516.4972155527603
516.7439184042647
516.9849706199336
517.2201811117548
517.44936737235
517.6723556141636
517.8889808911572
518.0990872035431
518.302527586107
518.4991641807281
518.6888682936727
518.8715204381971
519.047010362991
519.2152370669608
519.376108800865
519.5295430563791
519.6754665431483
519.8138151543443
519.9445339212288
520.067576957263
520.1829073922728
520.2904972970998
520.3903275990843
520.4823879886924
520.5666768175919
520.6432009884664
520.7119758368618
520.7730250053936
520.8263803106267
520.8720816028786
520.9101766191402
520.9407208292539
520.9637772754968
520.9794164057305
520.9877159003313
520.9887604931591
520.9826417868788
520.9694580629596
520.9493140866872
520.9223209074812
520.8885956547686
520.8482613296263
520.8014465923791
520.7482855464242
520.6889175185357
520.6234868358167
520.5521425993841
520.4750384548486
520.3923323596512
520.3041863472976
520.2107662885683
520.1122416497923
520.0087852483146
519.9005730053249
519.787783696241
519.6705986988362
519.5492017393361
519.4237786366707
519.2945170450407
519.1616061949386
519.0252366327782
518.8855999592784
518.7428885667481
518.5972953753943
518.4490135687693
518.2982363284914
518.1451565683972
517.989966668295
517.8328582074407
517.6740216978417
517.5136463175351
517.3519196439862
517.1890273877962
517.0251531269768
516.8604780420667
516.6951806523334
516.5294365533149
516.3634181558992
516.1972944271339
516.0312306329882
515.8653880833244
515.699923879368
515.5349906639877
515.370736375117
515.2073040026548
515.0448313491704
514.8834507947652
514.7232890664721
514.5644670126009
514.4070993824914
514.2512946121477
514.097154616165
513.9447745863645
513.7942427975902
513.6456404211984
513.4990413468124
513.3545120128825
513.2121112465499
513.0718901133242
512.9338917771165
512.7981513711721
512.6646958804579
512.5335440360599
512.4047062222221
512.2781843966915
512.153972025118
512.0320540303252
511.9124067573301
511.7949979549557
511.67978677482364
511.5667237884447
511.45575102308555
511.3468020170937
511.2398018953703
511.13466746563427
511.03130733601915
510.9296220544121
510.8295042698606
510.73083891634616
510.6335034191579
510.53736792402503
510.44229554912516
510.3481426600459
510.25475916775264
510.16198884959573
510.0696696933553
509.9776342642137
509.88571009441404
509.79372009527816
509.7014829911691
509.60881377492143
509.51552418417367
509.42142319789326
509.32631755223616
509.23001227475703
509.13231123593334
509.0330177169029
508.93193499222843
508.82886692639323
508.72361858260587
508.61599684236904
508.5058110342015
508.3928735698122
508.27700058592075
508.15801258981566
508.03573510665643
507.90999932648754
507.78064274883906
507.6475098227676
507.51045258018206
507.36933126019846
507.22401492217864
507.07438204509384
506.9203211108389
506.7617311690826
506.59852238125956
506.43061654133504
506.25794757100215
506.0804619870118
505.8981193383615
505.71089261114446
505.5187685989369
505.32174823667845
505.11984689609216
504.9130946407807
504.7015364392291
504.4852323340765
504.26425756616277
504.03870265196633
503.80867341318867
503.5742909574064
503.3356916089082
503.0930267890736
502.8464628458903
502.59618083238144
502.34237623385764
502.0852586440892
501.8250513907032
501.56199111034624
501.29632727440753
501.0283216663215
500.75824781171593
500.48639036292167
500.2130444396162
499.9385149275598
499.6631157375422
499.3871690268684
499.1110043859359
498.83495799263767
498.5593717375154
498.284592322763
498.0109703383777
497.73885931895995
497.46861478474665
497.2005932705331
496.93515134633765
496.67264463383464
496.41342682263655
496.15784869049105
495.906257131475
495.6589941962726
495.4163961486137
495.17879254195736
494.946505320499
494.71984794853785
494.4991245721379
494.2846292168951
494.0766450255231
493.87544353881225
493.6812840233316
493.4944128490374
493.3150629197216
493.14345315901477
492.97978805444336
492.82425726182237
492.6770352719951
492.5382811416332
492.4081382895258
492.2867343595202
492.17418115096524
492.070574617153
491.9759949318923
491.8905066239702
491.81415877886224
491.74698530669826
491.68900527514353
491.6402233054896
491.6006300299807
491.5702026081065
491.54890529927684
491.53669008896503
491.5334973651056
491.53925664125256
491.5538873227226
491.57729951169955
491.6093948470598
491.65006737443235
491.6992044418218
491.75668761596864
491.82239361444533
491.89619524841646
491.9779623710259
492.06756282638145
492.1648633940679
492.26973072404013
492.38203225669827
492.5016371230377
492.6284170199322
492.76224705577545
492.90300656187225
493.05057986515436
493.2048570180134
493.365734481232
493.53311575616254
493.70691196249544
493.88704235814237
494.07343479791155
494.2660261278663
494.4647625126316
494.6695996933769
494.88050317469566
495.0974483390212
495.3204204875836
495.549414807274
495.7844362632266
496.02549941747367
496.27262817461263
496.52585545586385
496.78522280324154
497.0507799159775
497.32258412173684
497.60069978546596
497.8851976589493
498.17615417440675
498.47365068574123
498.77777266135246
499.08860883271427
499.40625030316426
499.7307896216011
500.0623198260061
500.40093346186745
500.7467215807418
501.09977272436186
501.460171899849
501.82799955161255
502.2033305354909
502.58623310066224
502.9767678848151
503.3749869279674
503.7809327102091
504.1946372184806
504.61612104734684
505.04539253858565
505.4824469642539
505.92726575767966
506.37981579656025
506.8400487420538
507.30790043748414
507.7832903699199
508.26612119748967
508.75627834498295
509.25362967000257
509.7580252015422
510.26929695249163
510.7872588071537
511.311706484433
511.84241757699715
512.379151666336
512.9216505132696
513.4696383230635
514.0228220839285
514.5808919773352
515.143521858278
515.7103698032525
516.2810787234015
516.8552770399313
517.4325794185999
518.0125875598225
518.5948910407461
519.1790682054155
519.764687098917
520.351306441196
520.9384766361162
521.5257408111952
522.1126358833761
522.6986936461624
523.2834418734017
523.8664054349758
524.4471074196118
525.0250702600862
525.599816856188
526.1708716908598
526.737761935019
527.3000185366636
527.8571772900589
528.4087798809873
528.9543749042268
529.4935188495733
530.0257770529666
530.5507246094946
531.0679472452935
531.5770421456353
532.0776187367114
532.5692994189163
533.0517202497912
533.524531574939
533.9873986053993
534.4400019402418
534.8820380335269
535.3132196051117
535.7332759950807
536.1419534618669
536.5390154243566
536.9242426484678
537.2974333789075
537.6584034170442
538.0069861460645
538.3430325047766
538.6664109116088
538.9770071405338
539.274724150813
539.5594818726361
539.831216950877
540.0898824492878
540.3354475175246
540.5678970234485
540.7872311531947
540.9934649815358
541.1866280151169
541.3667637111563
541.5339289742303
541.6881936337705
541.8296399049373
541.9583618355005
542.0744647413126
542.1780646328931
542.2692876355995
542.3482694057491
542.415154544954
542.4700960148485
542.5132545542984
542.5447981010595
542.5649012197258
542.5737445376828
542.57151419067
542.5584012794515
542.5346013389876
542.5003138213912
542.4557415938298
542.4010904524367
542.3365686531196
542.2623864599917
542.1787557120197
542.0858894083276
541.9840013125718
541.8733055767291
541.7540163845601
541.6263476148704
541.4905125245293
541.3467234511028
541.1951915348803
541.036126460011
540.8697362144526
540.6962268684433
540.515802371155
540.3286643651578
540.1350120183697
539.9350418732267
539.7289477127691
539.5169204432541
539.299147992798
539.0758152255198
538.8471038706584
538.613192466148
538.3742563161
538.1304674615584
537.8819946637963
537.6290033993836
537.3716558662899
537.1101110002521
536.8445245006452
536.5750488651576
536.3018334326529
536.0250244336626
535.7447650479485
535.4611954685495
535.1744529717282
534.8846719922726
534.5919842036071
534.2965186021521
533.9984015953867
533.6977570930704
533.3947066010204
533.0893693168086
532.7818622267741
532.4723002037503
532.1607961048878
531.8474608689512
531.5324036124799
531.215731724244
530.897550957436
530.5779655190466
530.2570781558576
529.9349902364614
529.6118018287091
529.2876117720141
528.9625177439332
528.6366163204721
528.3100030295863
527.9827723973804
527.6550179865204
527.3268324263423
526.9983074341644
526.6695338273398
526.3406015256712
526.0115995438767
525.6826159738155
525.3537379561845
525.0250516414465
524.6966421397999
524.3685934600702
524.0409884374608
523.7139086501384
523.3874343246533
523.0616442303174
522.7366155627026
522.4124238165087
522.0891426480713
521.7668437278323
521.4455965831581
521.1254684320211
520.8065240081237
520.4888253780948
520.1724317513923
519.8573992836588
519.5437808743526
519.2316259595409
518.9209803008093
518.6118857713467
518.3043801403312
517.9984968568137
517.6942648344198
517.391708238319
517.0908462760128
516.7916929934986
516.4942570783494
516.1985416712679
515.9045441876846
515.6122561509832
515.3216630389416
515.0327441449252
514.745472455235
514.459814543925
514.1757304863771
513.8931737928694
513.6120913633655
513.3324234647633
513.0541037317835
512.7770591926045
512.5012103202876
512.2264711109682
511.95274918967425
511.67994594449624
511.40795668973783
511.1366708585778
510.86597222565223
510.5957391598213
510.3258449072168
510.0561579045229
509.7865421223034
509.5168574380322
509.2469600383108
508.97670284960645
508.7059359966797
508.43450728773996
508.1622627252561
507.88904704120745
507.61470425535805
507.33907825495425
507.06201339408295
506.78335511076324
506.5029505596458
506.2206492580368
505.93630374287784
505.6497702362209
505.36090931664427
505.0695865939384
504.77567338429316
504.4790473831385
504.1795933327148
503.8772036813608
503.57177923147003
503.2632297730637
502.95147469993765
502.636443605322
502.3180768539935
501.99632612783273
501.6711549418511
501.3425391277287
501.0104672819744
500.6749411759528
500.33597612510664
499.9936013148122
499.6478600804711
499.29881013957123
498.9465237735975
498.59108795785966
498.232604437517
497.87118974831014
497.5069751807215
497.14010668651275
496.770744726808
496.39906406110265
496.0252534767945
495.6495154591152
495.27206580164267
494.89313315785154
494.51295853440956
494.13179472718144
493.74990570119724
493.3675659161405
492.9850595991745
492.6026799672027
492.220728400904
491.83951357312617
491.4593505344841
491.0805597592716
490.7034661550395
490.32839803944876
489.95568608820633
489.5856622580744
489.2186586891098
488.85500659041907
488.49503511382346
488.13907021997215
487.78743354157484
487.4404412485071
487.0984029195665
486.76162042565585
486.430386829211
486.10498530467686
485.78568808482856
485.4727554377083
485.1664346788778
484.86695922357404
484.57454768323635
484.2894030107372
484.01171169849755
483.7416430334692
483.4793484127613
483.2249607234402
482.9785937897807
482.74034189096665
482.5102793519153
482.28846020958355
482.0749179568195
481.86966536551097
481.6726943904446
481.4839761549477
481.30346101905
481.1310787305185
480.9667386587463
480.8103301111046
480.66172273097504
480.52076697630264
480.3872946771168
480.26111967010553
480.1420385079791
480.0298312409757
479.9242622675176
479.82508125069114
479.73202409688275
479.64481399264184
479.56316249559467
479.4867706749543
479.41533029690805
479.3485250499809
479.2860318053183
479.22752190666904
479.17266248470173
479.1211177901973
479.0725505405901
479.02662327429243
478.98299970722445
478.94134608592975
478.9013325316408
478.86263436974554
478.8249334391816
478.78791937634946
478.7512908682039
478.7147568692571
478.6780377772736
478.6408665624983
478.60298984534984
478.56416891775945
478.5241807036949
478.48281865476724
478.43989357716026
478.3952343864408
478.34868878712285
478.30012387428457
478.2494266550738
478.19650448840923
478.1412854415728
478.08371856272254
478.0237740687394
477.961443448213
477.8967394797251
477.82969616589224
477.7603685839175
477.6888326536896
477.615184824837
477.5395416845416
477.462039488263
477.38283361581836
477.30209795556897
477.22002421976566
477.1368211944103
477.0527139272672
476.96794285788167
476.8827628936793
476.7974424364317
476.71226236353743
476.62751496868674
476.5435028665506
476.4605378661751
476.37893981785487
476.29903543835206
476.22115711936556
476.1456417241689
476.07282937738364
476.0030622528593
475.93668336454886
475.8740353651265
475.81545935696175
475.761293719926
475.71187296037346
475.6675265854635
475.6285780067837
475.59534347702413
475.5681310632657
475.547239660228
475.53295804658967
475.52556398722874
475.5253233839944
475.5324894773496
475.54730210091094
475.5699869906407
475.60075515021816
475.63980227385133
475.6873082275255
475.7434365894265
475.8083342500143
475.8821310719417
475.96493960974766
476.0568548890136
476.1579542444185
476.2682972158717
476.38792550168864
476.51686296756213
476.6551157099052
476.8026721719412
476.9595033107439
477.1255628132957
477.30078735946796
477.4850969297015
477.6783951550454
477.88056970712165
478.09149272550474
478.3110212799351
478.53899786474597
478.7752509228532
479.0195953966348
479.271833303004
479.53175433001127
479.7991364523247
480.0737465629648
480.3553411186976
480.64366679654506
480.9384611589481
481.2394533251806
481.5463646466643
481.8589093839348
482.1767953831215
482.4997247498931
482.8273945189279
483.15949731707434
483.49572201848997
483.835754390166
484.179277726352
484.52597347051017
484.87552182353994
485.2276023371194
485.5818944911442
485.93807825436426
486.2958346274278
486.6548461676601
487.01479749501095
487.3753757786877
487.73627120407474
488.0971774196549
488.45779196376844
488.81781667112455
489.1769580590949
489.53492769391846
489.89144253697435
490.2462252713243
490.5990046087381
490.94951557743906
491.2974997908383
491.6427056975842
491.98488881331855
492.3238119345536
492.6592453351153
492.99096694561433
493.3187625164334
493.6424257647244
493.96175850593966
494.2765707704712
494.58668090597416
494.89191566594064
495.1921102850943
495.4871085421226
495.77676281020905
496.0609340958275
496.3394920662899
496.61231506651666
496.8792901254483
497.14031295250106
497.39528792444685
497.64412806305916
497.88675500381305
498.12309895588
498.3530986536354
498.57670129991135
498.79386250118523
499.00454619485316
499.20872456870507
499.4063779727533
499.59749482356347
499.78207150127577
499.96011223957765
500.13162900897265
500.2966413937332
500.4551764629166
500.60726863575974
500.7529595417056
500.892297875249
501.0253392457809
501.15214602260943
501.2727871753158
501.3873381095488
501.49588049831465
501.5985021088116
501.695296624891
501.7863634652177
501.87180759714164
501.95173934627377
502.02627420179994
502.09553261762176
502.1596398094745
502.2187255481706
502.272923949096
502.3223732580844
502.36721563382065
502.40759692693575
502.4436664559123
502.47557677989954
502.50348346852184
502.52754486875557
502.54792186896077
502.56477766014393
502.5782774945405
502.5885884416019
502.59587914151086
502.60031955638493
502.602080719331
502.6013344815011
502.59825325729565
502.59300976782754
502.5857767827536
502.5767268605369
502.56603208723124
502.55386381391264
502.54039239291126
502.525786912984
502.51021493357973
502.49384221839085
502.4768324684109
502.4593470547246
502.44154475128664
502.4235814679419
502.4056099839286
502.38777968211014
502.3702362842099
502.3531215873577
502.3365732023033
502.32072429368526
502.30570332277284
502.2916337931151
502.27863399953605
502.2668167809394
502.25628927741775
502.2471526921676
502.2395020587321
502.23342601410303
502.22900657822464
502.2263189404716
502.22543125373363
502.226404436759
502.2292919853733
502.23413979320986
502.2409859826168
502.24986074642874
502.2607862013341
502.27377625358355
502.2888364777935
502.3059640096131
502.32514745304803
502.3463668032887
502.369593385931
502.3947898134979
502.42190996017456
502.4508989556416
502.4816931988221
502.51422039230255
502.5483995981837
502.5841413161034
502.6213475840417
502.6599121023479
502.6997203813198
502.7406499126266
502.7825703648245
502.8253438031496
502.8688249337215
502.91286137221647
502.9572939370336
503.0019569669275
503.0466786630595
503.0912814553546
503.13558239291905
503.1793935581873
503.2225225043821
503.26477271576437
503.3059440900146
503.3458334419978
503.38423502805296
503.4209410898176
503.45574241648603
503.4884289243119
503.5187902520615
503.54661637101054
503.5716982079874
503.59382827988804
503.61280133802234
503.6284150205466
503.6404705111377
503.6487732019687
503.65313335897395
503.6533667873108
503.64929549484145
503.6407483514023
503.62756174158915
503.609580208774
503.586657088025
503.55865512555295
503.52544708229476
503.48691631921565
503.44295736188735
503.39347644190747
503.3383920127464
503.27763523764776
503.2111504473029
503.13889556510867
503.0608424978974
502.97697749006016
502.8873014390485
502.79183017036434
502.6905946702597
502.5836412744896
502.4710318115916
502.35284369931304
502.2291699929901
502.1001193848406
501.96581615327585
501.8264000615173
501.68202620499534
501.53286480719333
501.37910096378346
501.2209343350867
501.05857878711083
500.892261981582
500.7222249155483
500.5487214113864
500.37201755826885
500.19239110633754
500.0101308150421
499.82553575734676
499.6389145817455
499.4505847342074
499.2608716423561
499.0701078643508
498.87863220510775
498.68678880264474
498.49492618746586
498.30339631807703
498.11255359593054
497.92275386328174
497.7343533875593
497.54770783589765
497.363171243521
497.1810949797296
497.00182671528756
496.82570939506377
496.6530802197612
496.48426964058973
496.3196003707771
496.1593864178026
496.0039321401742
495.85353133253795
495.7084663428044
495.56900722484596
495.43541093019485
495.3079205421002
495.1867645551387
495.0721562033578
494.96429283973725
494.8633553695795
494.7695077402563
494.682896489501
494.6036503541778
494.5318799412249
494.4676774622571
494.41111653304057
494.3622520387803
494.3211200659016
494.2877379007037
494.26210409494206
494.2441985981477
494.2339829562122
494.2314005754615
494.236377051164
494.2488205591739
494.2686223091573
494.29565705757517
494.32978367833846
494.3708457888169
494.41867242861764
494.4730787882839
494.53386698483416
494.600826880879
494.67373694386606
494.75236514183183
494.8364698719122
494.92580091777114
495.0201004320016
495.11910393950404
495.22254135777166
495.3301380299194
495.44161576624964
495.5566938901884
495.67509028446864
495.79652243345413
495.9207084575029
496.04736813530644
496.1762239102061
496.3070018765725
496.4394327424385
496.5732527646803
496.7082046531103
496.8440384398819
496.9805123106757
497.11739339429397
497.25445850756284
497.3914948527422
497.528300664899
497.6646858068785
497.80047230974077
497.9354948569117
498.0696012107726
498.2026525807968
498.33452393261854
498.4651042376585
498.59429666317396
498.72201870284425
498.8482022482419
498.97279360176253
499.09575343176687
499.2170566708625
499.3366923584498
499.45466342892263
499.57098644713477
499.6856912929072
499.7988207965399
499.91043032750787
500.02058733868495
500.1293708685901
500.23687100434194
500.34318830819655
500.4484332106451
500.5527253731031
500.65619302327144
500.7589722662932
500.8612063748309
500.96304506118076
501.0646437345905
501.1661627470029
501.2677666304661
501.36962332943
501.47190343111413
501.57477939707434
501.67842479901316
501.7830135617831
501.88871921642794
501.99571416598343
502.1041689666561
502.21425162686444
502.32612692648996
502.43995575854024
502.5558944953096
502.67409438097116
502.7947009523437
502.91785348937543
503.0436844966974
503.1723192174501
503.30387518043784
503.43846178150574
503.5761798998339
503.717121549686
503.86136956798475
504.0089973379028
504.16006854849667
504.3146369902548
504.47274638629113
504.6344302587611
504.7997118299897
504.96860395770153
505.141109103594
505.317219334372
505.49691635428894
505.6801715681196
505.86694617340845
506.0571912807894
506.25084806107145
506.4478479177092
506.6481126832795
506.8515548385604
507.0580777527711
507.2675759435002
507.4799353548216
507.6950336520951
507.9127405319436
508.13291804592853
508.35542093647814
508.5800969836219
508.80678736111213
509.0353270005416
509.2655449620845
509.497264810509
509.730304995196
509.96447923298683
510.19959689276584
510.4354633807318
510.6718805253691
510.90864696118916
511.14555851034805
511.3824085612504
511.61898844334434
511.8550877973866
512.090494940494
512.3249972253781
512.5583813932594
512.7904339200035
513.0209413549893
513.2496906523106
513.4764694940159
513.7010666051534
513.9232720604086
514.1428775821363
514.3596768296884
514.5734656800323
514.7840424996574
514.9912084077714
515.1947675307757
515.3945272480223
515.5902984288911
515.7818956612665
515.9691374715565
516.1518465363736
516.3298498860208
516.5029790999196
516.671070494143
516.833965301195
516.9915098421928
517.1435556916027
517.2899598346761
517.4305848176997
517.565298891201
517.693976146286
517.8164966442514
517.9327465395979
518.0426181965487
518.1460102991604
518.2428279551306
518.332982793359
518.4163930553349
518.4929836803914
518.5626863848275
518.6254397348955
518.681189213683
518.7298872818604
518.7714934322053
518.8059742378091
518.833303393901
518.8534617532454
518.8664373550474
518.8722254472618
518.8708285021911
518.8622562252584
518.84652555684
518.823660667131
518.7936929440926
518.7566609745772
518.7126105186519
518.6615944770901
518.6036728520381
518.5389127008924
518.4673880834061
518.3891800019655
518.3043763348604
518.21307176234
518.1153676852477
518.011372136048
517.901199682098
517.7849713210461
517.6628143681944
517.5348623356497
517.4012548031108
517.2621372801951
517.117661060244
516.9679830655407
516.8132656838532
516.6536765962865
516.4893885964348
516.3205794008526
516.1474314508625
515.9701317057463
515.7888714273282
515.6038459559237
515.415254477625
515.2232997829352
515.0281880167737
514.8301284199365
514.6293330621289
514.4260165667334
514.2203958274766
514.0126897171516
513.803118788567
513.5919049679085
513.3792712407305
513.1654413308291
512.950639372291
512.7350895750412
512.5190158842192
512.3026416337253
512.0861891943199
511.86987961667216
511.6539322698132
511.43856447548643
511.2239911389244
511.01042437659333
510.79807314152197
510.5871428468886
510.37783498856925
510.17034676733437
509.9648707113912
509.7615943000276
509.5606995891757
509.3623628397714
509.16675414981694
508.97403709109216
508.7843683514644
508.59789738371916
508.4147660618764
508.23510834600785
508.0590499565401
507.88670805901535
507.71819096034073
507.5535978175686
507.3930183602171
507.23653262715067
507.08421071903587
506.9361125674054
506.79228772137714
506.65277515306303
506.5176030826618
506.3867888242186
506.2603386530348
506.1382476957042
506.0204998438013
505.90706769230746
505.79791250384204
505.69298419967566
505.59222137841766
505.4955513632145
505.4028902782354
505.31414315512137
505.22920406994234
505.14795631107165
505.07027257821954
504.99601521275326
504.92503645934414
504.8571787588992
504.79227507262806
504.7301492370143
504.67061634942525
504.61348318406505
504.5585486378715
504.5056042058386
504.45443448512236
504.4048177071692
504.35652629695363
504.30932745831853
504.2629837843341
504.2172538914745
504.17189307625154
504.1266539928125
504.0812873499089
504.0355426255238
503.9891687973068
503.9419150868498
503.8935317157759
503.8437706715466
503.7923864808421
503.7391369882986
503.6837841383082
503.6260947574831
503.5658413352939
503.5028028003225
503.4367652895393
503.3675229079748
503.2948784760954
503.21864426219054
503.1386426970937
503.05470706855243
502.96668219255827
502.8744250589558
502.77780544866596
502.6767065199153
502.5710253609547
502.4606735068245
502.34557741781487
502.2256789173688
502.1009355872621
501.9713211179928
501.83682561240835
501.6974558407327
501.5532354453221
501.4042050936151
501.2504225778503
501.0919628603316
500.9289180632501
500.76139740228473
500.5895270633461
500.41345002199904
500.2333258053404
500.04933019636616
499.861654881089
499.67050703890277
499.4761088769114
499.2786971091226
499.07852238160905
498.8758486449514
498.67095247553607
498.46412234750983
498.25565785737695
498.0458689033918
497.83507482213247
497.6236034848665
497.41179035652164
497.1999775202452
496.98851267069654
496.7777480793737
496.5680395354164
496.359745265477
496.1532248364345
495.94883804487705
495.74694379737434
495.5478989856267
495.3520573606125
495.15976840992676
494.97137624255157
494.7872184852981
494.6076251951271
494.4329177915133
494.2634080129879
494.0993969019798
493.9411738220005
493.78901551113296
493.643185175678
493.5039316277254
493.3714884702995
493.246073333525
493.1278871650551
493.01711357777765
492.9139182575974
492.8184484338943
492.7308324150203
492.65117919095013
492.5795781049377
492.5160985957519
492.46079001176093
492.4136814978364
492.3747819557741
492.3440800786571
492.3215444592963
492.30712377258544
492.3007470312882
492.30232391443997
492.3117451672624
492.3288830711733
492.3535919821304
492.38570893524735
492.4250543133599
492.47143257696763
492.52463305272556
492.5844307773909
492.6505873938616
492.722852095687
492.8009626162066
492.8846462582884
492.9736209604913
493.0675963953797
493.166275095591
493.2693536031385
493.3765236373675
493.487473276901
493.6018881508513
493.71945263455683
493.8398510451233
493.9627688320428
494.0878937582265
494.21491706685816
494.3435346295441
494.4734480713251
494.6043658682431
494.7360044132496
494.8680890463248
495.00035504479337
495.1325485698797
495.2644275655992
495.395762606237
495.52633768895396
495.6559509683938
495.7844154304713
495.91155950281217
496.0372275995867
496.161280598859
496.2835962510497
496.40406951755915
496.5226128389153
496.63915633207534
496.7536479168279
496.86605337155333
496.97635631886595
497.0845581418811
497.19067783206594
497.2947517698553
497.3968334394788
497.49699307974413
497.5953172728
497.69190847315565
497.78688447944836
497.88037785163056
497.9725352764283
498.0635168841313
498.1534955199749
498.2426559735389
498.3311941697266
498.4193163250085
498.5072380726863
498.5951835609725
498.68338452772696
498.7720793557168
498.86151211226746
498.95193157718165
499.04359026283026
499.13674343032693
499.2316481056397
499.3285620993733
499.4277430339051
499.5294473815126
499.63392951701735
499.74144078828675
499.85222860777895
499.9665355681815
500.0845985850727
500.2066480693776
500.33290713217275
500.46359082416086
500.59890541195546
500.73904769312753
500.8842043517337
501.03455135584403
501.1902533983845
501.35146338242095
501.51832195178474
501.69095706772214
501.86948363203874
502.05400315703315
502.2446034823223
502.4413585384221
502.6443281567342
502.85355792545073
503.0690790907412
503.2909085024098
503.5190486030546
503.75348745961094
503.9941988360153
504.24114230561185
504.4942634018286
504.7534938055352
505.018751567401
505.2899413634779
505.566954782183
505.8496706408198
506.13795532976604
506.43166318243374
506.7306368690606
507.0347078123668
507.3436966230996
507.6574135535121
507.97565896686734
508.29822382106124
508.6248901644433
508.955431641924
509.2896140095373
509.62719565569364
509.96792812742865
510.31155666001723
510.6578207084124
511.0064544790478
511.3571874606119
511.70974495246975
512.0638485895386
512.4192168624838
512.775565632146
513.1326086371956
513.4900579941161
513.8476246886815
514.2050190581384
514.5619512633763
514.9181317504522
515.2732717009442
515.627083470708
515.9792810166966
516.3295803115068
516.6776997453808
517.0233605154552
517.366287002123
517.7062071324108
518.0428527303475
518.3759598543297
518.705269121494
519.0305260191233
519.3514812031743
519.667890784011
519.9795165994656
520.2861264753531
520.5874944735436
520.8834011277511
521.173633667265
521.4579862288393
521.7362600569252
522.0082636924543
522.2738131503837
522.5327320862242
522.784851951762
523.0300121401568
523.2680601206001
523.4988515627102
523.7222504508625
523.9381291885878
524.1463686931462
524.3468584803545
524.5394967397551
524.7241904001811
524.9008551857734
525.069415662479
525.2298052750756
525.3819663748111
525.5258502377092
525.6614170735098
525.7886360252038
525.9074851591226
526.0179514455406
526.1200307297399
526.2137276935619
526.2990558074748
526.3760372732905
526.4447029577617
526.5050923173266
526.5572533142625
526.6012423244384
526.6371240368059
526.6649713447727
526.6848652296545
526.6968946363761
526.7011563414645
526.6977548133045
526.6868020646758
526.668417497617
526.6427277406515
526.6098664784099
526.5699742737096
526.5231983821614
526.4696925593868
526.4096168609764
526.3431374353539
526.2704263096863
526.1916611689169
526.1070251280014
526.0167064974578
525.920898542399
525.8197992352253
525.7136110021502
525.6025404636774
525.4867981691525
525.3665983254951
525.242158520264
525.1136994391862
524.9814445782501
524.8456199504598
524.7064537873778
524.5641762356178
524.4190190484425
524.2712152725752
524.1209989303171
523.9686046970866
523.8142675745858
523.6582225597836
523.5007043098628
523.3419468032645
523.1821829969958
523.0216444803982
522.8605611256154
522.699160734998
522.5376686856828
522.3763075716133
522.2152968433588
522.0548524460739
521.8951864559791
521.7365067157684
521.5790164694029
521.4229139967623
521.2683922486729
521.1156384828583
520.9648339014257
520.8161532905394
520.6697646630028
520.5258289044938
520.3844994242224
520.2459218108071
520.1102334942102
519.9775634145868
519.8480316989156
519.7217493463233
519.5988179230599
519.479329268071
519.3633652101587
519.2509972977723
519.1422865425039
519.0372831774134
518.9360264312945
518.838544319971
518.744853455704
518.6549588757863
518.5688538914286
518.4865199581039
518.4079265685991
518.3330311700685
518.2617791063517
518.1941035867375
518.1299256823127
518.0691543510246
518.0116864925274
517.9574070338307
517.9061890466521
517.8578938971903
517.8123714289096
517.7694601787472
517.728987627054
517.690770481516
517.6546149952644
517.6203173192603
517.5876638889623
517.5564318452081
517.5263894891503
517.4972967709945
517.4689058121529
517.4409614602808
517.4132018765016
517.3853591539745
517.3571599668118
517.3283262481712
517.2985758962247
517.267623506596
517.2351811297235
517.2009590514455
517.1646665949598
517.1260129421753
517.0847079723391
517.0404631157277
516.9929922201087
516.9420124275497
516.8872450590043
516.8284165040186
516.76525911283
516.6975120880489
516.6249223730118
516.5472455337656
516.4642466315581
516.375701082707
516.2813955027196
516.1811285314658
516.074711636174
515.9619698890152
515.842742716071
515.7168846145611
515.5842658352808
515.444773027248
515.2983098415878
515.1447974917882
514.9841752675945
514.8164009998987
514.6414514740947
514.4593227895112
514.2700306627025
514.0736106725135
513.8701184449794
513.6596297762649
513.4422406921044
513.2180674424758
512.9872464304609
512.7499340744646
512.5063066032072
512.2565597831622
512.0009085783757
511.7395867428652
511.4728463460285
511.2009572317231
510.9242064119175
510.6428973960892
510.35734945787624
510.06789684078205
509.7748879049835
509.4786842174985
509.1796595882214
508.87819905462226
508.5746978181266
508.269560135386
507.96319816789577
507.6560307936366
507.3484823846211
507.04098155442665
506.73395987996497
506.42785060190835
506.12308730833
505.82010260622195
505.5193267856686
505.2211864815528
504.92610333774246
504.63449267873835
504.34676219377695
504.06331063841185
503.7845265585857
503.51078704214297
503.24245650269114
502.9798855006294
502.7234096060347
502.47334830799116
502.23000397487203
501.9936608699443
501.7645842264336
501.54301938592903
501.3291910037937
501.12330232503695
500.9255345338576
500.73604617977827
500.5549726829637
500.382425921
500.2184938991185
500.06324050552723
499.91670535318855
499.7789037090426
499.64982651131646
499.5294404751835
499.4176882866826
499.31448888445414
499.2197378284701
499.13330775458417
499.0550489133706
498.98478979134427
498.92233781231005
498.86748011625656
498.81998441284776
498.7795999062433
498.74605828770564
498.7190747921628
498.69834931457183
498.6835675816865
498.6744023746651
498.6705147977556
498.67155558806246
498.67716646125484
498.68698148797125
498.7006284955122
498.7177304892972
498.73790708852357
498.76077597043803
498.78595431761363
498.8130602626336
498.8417143246175
498.8715408320563
498.9021693265175
498.93323594187797
498.96438475383064
498.9952690945047
499.0255528270805
499.0549115753269
499.08303390309914
499.1096224390285
499.1343949419297
499.15708530275487
499.1774444792617
499.1952413598859
499.2102635535845
499.22231810279675
499.2312321172113
499.23685332652985
499.2390505508337
499.2377140875172
499.2327560140631
499.2241104062328
499.21173347156946
499.1956035984454
499.17572132115384
499.152109201817
499.124811630173
499.0938945426702
499.05944506268185
499.02157106397186
498.9804006598445
498.9360816207147
498.8887807230929
498.8386830332204
498.78599112883387
498.73092426275275
498.67371747216094
498.61462063762315
498.5538974960354
498.49182461183443
498.428690310838
498.36479358117737
498.30044294589436
498.23595531184367
498.1716547995085
498.10787155832315
498.04494057210945
497.98320045925226
497.922992272242
497.86465830114156
497.80854088540457
497.75498123833097
497.7043182883307
497.6568875410387
497.613019966171
497.57304091284715
497.5372690568788
497.5060153832693
497.4795822069599
497.45826223466236
497.4423376703764
497.4320793669321
497.42774602565936
497.42958344607996
497.4378238272688
497.4526851222909
497.47437044686467
497.50306754318734
497.5389482996317
497.58216832674236
497.6328665896859
497.6911650970858
497.7571686459776
497.83096462241724
497.9126228570784
498.00219553494753
498.09971715803107
498.20520455981864
498.3186569701011
498.440056128608
498.5693664457855
498.7065352088766
498.85149283135365
499.0041531436744
499.1644137232409
499.3321562613728
499.50724696505165
499.68953699119095
499.87886291111954
500.0750472028939
500.2778987690479
500.487213477387
500.70277472247136
500.9243540054842
501.15171153020646
501.3845968128296
501.62274930338265
501.8658990166425
502.11376717048154
502.36606682969034
502.6225035533726
502.88277604403424
503.1465767965198
503.4135927450495
503.6835059067528
503.95599402021105
504.23073117762385
504.5073884493155
504.7856344993858
505.0651361913647
505.3455591827977
505.62656850782014
505.9078291469311
506.1890065832713
506.46976734476243
506.74977953153706
507.02871332816443
507.3062415002559
507.58203987513895
507.8557878063841
508.12716862203007
508.39587005640595
508.6615846654967
508.92401022581487
509.18285011680996
509.4378136869094
509.6886166033394
509.9349811858983
510.176636724866
510.41331978323876
510.64477448353887
510.8707527794558
511.09101471257173
511.3053286544777
511.51347153460813
511.7152290540914
511.91039588591826
512.0987758617392
512.2801821455685
512.4544373946078
512.6213739073883
512.7808337594684
512.9326689269176
513.0767413977853
513.2129232717463
513.341096848142
513.461154702592
513.5729997522992
513.6765453101037
513.7717151272992
513.8584434252045
513.9366749154646
514.0063648090724
514.06747881411
514.1199931222181
514.163894383816
514.1991796721405
514.2258564362216
514.2439424429509
514.2534657084237
514.2544644187284
514.2469868403384
514.2310912202145
514.2068456756876
514.1743280741913
514.1336259029001
514.0848361282451
514.0280650452024
513.9634281162505
513.8910497998987
513.811063368736
513.7236107169857
513.6288421575623
513.5269162086233
513.4179993696467
513.3022658871307
513.1798975100418
513.0510832351254
512.916019042169
512.7749076193337
512.6279580787085
512.4753856622498
512.317411438303
512.154261988931
511.986169088251
511.813369371991
511.6361039984926
511.45461830141426
511.26916143438484
511.07998600790194
510.8873477188256
510.6915049728324
510.492718500177
510.2912509651256
510.08736656948975
509.881330650712
509.67340927494473
509.46386882555277
509.2529755874666
509.0409953278288
508.8281928733922
508.61483168516605
508.40117343082744
508.18747755544877
507.9740008511073
507.76099702592984
507.5487162731576
507.33740484085973
507.12730460295916
506.91865263226765
506.71168077624304
506.5066152362147
506.30367615081326
506.1030771843464
505.90502512088955
505.70971946488754
