491.8739776966296
491.876333227225
491.87868889782874
491.88104470822407
491.8834006581943
491.88575674752303
491.8881129759933
491.8904693433884
491.8928258494917
491.89518249408627
491.8975392769552
491.89989619788173
491.9022532566488
491.904610453039
491.906967786835
491.90932525781966
491.91168286577556
491.91404061048536
491.91639849173146
491.91875650929626
491.92111466296217
491.92347295251136
491.92583137772556
491.9281899383865
491.93054863427585
491.9329074651754
491.9352664308668
491.93762553113186
491.939984765752
491.9423441345085
491.94470363718267
491.9470632735555
491.9494230434076
491.9517829465191
491.9541429826701
491.95650315164073
491.95886345321117
491.9612238871613
491.963584453271
491.96594515131994
491.96830598108784
491.9706669423541
491.973028034898
491.9753892584989
491.97775061293635
491.9801120979897
491.9824737134387
491.98483545906277
491.9871973346411
491.98955933995273
491.99192147477663
491.99428373889157
491.9966461320763
491.99900865410984
492.00137130477117
492.0037340838393
492.00609699109293
492.0084600263109
492.0108231892722
492.01318647975575
492.0155498975404
492.01791344240485
492.0202771141279
492.0226409124881
492.02500483726396
492.02736888823404
492.02973306517686
492.03209736787073
492.034461796094
492.0368263496247
492.0391910282409
492.04155583172053
492.04392075984117
492.04628581238046
492.048650989116
492.0510162898255
492.0533817142863
492.05574726227576
492.05811293357135
492.06047872795045
492.06284464519047
492.0652106850688
492.06757684736283
492.06994313185
492.0723095383074
492.0746760665121
492.0770427162412
492.0794094872714
492.08177637937945
492.08414339234184
492.08651052593507
492.0888777799356
492.09124515412
492.0936126482644
492.09598026214496
492.09834799553767
492.10071584821833
492.10308381996276
492.1054519105468
492.1078201197462
492.1101884473368
492.11255689309417
492.1149254567937
492.1172941382107
492.11966293712055
492.1220318532984
492.12440088651954
492.1267700365594
492.12913930319326
492.1315086861965
492.13387818534454
492.1362478004129
492.13861753117715
492.14098737741267
492.1433573388948
492.14572741539916
492.14809760670107
492.1504679125759
492.15283833279875
492.15520886714455
492.1575795153884
492.1599502773055
492.16232115267064
492.1646921412588
492.1670632428451
492.1694344572046
492.1718057841123
492.1741772233428
492.1765487746708
492.1789204378707
492.18129221271704
492.18366409898397
492.1860360964457
492.1884082048765
492.19078042405056
492.1931527537421
492.1955251937251
492.1978977437733
492.2002704036605
492.20264317316025
492.20501605204583
492.20738904009033
492.20976213706683
492.21213534274864
492.21450865690906
492.2168820793214
492.21925560975876
492.2216292479942
492.2240029938006
492.22637684695076
492.22875080721735
492.2311248743732
492.233499048191
492.2358733284435
492.23824771490365
492.24062220734424
492.24299680553816
492.24537150925823
492.2477463182771
492.2501212323674
492.2524962513015
492.25487137485163
492.2572466027897
492.2596219348874
492.26199737091645
492.26437291064883
492.2667485538565
492.2691243003111
492.2715001497844
492.2738761020481
492.27625215687397
492.2786283140339
492.2810045732998
492.2833809344437
492.28575739723726
492.2881339614522
492.29051062686005
492.29288739323226
492.2952642603401
492.29764122795507
492.3000182958489
492.302395463793
492.30477273155896
492.3071500989182
492.30952756564227
492.3119051315024
492.3142827962696
492.31666055971493
492.31903842160966
492.3214163817246
492.3237944398305
492.32617259569804
492.3285508490975
492.330929199799
492.3333076475727
492.3356861921885
492.3380648334163
492.34044357102573
492.3428224047865
492.34520133446824
492.34758035984066
492.3499594806732
492.35233869673505
492.3547180077952
492.35709741362245
492.35947691398553
492.3618565086532
492.36423619739423
492.3666159799774
492.36899585617164
492.37137582574576
492.37375588846874
492.3761360441098
492.37851629243835
492.3808966332241
492.38327706623693
492.38565759124674
492.38803820802343
492.3904189163369
492.39279971595704
492.395180606654
492.39756158819785
492.39994266035853
492.40232382290594
492.4047050756095
492.4070864182387
492.4094678505627
492.4118493723505
492.4142309833711
492.4166126833933
492.41899447218555
492.42137634951644
492.4237583151547
492.42614036886914
492.4285225104287
492.4309047396024
492.43328705615943
492.4356694598688
492.43805195049924
492.4404345278193
492.4428171915973
492.4451999416016
492.44758277760013
492.44996569936086
492.45234870665183
492.45473179924113
492.45711497689683
492.45949823938656
492.4618815864777
492.46426501793746
492.466648533533
492.4690321330314
492.47141581619996
492.473799582806
492.4761834326167
492.4785673653993
492.48095138092106
492.48333547894924
492.485719659251
492.48810392159373
492.49048826574483
492.49287269147146
492.49525719854057
492.4976417867191
492.500026455774
492.5024112054722
492.5047960355804
492.50718094586534
492.50956593609374
492.5119510060323
492.5143361554475
492.5167213841056
492.51910669177266
492.5214920782147
492.5238775431977
492.5262630864876
492.5286487078496
492.5310344070489
492.53342018385035
492.5358060380189
492.53819196931966
492.5405779775177
492.542964062378
492.54535022366565
492.5477364611455
492.5501227745825
492.55250916374155
492.5548956283875
492.5572821682855
492.55966878320044
492.5620554728972
492.5644422371407
492.5668290756961
492.56921598832866
492.5716029748038
492.57399003488706
492.5763771683438
492.5787643749394
492.58115165443894
492.58353900660734
492.58592643120926
492.5883139280096
492.590701496773
492.5930891372642
492.5954768492476
492.5978646324878
492.6002524867496
492.6026404117973
492.6050284073955
492.6074164733085
492.6098046093008
492.61219281513684
492.6145810905813
492.616969435399
492.61935784935474
492.6217463322131
492.62413488373875
492.62652350369683
492.62891219185224
492.63130094796986
492.6336897718146
492.6360786631516
492.6384676217457
492.6408566473616
492.643245739764
492.6456348987175
492.64802412398706
492.65041341533754
492.65280277253385
492.6551921953404
492.6575816835217
492.65997123684235
492.6623608550668
492.6647505379598
492.6671402852859
492.6695300968098
492.6719199722962
492.67430991150957
492.6766999142143
492.6790899801748
492.6814801091558
492.68387030092197
492.68626055523794
492.6886508718684
492.69104125057754
492.69343169112983
492.69582219329016
492.6982127568234
492.70060338149426
492.70299406706715
492.70538481330675
492.7077756199775
492.71016648684406
492.71255741367065
492.7149484002215
492.7173394462608
492.7197305515525
492.7221217158607
492.72451293894926
492.726904220582
492.7292955605227
492.73168695853485
492.7340784143822
492.7364699278288
492.7388614986386
492.7412531265753
492.74364481140276
492.7460365528849
492.74842835078596
492.7508202048699
492.7532121149005
492.7556040806413
492.7579961018556
492.7603881783067
492.7627803097579
492.7651724959725
492.767564736714
492.7699570317458
492.7723493808311
492.774741783733
492.77713424021465
492.77952675003905
492.78191931296953
492.78431192876917
492.78670459720104
492.7890973180282
492.79149009101354
492.7938829159201
492.7962757925112
492.7986687205499
492.80106169979956
492.8034547300232
492.8058478109839
492.80824094244474
492.8106341241688
492.81302735591896
492.8154206374578
492.81781396854797
492.82020734895184
492.8226007784318
492.8249942567503
492.82738778366945
492.82978135895166
492.83217498235933
492.8345686536546
492.8369623725997
492.839356138957
492.84174995248884
492.84414381295767
492.8465377201261
492.84893167375674
492.8513256736122
492.85371971945517
492.8561138110482
492.85850794815394
492.860902130535
492.8632963579538
492.86569063017294
492.86808494695504
492.8704793080627
492.87287371325885
492.8752681623065
492.87766265496896
492.88005719100977
492.88245177019246
492.88484639228056
492.88724105703784
492.88963576422805
492.8920305136147
492.8944253049618
492.89682013803315
492.89921501259244
492.901609928403
492.9040048852281
492.9063998828311
492.9087949209753
492.911189999424
492.9135851179402
492.91598027628686
492.91837547422654
492.9207707115221
492.9231659879364
492.92556130323226
492.92795665717256
492.93035204952014
492.9327474800381
492.9351429484892
492.9375384546364
492.9399339982423
492.9423295790692
492.94472519687963
492.94712085143567
492.9495165424993
492.9519122698324
492.954308033197
492.95670383235495
492.95909966706824
492.9614955370988
492.96389144220836
492.9662873821586
492.96868335671127
492.97107936562804
492.97347540867065
492.97587148560103
492.9782675961809
492.98066374017174
492.983059917335
492.98545612743203
492.987852370224
492.9902486454722
492.99264495293744
492.9950412923803
492.9974376635613
492.99983406624085
493.00223050017905
493.00462696513557
493.0070234608703
493.0094199871429
493.0118165437128
493.0142131303397
493.0166097467833
493.0190063928027
493.02140306815716
493.0237997726059
493.0261965059084
493.0285932678238
493.03099005811157
493.0333868765309
493.0357837228411
493.03818059680145
493.0405774981715
493.04297442671066
493.04537138217836
493.04776836433405
493.05016537293716
493.05256240774736
493.05495946852454
493.05735655502883
493.0597536670201
493.0621508042585
493.06454796650416
493.06694515351717
493.06934236505765
493.07173960088596
493.07413686076245
493.07653414444746
493.07893145170135
493.08132878228446
493.0837261359569
493.0861235124788
493.0885209116103
493.0909183331113
493.09331577674163
493.09571324226147
493.0981107294309
493.10050823800987
493.1029057677582
493.10530331843586
493.10770088980246
493.1100984816177
493.11249609364097
493.11489372563176
493.1172913773495
493.1196890485536
493.1220867390033
493.1244844484578
493.12688217667585
493.12927992341645
493.1316776884386
493.1340754715012
493.13647327236356
493.1388710907846
493.14126892652337
493.1436667793388
493.14606464898964
493.14846253523467
493.1508604378322
493.1532583565405
493.1556562911179
493.1580542413225
493.16045220691205
493.1628501876447
493.1652481832788
493.1676461935725
493.17004421828426
493.1724422571723
493.1748403099947
493.1772383765093
493.179636456474
493.1820345496466
493.18443265578514
493.186830774648
493.1892289059932
493.19162704957864
493.19402520516235
493.19642337250264
493.1988215513578
493.20121974148594
493.20361794264534
493.2060161545943
493.2084143770909
493.21081260989297
493.2132108527584
493.21560910544497
493.21800736771036
493.22040563931216
493.2228039200078
493.2252022095546
493.2276005077098
493.2299988142305
493.2323971288739
493.2347954513972
493.2371937815575
493.23959211911176
493.24199046381716
493.2443888154306
493.24678717370887
493.2491855384088
493.2515839092872
493.2539822861007
493.2563806686061
493.25877905656023
493.26117744971987
493.2635758478417
493.26597425068246
493.26837265799884
493.27077106954755
493.2731694850851
493.2755679043679
493.27796632715274
493.28036475319607
493.28276318225414
493.2851616140832
493.28756004843933
493.2899584850785
493.292356923757
493.29475536423104
493.2971538062569
493.29955224959133
493.30195069399076
493.3043491392119
493.3067475850113
493.3091460311456
493.31154447737174
493.3139429234467
493.31634136912714
493.3187398141698
493.32113825833164
493.3235367013698
493.32593514304165
493.3283335831046
493.33073202131607
493.3331304574332
493.33552889121313
493.33792732241307
493.3403257507904
493.34272417610225
493.34512259810583
493.34752101655783
493.34991943121497
493.3523178418335
493.3547162481699
493.3571146499804
493.3595130470211
493.36191143904796
493.36430982581703
493.36670820708457
493.3691065826066
493.3715049521394
493.3739033154394
493.37630167226314
493.3787000223666
493.38109836550586
493.3834967014369
493.3858950299158
493.3882933506983
493.39069166354
493.3930899681967
493.39548826442444
493.39788655197947
493.40028483061826
493.4026831000973
493.40508136017354
493.4074796106039
493.4098778511453
493.412276081555
493.41467430159
493.4170725110074
493.4194707095638
493.4218688970162
493.4242670731213
493.42666523763603
493.4290633903173
493.4314615309221
493.4338596592071
493.436257774929
493.4386558778443
493.44105396770954
493.44345204428134
493.44585010731646
493.4482481565716
493.45064619180346
493.45304421276876
493.4554422192242
493.4578402109263
493.4602381876315
493.46263614909674
493.465034095079
493.46743202533537
493.4698299396226
493.47222783769723
493.47462571931567
493.47702358423464
493.47942143221087
493.48181926300083
493.4842170763608
493.48661487204697
493.48901264981544
493.4914104094222
493.4938081506233
493.4962058731745
493.49860357683144
493.5010012613494
493.5033989264838
493.5057965719901
493.50819419762377
493.5105918031401
493.5129893882946
493.5153869528432
493.5177844965416
493.5201820191454
493.52257952041
493.52497700009064
493.52737445794276
493.52977189372166
493.5321693071829
493.53456669808213
493.5369640661751
493.53936141121756
493.5417587329649
493.5441560311725
493.54655330559547
493.5489505559891
493.55134778210856
493.5537449837087
493.55614216054425
493.5585393123696
493.56093643893917
493.5633335400074
493.5657306153288
493.56812766465794
493.5705246877493
493.5729216843573
493.5753186542364
493.57771559714104
493.5801125128256
493.5825094010444
493.5849062615513
493.58730309409987
493.58969989844366
493.5920966743362
493.59449342153096
493.5968901397815
493.5992868288414
493.6016834884641
493.6040801184032
493.60647671841195
493.6088732882432
493.6112698276496
493.61366633638374
493.616062814198
493.6184592608446
493.6208556760756
493.6232520596435
493.62564841130063
493.6280447307994
493.63044101789217
493.63283727233136
493.6352334938696
493.63762968225944
493.6400258372536
493.6424219586046
493.6448180460653
493.64721409938863
493.64961011832736
493.6520061026346
493.65440205206335
493.6567979663665
493.65919384529695
493.6615896886075
493.6639854960507
493.66638126737905
493.6687770023451
493.67117270070173
493.673568362202
493.67596398659873
493.67835957364457
493.6807551230921
493.683150634694
493.6855461082031
493.68794154337195
493.690336939953
493.6927322976986
493.695127616361
493.69752289569203
493.6999181354439
493.70231333536856
493.7047084952177
493.7071036147428
493.7094986936951
493.71189373182585
493.71428872888634
493.7166836846278
493.7190785988013
493.721473471158
493.72386830144876
493.7262630894244
493.72865783483564
493.7310525374336
493.7334471969692
493.7358418131936
493.7382363858575
493.7406309147117
493.743025399507
493.74541983999404
493.7478142359231
493.75020858704454
493.7526028931087
493.7549971538657
493.7573913690659
493.7597855384598
493.76217966179786
493.76457373883034
493.7669677693078
493.76936175298067
493.771755689599
493.77414957891267
493.77654342067115
493.7789372146236
493.7813309605193
493.78372465810764
493.7861183071383
493.7885119073609
493.79090545852534
493.79329896038155
493.7956924126794
493.79808581516875
493.8004791675995
493.80287246972136
493.8052657212837
493.80765892203624
493.81005207172836
493.8124451701093
493.814838216928
493.8172312119335
493.81962415487476
493.8220170455005
493.82440988355904
493.82680266879845
493.82919540096657
493.831588079811
493.8339807050794
493.8363732765191
493.83876579387754
493.8411582569023
493.8435506653408
493.8459430189404
493.84833531744846
493.85072756061265
493.8531197481808
493.855511879901
493.857903955521
493.8602959747885
493.86268793745114
493.86507984325647
493.8674716919519
493.8698634832846
493.8722552170012
493.8746468928483
493.87703851057256
493.87943006992066
493.88182157063954
493.88421301247615
493.88660439517764
493.88899571849095
493.891386982163
493.89377818594073
493.8961693295711
493.8985604128012
493.90095143537803
493.90334239704873
493.90573329756046
493.9081241366604
493.91051491409587
493.9129056296141
493.91529628296246
493.9176868738879
493.9200774021373
493.9224678674574
493.9248582695949
493.92724860829674
493.9296388833096
493.93202909438
493.93441924125443
493.9368093236791
493.9391993414
493.941589294163
493.94397918171387
493.9463690037984
493.94875876016215
493.9511484505507
493.9535380747096
493.9559276323845
493.9583171233211
493.9607065472652
493.9630959039629
493.96548519316013
493.967874414603
493.970263568037
493.9726526532078
493.97504166986084
493.9774306177418
493.9798194965962
493.9822083061696
493.98459704620734
493.98698571645457
493.98937431665615
493.991762846557
493.99415130590194
493.9965396944359
493.9989280119038
494.00131625805045
494.00370443262057
494.00609253535856
494.00848056600887
494.0108685243159
494.0132564100244
494.0156442228787
494.018031962623
494.02041962900137
494.02280722175794
494.0251947406367
494.0275821853819
494.0299695557379
494.0323568514492
494.0347440722602
494.03713121791554
494.0395182881599
494.04190528273773
494.04429220139366
494.04667904387236
494.04906580991826
494.05145249927557
494.0538391116885
494.0562256469012
494.058612104658
494.0609984847025
494.06338478677833
494.0657710106292
494.0681571559986
494.07054322263014
494.07292921026726
494.0753151186535
494.0777009475322
494.0800866966464
494.08247236573914
494.08485795455306
494.08724346283077
494.08962889031466
494.09201423674733
494.0943995018712
494.0967846854286
494.09916978716194
494.10155480681385
494.10393974412693
494.1063245988438
494.1087093707073
494.11109405946024
494.11347866484573
494.1158631866066
494.11824762448543
494.1206319782251
494.12301624756844
494.1254004322583
494.1277845320375
494.13016854664886
494.1325524758355
494.13493631934045
494.1373200769066
494.1397037482767
494.1420873331939
494.144470831401
494.1468542426411
494.14923756665746
494.1516208031936
494.1540039519931
494.1563870127992
494.1587699853552
494.1611528694042
494.1635356646892
494.16591837095336
494.1683009879399
494.17068351539217
494.1730659530532
494.1754483006663
494.17783055797474
494.1802127247221
494.18259480065205
494.1849767855082
494.187358679034
494.189740480973
494.1921221910685
494.1945038090636
494.19688533470105
494.19926676772377
494.2016481078748
494.2040293548972
494.20641050853385
494.2087915685273
494.21117253462046
494.2135534065561
494.2159341840771
494.2183148669261
494.22069545484544
494.2230759475775
494.2254563448647
494.22783664644965
494.23021685207493
494.2325969614832
494.234976974417
494.23735689061925
494.23973670983275
494.2421164318001
494.24449605626353
494.2468755829649
494.24925501164637
494.25163434205035
494.254013573919
494.25639270699423
494.258771741018
494.261150675732
494.2635295108779
494.2659082461972
494.26828688143166
494.2706654163229
494.27304385061245
494.275422184042
494.2778004163532
494.2801785472876
494.28255657658667
494.28493450399185
494.2873123292446
494.2896900520865
494.29206767225867
494.29444518950265
494.29682260356014
494.29919991417285
494.30157712108223
494.3039542240298
494.30633122275697
494.3087081170055
494.31108490651707
494.3134615910336
494.31583817029707
494.3182146440496
494.32059101203356
494.32296727399114
494.3253434296645
494.327719478796
494.330095421128
494.332471256403
494.334846984363
494.3372226047503
494.3395981173072
494.3419735217759
494.34434881789855
494.3467240054173
494.3490990840743
494.3514740536119
494.35384891377237
494.356223664298
494.358598304931
494.36097283541346
494.3633472554876
494.3657215648958
494.36809576338044
494.37046985068366
494.37284382654764
494.3752176907145
494.377591442926
494.37996508292383
494.38233861044966
494.38471202524545
494.38708532705334
494.3894585156153
494.3918315906732
494.3942045519692
494.39657739924576
494.398950132245
494.401322750709
494.4036952543803
494.40606764300117
494.40843991631425
494.4108120740624
494.41318411598843
494.41555604183543
494.41792785134624
494.4202995442639
494.42267112033153
494.42504257929215
494.4274139208886
494.429785144864
494.43215625096116
494.4345272389229
494.43689810849185
494.4392688594106
494.4416394914216
494.44401000426717
494.44638039768995
494.44875067143255
494.4511208252378
494.45349085884857
494.45586077200744
494.45823056445704
494.46060023594
494.46296978619887
494.4653392149763
494.46770852201473
494.47007770705625
494.4724467698426
494.4748157101154
494.4771845276165
494.4795532220877
494.4819217932712
494.4842902409092
494.48665856474383
494.489026764517
494.49139483997044
494.49376279084584
494.4961306168849
494.49849831782956
494.50086589342175
494.5032333434034
494.50560066751643
494.5079678655028
494.5103349371044
494.51270188206297
494.5150687001204
494.51743539101847
494.5198019544986
494.52216839030245
494.5245346981718
494.52690087784833
494.52926692907374
494.53163285158996
494.5339986451389
494.536364309463
494.5387298443044
494.5410952494052
494.5434605245076
494.5458256693536
494.548190683685
494.5505555672438
494.5529203197717
494.5552849410109
494.5576494307037
494.5600137885925
494.56237801442
494.56474210792874
494.56710606886134
494.5694698969604
494.5718335919686
494.5741971536287
494.57656058168334
494.57892387587515
494.5812870359465
494.5836500616398
494.5860129526976
494.58837570886215
494.5907383298753
494.5931008154788
494.59546316541457
494.5978253794243
494.6001874572497
494.6025493986325
494.6049112033144
494.60727287103725
494.60963440154285
494.6119957945731
494.6143570498699
494.61671816717546
494.6190791462319
494.6214399867814
494.6238006885661
494.6261612513282
494.6285216748098
494.6308819587533
494.63324210290114
494.63560210699563
494.6379619707792
494.6403216939942
494.64268127638286
494.64504071768704
494.6474000176487
494.64975917600975
494.6521181925124
494.65447706689895
494.65683579891186
494.6591943882935
494.661552834786
494.66391113813154
494.66626929807205
494.6686273143497
494.67098518670684
494.67334291488567
494.6757004986283
494.67805793767695
494.6804152317735
494.68277238066014
494.685129384079
494.68748624177226
494.68984295348207
494.6921995189508
494.6945559379209
494.6969122101344
494.69926833533384
494.70162431326173
494.7039801436605
494.7063358262725
494.70869136084036
494.7110467471067
494.71340198481414
494.71575707370505
494.71811201352205
494.72046680400797
494.7228214449059
494.7251759359589
494.72753027691
494.7298844675023
494.7322385074789
494.7345923965828
494.7369461345569
494.739299721144
494.7416531560867
494.7440064391277
494.74635957000976
494.74871254847574
494.7510653742687
494.75341804713173
494.7557705668081
494.75812293304136
494.760475145575
494.76282720415236
494.7651791085167
494.7675308584113
494.76988245357927
494.7722338937639
494.77458517870866
494.77693630815713
494.7792872818528
494.78163809953924
494.78398876096014
494.78633926585906
494.7886896139797
494.7910398050659
494.7933898388616
494.79573971511024
494.79808943355545
494.8004389939405
494.8027883960084
494.8051376395023
494.80748672416496
494.8098356497393
494.81218441596786
494.8145330225933
494.81688146935824
494.81922975600526
494.821577882277
494.82392584791603
494.826273652665
494.8286212962663
494.8309687784623
494.8333160989954
494.8356632576082
494.8380102540433
494.84035708804356
494.8427037593518
494.8450502677109
494.8473966128637
494.849742794553
494.85208881252163
494.8544346665125
494.85678035626836
494.8591258815319
494.8614712420457
494.8638164375524
494.8661614677943
494.8685063325139
494.8708510314535
494.87319556435534
494.8755399309615
494.8778841310142
494.8802281642555
494.8825720304277
494.8849157292731
494.8872592605338
494.8896026239521
494.89194581927006
494.89428884622987
494.8966317045737
494.89897439404365
494.90131691438216
494.9036592653316
494.9060014466346
494.908343458034
494.9106852992728
494.91302697009394
494.9153684702402
494.9177097994544
494.9200509574795
494.9223919440582
494.9247327589334
494.9270734018479
494.9294138725446
494.9317541707661
494.934094296255
494.9364342487539
494.93877402800524
494.9411136337511
494.9434530657335
494.94579232369426
494.9481314073754
494.9504703165188
494.9528090508667
494.95514761016113
494.9574859941441
494.95982420255757
494.9621622351434
494.9645000916438
494.9668377718009
494.9691752753573
494.97151260205544
494.97384975163743
494.97618672384544
494.97852351842164
494.9808601351084
494.9831965736479
494.98553283378203
494.987868915253
494.9902048178029
494.992540541174
494.9948760851081
494.99721144934745
494.99954663363394
495.0018816377095
495.0042164613161
495.0065511041954
495.00888556608913
495.011219846739
495.01355394588666
495.01588786327363
495.01822159864116
495.02055515173026
495.0228885222822
495.0252217100382
495.0275547147397
495.0298875361283
495.03222017394535
495.03455262793216
495.03688489782974
495.03921698337933
495.04154888432197
495.04388060039867
495.04621213135044
495.04854347691855
495.05087463684424
495.053205610869
495.0555363987345
495.0578670001827
495.0601974149557
495.06252764279577
495.064857683445
495.0671875366455
495.06951720213954
495.0718466796692
495.07417596897665
495.07650506980406
495.07883398189335
495.08116270498647
495.0834912388251
495.08581958315096
495.08814773770575
495.0904757022314
495.0928034764694
495.0951310601612
495.09745845304826
495.09978565487233
495.10211266537533
495.10443948429895
495.1067661113847
495.10909254637374
495.1114187890074
495.11374483902694
495.1160706961733
495.1183963601876
495.1207218308108
495.1230471077839
495.125372190848
495.12769707974405
495.1300217742131
495.1323462739962
495.1346705788343
495.13699468846823
495.13931860263904
495.14164232108794
495.14396584355643
495.1462891697864
495.14861229951987
495.15093523249845
495.1532579684641
495.1555805071588
495.1579028483246
495.16022499170356
495.1625469370375
495.1648686840682
495.16719023253734
495.1695115821864
495.1718327327568
495.1741536839901
495.17647443562794
495.1787949874123
495.18111533908507
495.1834354903882
495.1857554410634
495.1880751908524
495.19039473949704
495.1927140867398
495.1950332323232
495.19735217599
495.1996709174829
495.20198945654477
495.2043077929185
495.2066259263471
495.2089438565737
495.2112615833415
495.2135791063939
495.2158964254744
495.2182135403265
495.2205304506937
495.22284715631974
495.22516365694867
495.2274799523244
495.22979604219097
495.2321119262921
495.2344276043715
495.23674307617296
495.2390583414402
495.2413733999173
495.2436882513483
495.24600289547755
495.24831733204917
495.2506315608074
495.2529455814964
495.25525939386023
495.2575729976428
495.2598863925881
495.26219957844035
495.26451255494374
495.26682532184225
495.26913787887963
495.2714502257994
495.2737623623451
495.27607428826025
495.2783860032886
495.28069750717384
495.28300879966
495.2853198804911
495.2876307494108
495.2899414061627
495.2922518504903
495.2945620821373
495.2968721008473
495.29918190636397
495.30149149843135
495.3038008767934
495.3061100411941
495.3084189913776
495.3107277270884
495.31303624807094
495.31534455406984
495.31765264482976
495.3199605200954
495.32226817961134
495.3245756231223
495.3268828503732
495.32918986110883
495.3314966550739
495.3338032320129
495.3361095916699
495.33841573378925
495.34072165811506
495.3430273643918
495.34533285236387
495.34763812177596
495.3499431723727
495.35224800389904
495.3545526160998
495.3568570087199
495.3591611815044
495.36146513419874
495.3637688665482
495.3660723782981
495.3683756691938
495.3706787389805
495.37298158740316
495.375284214207
495.3775866191369
495.3798888019379
495.3821907623552
495.3844925001339
495.3867940150193
495.389095306757
495.39139637509254
495.39369721977175
495.3959978405404
495.39829823714456
495.4005984093302
495.40289835684337
495.4051980794301
495.4074975768366
495.4097968488089
495.41209589509333
495.41439471543583
495.4166933095827
495.4189916772799
495.42128981827375
495.42358773231047
495.4258854191363
495.42818287849775
495.4304801101413
495.43277711381313
495.43507388925957
495.43737043622707
495.4396667544621
495.44196284371117
495.44425870372095
495.44655433423816
495.4488497350093
495.4511449057808
495.45343984629915
495.4557345563111
495.4580290355633
495.4603232838027
495.4626173007763
495.4649110862309
495.4672046399138
495.4694979615721
495.4717910509527
495.47408390780276
495.4763765318695
495.4786689229003
495.4809610806425
495.48325300484396
495.48554469525277
495.487836151617
495.4901273736847
495.49241836120416
495.4947091139235
495.4969996315907
495.49928991395416
495.5015799607621
495.5038697717629
495.50615934670475
495.508448685336
495.5107377874052
495.51302665266064
495.5153152808506
495.5176036717231
495.51989182502655
495.5221797405087
495.52446741791744
495.5267548570008
495.5290420575071
495.5313290191849
495.5336157417827
495.53590222504874
495.53818846873116
495.540474472578
495.54276023633736
495.5450457597575
495.54733104258673
495.54961608457336
495.55190088546567
495.5541854450122
495.55646976296146
495.55875383906175
495.56103767306115
495.56332126470795
495.56560461375045
495.5678877199367
495.5701705830153
495.5724532027349
495.5747355788443
495.577017711092
495.57929959922683
495.58158124299746
495.5838626421529
495.58614379644234
495.58842470561524
495.590705369421
495.5929857876091
495.5952659599287
495.59754588612907
495.5998255659591
495.60210499916786
495.6043841855045
495.60666312471824
495.60894181655874
495.61122026077567
495.6134984571189
495.6157764053386
495.61805410518457
495.620331556407
495.622608758756
495.62488571198185
495.62716241583473
495.62943887006475
495.6317150744218
495.6339910286555
495.63626673251554
495.6385421857516
495.6408173881133
495.64309233935035
495.6453670392126
495.6476414874502
495.6499156838132
495.65218962805204
495.6544633199172
495.65673675915957
495.6590099455299
495.66128287877893
495.66355555865755
495.6658279849165
495.66810015730687
495.6703720755796
495.67264373948603
495.6749151487776
495.67718630320576
495.67945720252226
495.681727846479
495.6839982348282
495.686268367322
495.6885382437125
495.69080786375196
495.6930772271925
495.69534633378623
495.6976151832856
495.69988377544325
495.7021521100115
495.70442018674305
495.7066880053907
495.708955565707
495.71122286744446
495.7134899103554
495.715756694192
495.71802321870643
495.7202894836513
495.7225554887792
495.7248212338428
495.7270867185947
495.72935194278773
495.73161690617474
495.7338816085088
495.7361460495432
495.7384102290315
495.7406741467272
495.74293780238384
495.74520119575493
495.747464326594
495.74972719465416
495.75198979968843
495.7542521414497
495.75651421969076
495.7587760341645
495.76103758462375
495.76329887082136
495.76555989250994
495.7678206494421
495.7700811413705
495.7723413680477
495.7746013292266
495.77686102466
495.7791204541005
495.78137961730056
495.78363851401275
495.7858971439897
495.78815550698425
495.79041360274925
495.7926714310373
495.79492899160084
495.797186284192
495.7994433085629
495.80170006446554
495.80395655165205
495.80621276987483
495.8084687188865
495.8107243984397
495.8129798082872
495.81523494818214
495.8174898178778
495.8197444171277
495.8219987456854
495.8242528033046
495.8265065897393
495.8287601047433
495.8310133480703
495.8332663194741
495.8355190187086
495.8377714455279
495.84002359968565
495.8422754809359
495.8445270890328
495.8467784237308
495.84902948478464
495.8512802719491
495.85353078497917
495.8557810236297
495.8580309876553
495.86028067681093
495.86253009085146
495.8647792295318
495.8670280926068
495.86927667983184
495.8715249909625
495.87377302575453
495.8760207839638
495.87826826534626
495.880515469658
495.88276239665504
495.88500904609316
495.88725541772817
495.88950151131587
495.8917473266123
495.8939928633732
495.8962381213545
495.89848310031186
495.90072780000094
495.9029722201773
495.90521636059646
495.90746022101405
495.9097038011854
495.9119471008663
495.9141901198126
495.91643285778
495.91867531452465
495.9209174898025
495.9231593833696
495.92540099498194
495.9276423243954
495.92988337136546
495.93212413564777
495.93436461699787
495.93660481517134
495.93884472992374
495.9410843610109
495.9433237081886
495.9455627712126
495.9478015498388
495.9500400438229
495.9522782529208
495.95451617688843
495.9567538154821
495.9589911684583
495.9612282355737
495.963465016585
495.96570151124945
495.9679377193239
495.97017364056535
495.9724092747309
495.974644621578
495.97687968086404
495.9791144523464
495.98134893578265
495.98358313093047
495.98581703754746
495.98805065539125
495.99028398421945
495.99251702378945
495.99474977385864
495.99698223418443
495.9992144045244
496.00144628463624
496.0036778742773
496.00590917320517
496.00814018117774
496.01037089795284
496.01260132328855
496.0148314569427
496.0170612986734
496.0192908482385
496.021520105396
496.0237490699043
496.0259777415216
496.0282061200063
496.0304342051164
496.0326619966103
496.03488949424616
496.03711669778215
496.03934360697656
496.0415702215877
496.04379654137426
496.0460225660953
496.04824829550955
496.05047372937577
496.0526988674527
496.0549237094989
496.05714825527264
496.05937250453246
496.0615964570369
496.0638201125445
496.0660434708137
496.0682665316032
496.07048929467135
496.072711759777
496.0749339266787
496.0771557951349
496.07937736490396
496.0815986357444
496.08381960741497
496.0860402796744
496.08826065228175
496.0904807249964
496.092700497578
496.0949199697865
496.0971391413817
496.0993580121234
496.10157658177116
496.1037948500847
496.10601281682364
496.1082304817477
496.1104478446165
496.1126649051895
496.11488166322613
496.11709811848584
496.1193142707283
496.12153011971316
496.1237456652001
496.12596090694876
496.12817584471884
496.13039047826976
496.13260480736074
496.13481883175143
496.13703255120174
496.1392459654718
496.1414590743217
496.143671877512
496.14588437480336
496.1480965659565
496.15030845073227
496.15252002889144
496.15473130019507
496.15694226440417
496.15915292128
496.1613632705838
496.1635733120769
496.1657830455207
496.1679924706765
496.17020158730577
496.1724103951698
496.17461889402955
496.1768270836461
496.1790349637805
496.18124253419353
496.183449794646
496.18565674489844
496.1878633847117
496.1900697138468
496.192275732065
496.194481439128
496.19668683479756
496.19889191883533
496.2010966910033
496.20330115106356
496.20550529877835
496.20770913391004
496.20991265622126
496.21211586547486
496.2143187614337
496.21652134386056
496.21872361251815
496.2209255671693
496.223127207577
496.22532853350447
496.2275295447149
496.2297302409719
496.23193062203916
496.2341306876805
496.2363304376594
496.2385298717396
496.2407289896852
496.2429277912603
496.24512627622937
496.2473244443569
496.2495222954075
496.2517198291458
496.25391704533706
496.2561139437463
496.25831052413844
496.2605067862786
496.26270272993213
496.2648983548646
496.26709366084185
496.2692886476299
496.2714833149945
496.27367766270174
496.2758716905179
496.2780653982094
496.28025878554274
496.28245185228445
496.28464459820054
496.28683702305705
496.2890291266202
496.2912209086568
496.29341236893345
496.29560350721715
496.29779432327484
496.29998481687346
496.30217498777995
496.30436483576125
496.3065543605845
496.30874356201696
496.3109324398257
496.31312099377817
496.31530922364175
496.3174971291836
496.3196847101709
496.32187196637085
496.32405889755034
496.3262455034761
496.3284317839151
496.33061773863426
496.3328033674005
496.33498866998104
496.337173646143
496.3393582956536
496.3415426182802
496.3437266137902
496.3459102819512
496.3480936225309
496.35027663529684
496.35245932001715
496.3546416764601
496.3568237043943
496.3590054035882
496.36118677381035
496.36336781482953
496.3655485264145
496.3677289083338
496.36990896035593
496.3720886822492
496.3742680737822
496.37644713472343
496.3786258648414
496.3808042639047
496.38298233168155
496.38516006794055
496.3873374724502
496.38951454497885
496.391691285295
496.3938676931674
496.39604376836485
496.3982195106563
496.40039491981076
496.40256999559745
496.40474473778556
496.40691914614456
496.4090932204441
496.4112669604543
496.4134403659456
496.41561343668843
496.4177861724535
496.4199585730115
496.4221306381331
496.4243023675891
496.4264737611503
496.4286448185877
496.4308155396726
496.4329859241765
496.4351559718708
496.4373256825271
496.43949505591684
496.4416640918113
496.4438327899819
496.44600115020023
496.4481691722377
496.4503368558659
496.4525042008562
496.4546712069804
496.45683787401015
496.45900420171745
496.4611701898742
496.46333583825265
496.4655011466249
496.46766611476335
496.4698307424404
496.4719950294285
496.4741589755
496.47632258042756
496.4784858439838
496.4806487659413
496.48281134607316
496.4849735841527
496.4871354799535
496.4892970332495
496.4914582438149
496.493619111424
496.4957796358507
496.49793981686923
496.50009965425386
496.502259147779
496.5044182972191
496.5065771023484
496.5087355629413
496.5108936787723
496.5130514496158
496.515208875246
496.5173659554372
496.51952268996354
496.5216790785993
496.52383512111885
496.52599081729693
496.5281461669082
496.5303011697275
496.53245582552984
496.53461013409026
496.5367640951839
496.5389177085859
496.5410709740712
496.54322389141464
496.54537646039137
496.5475286807765
496.5496805523452
496.551832074873
496.5539832481355
496.55613407190833
496.55828454596724
496.5604346700883
496.56258444404796
496.564733867623
496.5668829405903
496.56903166272684
496.5711800338096
496.5733280536157
496.57547572192277
496.5776230385087
496.57977000315157
496.58191661562944
496.5840628757204
496.58620878320255
496.58835433785396
496.59049953945294
496.5926443877778
496.59478888260685
496.59693302371863
496.59907681089214
496.60122024390637
496.60336332254053
496.60550604657385
496.60764841578555
496.60979042995484
496.61193208886095
496.61407339228356
496.61621434000256
496.6183549317981
496.62049516745003
496.62263504673854
496.6247745694442
496.6269137353478
496.6290525442304
496.631190995873
496.6333290900569
496.6354668265634
496.6376042051735
496.6397412256682
496.6418778878286
496.64401419143553
496.64615013626974
496.64828572211206
496.6504209487433
496.6525558159443
496.65469032349586
496.65682447117854
496.65895825877317
496.6610916860608
496.66322475282243
496.66535745883937
496.6674898038931
496.6696217877653
496.6717534102378
496.6738846710922
496.6760155701105
496.67814610707467
496.6802762817664
496.68240609396764
496.68453554346013
496.68666463002603
496.68879335344775
496.6909217135077
496.69304970998826
496.69517734267185
496.6973046113411
496.69943151577866
496.70155805576735
496.7036842310903
496.7058100415305
496.7079354868712
496.71006056689555
496.7121852813867
496.714309630128
496.7164336129032
496.71855722949624
496.72068047969117
496.72280336327196
496.72492588002285
496.72704802972805
496.729169812172
496.7312912271392
496.73341227441404
496.735532953781
496.7376532650245
496.73977320792926
496.74189278228016
496.74401198786234
496.7461308244609
496.7482492918608
496.7503673898474
496.752485118206
496.75460247672197
496.7567194651807
496.75883608336756
496.76095233106787
496.76306820806724
496.765183714151
496.7672988491046
496.76941361271327
496.7715280047622
496.7736420250368
496.7757556733226
496.7778689494054
496.77998185307126
496.7820943841065
496.7842065422975
496.7863183274309
496.78842973929306
496.79054077767057
496.7926514423501
496.7947617331182
496.79687164976133
496.79898119206644
496.8010903598207
496.8031991528113
496.8053075708257
496.8074156136514
496.80952328107617
496.8116305728878
496.8137374888746
496.8158440288249
496.8179501925273
496.82005597977
496.8221613903412
496.8242664240289
496.82637108062147
496.8284753599072
496.8305792616744
496.8326827857114
496.8347859318068
496.836888699749
496.83899108932667
496.8410931003285
496.84319473254334
496.8452959857601
496.84739685976785
496.84949735435555
496.85159746931265
496.8536972044286
496.8557965594931
496.85789553429584
496.8599941286267
496.862092342276
496.8641901750342
496.8662876266916
496.8683846970388
496.8704813858666
496.8725776929663
496.87467361812935
496.8767691611473
496.87886432181165
496.8809590999141
496.8830534952464
496.88514750760044
496.88724113676847
496.88933438254287
496.8914272447163
496.89351972308134
496.89561181743045
496.897703527556
496.8997948532507
496.90188579430685
496.9039763505169
496.9060665216733
496.9081563075687
496.9102457079956
496.9123347227468
496.91442335161526
496.91651159439414
496.9185994508765
496.9206869208557
496.922774004125
496.9248607004778
496.9269470097073
496.92903293160714
496.9311184659708
496.93320361259237
496.9352883712662
496.9373727417868
496.93945672394864
496.94154031754636
496.94362352237465
496.9457063382282
496.94778876490193
496.94987080219096
496.9519524498904
496.9540337077957
496.95611457570214
496.9581950534049
496.9602751406991
496.96235483737985
496.96443414324256
496.96651305808234
496.96859158169457
496.9706697138748
496.9727474544185
496.97482480312067
496.9769017597765
496.97897832418096
496.9810544961291
496.98313027541633
496.9852056618382
496.9872806551904
496.9893552552684
496.99142946186805
496.9935032747852
496.9955766938159
496.9976497187562
496.9997223494023
497.0017945855508
497.0038664269981
497.00593787354126
497.00800892497693
497.01007958110165
497.01214984171213
497.01421970660533
497.0162891755782
497.0183582484277
497.02042692495104
497.02249520494513
497.02456308820695
497.02663057453367
497.02869766372226
497.03076435556966
497.03283064987284
497.03489654642874
497.03696204503456
497.03902714548747
497.04109184758465
497.0431561511235
497.0452200559017
497.0472835617171
497.04934666836755
497.05140937565113
497.05347168336596
497.05553359131056
497.0575950992833
497.05965620708264
497.06171691450743
497.0637772213562
497.0658371274279
497.06789663252164
497.06995573643655
497.07201443897213
497.07407273992783
497.0761306391033
497.07818813629876
497.0802452313145
497.0823019239507
497.08435821400747
497.0864141012852
497.0884695855842
497.09052466670494
497.0925793444475
497.09463361861174
497.0966874889979
497.09874095540647
497.10079401763835
497.10284667549456
497.10489892877615
497.10695077728417
497.1090022208199
497.1110532591846
497.11310389217977
497.1151541196069
497.1172039412676
497.1192533569632
497.12130236649534
497.12335096966547
497.12539916627486
497.1274469561246
497.1294943390159
497.13154131475005
497.1335878831286
497.13563404395325
497.13767979702595
497.1397251421489
497.14177007912406
497.14381460775337
497.1458587278386
497.1479024391816
497.1499457415845
497.1519886348491
497.15403111877765
497.15607319317235
497.15811485783536
497.1601561125691
497.162196957176
497.1642373914582
497.1662774152179
497.16831702825755
497.1703562303795
497.1723950213867
497.1744334010822
497.1764713692688
497.1785089257495
497.1805460703273
497.18258280280554
497.1846191229878
497.18665503067757
497.1886905256789
497.19072560779625
497.1927602768343
497.1947945325977
497.1968283748914
497.1988618035201
497.2008948182885
497.2029274190012
497.20495960546293
497.20699137747863
497.2090227348534
497.21105367739244
497.2130842049006
497.2151143171833
497.21714401404586
497.2191732952937
497.22120216073256
497.22323061016834
497.22525864340685
497.2272862602539
497.2293134605155
497.2313402439978
497.233366610507
497.2353925598492
497.23741809183036
497.2394432062566
497.24146790293423
497.2434921816697
497.24551604226974
497.2475394845409
497.24956250828984
497.25158511332336
497.2536072994484
497.2556290664719
497.25765041420107
497.2596713424433
497.2616918510063
497.2637119396978
497.26573160832606
497.2677508566993
497.2697696846259
497.2717880919141
497.27380607837256
497.27582364381
497.2778407880352
497.27985751085714
497.2818738120849
497.2838896915274
497.2859051489937
497.2879201842926
497.28993479723306
497.2919489876243
497.29396275527586
497.2959760999976
497.2979890215996
497.3000015198919
497.3020135946846
497.304025245788
497.3060364730128
497.30804727616953
497.3100576550688
497.3120676095217
497.31407713933925
497.3160862443325
497.3180949243125
497.3201031790903
497.322111008477
497.32411841228384
497.3261253903221
497.3281319424033
497.3301380683391
497.3321437679416
497.3341490410231
497.33615388739634
497.3381583068739
497.3401622992686
497.34216586439345
497.3441690020612
497.3461717120848
497.34817399427754
497.35017584845275
497.35217727442375
497.3541782720041
497.35617884100736
497.3581789812473
497.3601786925377
497.3621779746924
497.3641768275253
497.36617525085046
497.3681732444819
497.37017080823364
497.37216794191943
497.3741646453533
497.3761609183497
497.3781567607235
497.3801521722895
497.38214715286233
497.38414170225667
497.3861358202872
497.3881295067687
497.3901227615155
497.39211558434215
497.3941079750631
497.396099933493
497.3980914594466
497.4000825527388
497.40207321318474
497.40406344059977
497.40605323479906
497.408042595598
497.4100315228119
497.4120200162562
497.41400807574644
497.41599570109827
497.41798289212727
497.41996964864927
497.4219559704803
497.4239418574367
497.4259273093347
497.42791232599063
497.42989690722095
497.4318810528424
497.433864762672
497.4358480365271
497.43783087422514
497.43981327558333
497.4417952404191
497.4437767685498
497.44575785979293
497.4477385139659
497.44971873088605
497.4516985103709
497.4536778522378
497.4556567563044
497.4576352223884
497.45961325030714
497.4615908398781
497.4635679909187
497.46554470324634
497.46752097667866
497.46949681103354
497.4714722061291
497.4734471617834
497.475421677815
497.4773957540425
497.47936939028443
497.4813425863596
497.48331534208694
497.48528765728554
497.4872595317746
497.4892309653734
497.4912019579011
497.49317250917704
497.4951426190206
497.49711228725107
497.49908151368766
497.50105029814983
497.50301864045684
497.50498654042815
497.506953997883
497.5089210126406
497.5108875845202
497.5128537133411
497.51481939892244
497.5167846410835
497.5187494396438
497.52071379442293
497.5226777052409
497.5246411719178
497.526604194274
497.5285667721299
497.5305289053057
497.5324905936217
497.53445183689826
497.5364126349558
497.53837298761493
497.54033289469646
497.5422923560217
497.5442513714121
497.5462099406892
497.5481680636748
497.55012574019054
497.5520829700587
497.5540397531016
497.5559960891418
497.5579519780016
497.5599074195035
497.5618624134696
497.56381695972266
497.56577105808526
497.56772470838007
497.56967791042973
497.5716306640569
497.5735829690842
497.57553482533456
497.57748623263103
497.57943719079697
497.5813876996559
497.58333775903145
497.5852873687471
497.5872365286265
497.5891852384933
497.5911334981714
497.5930813074848
497.59502866625746
497.59697557431343
497.5989220314772
497.6008680375734
497.60281359242697
497.60475869586264
497.6067033477053
497.6086475477799
497.6105912959116
497.6125345919255
497.61447743564656
497.6164198268997
497.61836176551003
497.62030325130274
497.6222442841032
497.6241848637368
497.6261249900291
497.6280646628055
497.6300038818914
497.63194264711217
497.63388095829316
497.63581881526
497.6377562178385
497.6396931658543
497.6416296591332
497.64356569750123
497.64550128078474
497.64743640881
497.6493710814035
497.6513052983918
497.65323905960133
497.65517236485914
497.65710521399217
497.65903760682716
497.6609695431911
497.66290102291066
497.6648320458129
497.66676261172495
497.66869272047404
497.6706223718876
497.672551565793
497.67448030201774
497.6764085803892
497.678336400735
497.6802637628829
497.68219066666063
497.68411711189617
497.68604309841714
497.68796862605166
497.6898936946278
497.6918183039737
497.6937424539177
497.69566614428834
497.6975893749146
497.6995121456258
497.7014344562514
497.7033563066208
497.7052776965637
497.70719862590965
497.7091190944883
497.71103910212935
497.7129586486627
497.71487773391834
497.71679635772614
497.7187145199158
497.72063222031727
497.7225494587607
497.7244662350764
497.7263825490951
497.72829840064753
497.7302137895646
497.7321287156775
497.73404317881784
497.73595717881756
497.7378707155086
497.73978378872346
497.7416963982945
497.7436085440544
497.7455202258358
497.74743144347156
497.74934219679506
497.75125248564007
497.7531623098404
497.75507166923
497.7569805636432
497.7588889929144
497.7607969568784
497.76270445537
497.7646114882242
497.7665180552759
497.7684241563601
497.7703297913116
497.77223495996566
497.7741396621574
497.7760438977224
497.77794766649674
497.7798509683165
497.78175380301775
497.78365617043653
497.78555807040914
497.78745950277187
497.789360467361
497.7912609640131
497.7931609925648
497.7950605528532
497.79695964471546
497.7988582679892
497.8007564225121
497.8026541081218
497.8045513246565
497.8064480719546
497.808344349855
497.81024015819673
497.8121354968192
497.8140303655622
497.81592476426533
497.8178186927686
497.81971215091187
497.8216051385351
497.8234976554785
497.82538970158214
497.82728127668645
497.82917238063226
497.83106301326063
497.83295317441286
497.8348428639307
497.83673208165567
497.83862082742974
497.8405091010949
497.8423969024931
497.8442842314661
497.8461710878556
497.8480574715037
497.8499433822525
497.85182881994444
497.8537137844222
497.8555982755289
497.85748229310786
497.85936583700243
497.8612489070564
497.86313150311355
497.8650136250177
497.86689527261285
497.8687764457435
497.8706571442543
497.8725373679903
497.8744171167965
497.87629639051863
497.8781751890025
497.8800535120939
497.8819313596392
497.8838087314847
497.88568562747685
497.88756204746244
497.8894379912887
497.89131345880276
497.89318844985235
497.89506296428556
497.8969370019505
497.8988105626953
497.9006836463685
497.90255625281895
497.9044283818954
497.90630003344666
497.90817120732174
497.9100419033699
497.9119121214404
497.913781861383
497.9156511230477
497.91751990628507
497.91938821094516
497.9212560368784
497.9231233839354
497.9249902519665
497.9268566408224
497.92872255035365
497.93058798041113
497.93245293084544
497.9343174015072
497.9361813922475
497.93804490291734
497.9399079333681
497.941770483451
497.94363255301744
497.94549414191886
497.9473552500068
497.94921587713327
497.95107602315045
497.95293568791055
497.954794871266
497.9566535730695
497.95851179317367
497.9603695314312
497.96222678769493
497.96408356181826
497.96593985365473
497.96779566305815
497.96965098988255
497.9715058339824
497.97336019521265
497.9752140734282
497.9770674684843
497.9789203802362
497.9807728085394
497.9826247532495
497.9844762142226
497.9863271913149
497.988177684383
497.9900276932834
497.9918772178727
497.99372625800754
497.995574813545
497.9974228843424
497.99927047025756
498.00111757114826
498.0029641868724
498.00481031728793
498.0066559622527
498.0085011216248
498.01034579526265
498.01218998302477
498.01403368476997
498.01587690035683
498.01771962964415
498.0195618724905
498.0214036287547
498.0232448982955
498.025085680972
498.0269259766436
498.0287657851701
498.0306051064116
498.0324439402285
498.03428228648124
498.03612014503017
498.0379575157357
498.0397943984584
498.0416307930594
498.0434666993998
498.0453021173406
498.04713704674316
498.048971487469
498.0508054393796
498.0526389023365
498.0544718762013
498.05630436083595
498.0581363561024
498.0599678618629
498.06179887797987
498.063629404316
498.0654594407339
498.06728898709605
498.0691180432649
498.0709466091033
498.07277468447444
498.0746022692414
498.0764293632675
498.0782559664161
498.08008207855084
498.08190769953546
498.0837328292338
498.0855574675096
498.0873816142272
498.0892052692508
498.09102843244466
498.09285110367307
498.0946732828003
498.0964949696905
498.0983161642081
498.1001368662172
498.10195707558216
498.1037767921674
498.1055960158377
498.1074147464575
498.1092329838915
498.1110507280049
498.1128679786626
498.1146847357296
498.1165009990708
498.11831676855115
498.12013204403604
498.1219468253913
498.12376111248307
498.1255749051778
498.1273882033421
498.1292010068429
498.1310133155474
498.1328251293231
498.13463644803744
498.13644727155804
498.13825759975305
498.14006743249104
498.1418767696406
498.1436856110705
498.1454939566496
498.1473018062467
498.14910915973053
498.15091601696975
498.1527223778329
498.1545282421888
498.15633360990626
498.1581384808543
498.1599428549017
498.16174673191733
498.1635501117704
498.1653529943302
498.1671553794662
498.1689572670481
498.17075865694585
498.17255954902964
498.1743599431701
498.17615983923804
498.1779592371048
498.1797581366417
498.1815565377202
498.18335444021216
498.1851518439893
498.1869487489233
498.1887451548861
498.1905410617495
498.19233646938585
498.19413137766776
498.19592578646837
498.1977196956608
498.19951310511817
498.20130601471385
498.2030984243214
498.20489033381443
498.2066817430667
498.2084726519523
498.2102630603455
498.2120529681205
498.2138423751518
498.21563128131413
498.21741968648223
498.219207590531
498.2209949933357
498.2227818947714
498.2245682947138
498.22635419303845
498.22813958962126
498.2299244843381
498.231708877065
498.2334927676783
498.2352761560545
498.2370590420702
498.2388414256021
498.24062330652725
498.2424046847228
498.24418556006583
498.24596593243325
498.2477458017021
498.24952516774954
498.25130403045284
498.25308238968967
498.2548602453377
498.2566375972748
498.25841444537866
498.2601907895272
498.2619666295983
498.2637419654701
498.2655167970212
498.26729112413034
498.2690649466764
498.2708382645386
498.2726110775965
498.2743833857295
498.2761551888176
498.27792648674074
498.2796972793791
498.2814675666133
498.2832373483237
498.2850066243908
498.2867753946949
498.2885436591167
498.2903114175373
498.2920786698379
498.2938454158999
498.2956116556046
498.2973773888335
498.2991426154682
498.30090733539043
498.3026715484824
498.3044352546266
498.30619845370563
498.30796114560246
498.3097233302002
498.311485007382
498.3132461770307
498.3150068390295
498.31676699326147
498.31852663961
498.3202857779585
498.32204440819044
498.32380253018994
498.325560143841
498.3273172490277
498.32907384563407
498.3308299335439
498.33258551264123
498.3343405828101
498.33609514393436
498.3378491958978
498.3396027385842
498.3413557718776
498.3431082956621
498.3448603098217
498.3466118142404
498.34836280880234
498.3501132933919
498.3518632678939
498.353612732193
498.3553616861742
498.3571101297224
498.35885806272256
498.36060548505964
498.36235239661835
498.36409879728365
498.3658446869405
498.367590065474
498.3693349327692
498.37107928871126
498.37282313318553
498.3745664660777
498.37630928727333
498.37805159665834
498.3797933941188
498.3815346795408
498.3832754528106
498.3850157138146
498.3867554624393
498.3884946985712
498.3902334220969
498.39197163290316
498.3937093308772
498.39544651590643
498.39718318787834
498.3989193466808
498.4006549922018
498.4023901243296
498.4041247429526
498.4058588479594
498.40759243923856
498.4093255166787
498.4110580801686
498.41279012959706
498.41452166485317
498.4162526858257
498.41798319240354
498.4197131844752
498.4214426619295
498.4231716246553
498.4249000725416
498.4266280054775
498.4283554233522
498.43008232605496
498.43180871347533
498.433534585503
498.435259942028
498.4369847829404
498.43870910813087
498.4404329174905
498.4421562109104
498.4438789882821
498.44560124949714
498.44732299444706
498.4490442230232
498.4507649351168
498.45248513061927
498.45420480942187
498.4559239714164
498.4576426164948
498.45936074454914
498.4610783554714
498.46279544915376
498.4645120254887
498.46622808436916
498.46794362568824
498.4696586493393
498.47137315521593
498.4730871432117
498.4748006132205
498.47651356513654
498.4782259988543
498.47993791426836
498.4816493112736
498.4833601897652
498.4850705496384
498.48678039078834
498.4884897131102
498.4901985164996
498.49190680085223
498.4936145660637
498.49532181202983
498.49702853864676
498.498734745811
498.5004404334194
498.5021456013686
498.50385024955574
498.50555437787773
498.5072579862316
498.5089610745148
498.510663642625
498.5123656904599
498.5140672179174
498.5157682248954
498.51746871129205
498.5191686770057
498.52086812193477
498.522567045978
498.52426544903426
498.5259633310026
498.52766069178244
498.5293575312734
498.53105384937487
498.53274964598666
498.5344449210087
498.53613967434137
498.53783390588535
498.5395276155415
498.5412208032104
498.542913468793
498.5446056121899
498.54629723330197
498.5479883320303
498.5496789082764
498.5513689619421
498.5530584929294
498.55474750114047
498.5564359864776
498.5581239488432
498.55981138814
498.5614983042709
498.56318469713904
498.5648705666475
498.5665559127
498.5682407352002
498.5699250340523
498.5716088091607
498.57329206043016
498.57497478776565
498.5766569910726
498.57833867025613
498.58001982522126
498.58170045587315
498.583380562117
498.5850601438582
498.5867392010024
498.58841773345523
498.5900957411226
498.5917732239103
498.5934501817243
498.59512661447036
498.5968025220544
498.59847790438255
498.6001527613606
498.6018270928945
498.60350089889005
498.60517417925337
498.6068469338908
498.60851916270906
498.610190865615
498.6118620425151
498.6135326933164
498.61520281792593
498.6168724162509
498.6185414881985
498.620210033676
498.6218780525909
498.6235455448506
498.625212510363
498.6268789490365
498.6285448607797
498.6302102455014
498.63187510311093
498.6335394335175
498.6352032366307
498.6368665123599
498.63852926061475
498.64019148130467
498.6418531743392
498.64351433962804
498.64517497708096
498.6468350866081
498.6484946681197
498.6501537215262
498.65181224673813
498.65347024366645
498.65512771222245
498.6567846523177
498.65844106386396
498.66009694677325
498.6617523009576
498.66340712632893
498.66506142279957
498.66671519028193
498.6683684286887
498.67002113793285
498.67167331792746
498.6733249685859
498.6749760898218
498.676626681549
498.6782767436813
498.67992627613296
498.6815752788185
498.6832237516529
498.68487169455136
498.68651910742926
498.68816599020226
498.689812342786
498.6914581650964
498.69310345704946
498.69474821856136
498.6963924495484
498.69803614992713
498.69967931961435
498.70132195852705
498.70296406658247
498.7046056436981
498.70624668979156
498.70788720478083
498.70952718858405
498.7111666411198
498.7128055623069
498.71444395206424
498.71608181031104
498.7177191369668
498.7193559319509
498.7209921951827
498.7226279265818
498.72426312606774
498.7258977935604
498.72753192897983
498.72916553224616
498.7307986032796
498.73243114200056
498.7340631483297
498.7356946221879
498.73732556349626
498.73895597217563
498.7405858481469
498.7422151913312
498.7438440016498
498.7454722790243
498.74710002337645
498.7487272346283
498.75035391270205
498.75198005752
498.7536056690043
498.75523074707746
498.75685529166196
498.7584793026805
498.76010278005595
498.76172572371127
498.76334813356937
498.7649700095534
498.7665913515867
498.76821215959274
498.76983243349525
498.7714521732181
498.77307137868513
498.77469004982015
498.7763081865472
498.77792578879064
498.7795428564749
498.78115938952476
498.7827753878652
498.78439085142134
498.78600578011867
498.78762017388283
498.78923403263946
498.79084735631443
498.7924601448336
498.79407239812315
498.7956841161091
498.7972952987178
498.7989059458756
498.80051605750907
498.8021256335452
498.803734673911
498.8053431785337
498.8069511473408
498.80855858025996
498.81016547721913
498.81177183814646
498.8133776629701
498.81498295161816
498.8165877040186
498.81819192009937
498.81979559978834
498.8213987430139
498.82300134970467
498.82460341978924
498.8262049531962
498.8278059498542
498.82940640969207
498.8310063326388
498.83260571862377
498.8342045675762
498.8358028794254
498.83740065410063
498.83899789153145
498.8405945916476
498.8421907543792
498.84378637965676
498.8453814674107
498.8469760175716
498.84857003006994
498.85016350483636
498.85175644180174
498.8533488408972
498.854940702054
498.85653202520405
498.85812281027927
498.85971305721216
498.8613027659354
498.86289193638174
498.86448056848405
498.8660686621755
498.8676562173895
498.8692432340596
498.8708297121194
498.87241565150305
498.87400105214454
498.87558591397817
498.877170236938
498.87875402095835
498.8803372659737
498.8819199719188
498.88350213872866
498.8850837663384
498.8866648546831
498.8882454036976
498.889825413317
498.8914048834764
498.8929838141113
498.8945622051573
498.8961400565503
498.89771736822615
498.89929414012124
498.9008703721721
498.9024460643153
498.9040212164874
498.9055958286252
498.90716990066574
498.9087434325462
498.91031642420387
498.911888875576
498.9134607865998
498.91503215721275
498.9166029873526
498.9181732769572
498.9197430259645
498.9213122343125
498.9228809019395
498.9244490287841
498.926016614785
498.9275836598812
498.9291501640122
498.93071612711776
498.93228154913766
498.93384643001184
498.9354107696803
498.9369745680832
498.938537825161
498.94010054085436
498.9416627151039
498.9432243478501
498.94478543903335
498.9463459885941
498.94790599647274
498.94946546260996
498.9510243869464
498.952582769423
498.9541406099805
498.9556979085602
498.9572546651033
498.9588108795516
498.96036655184696
498.96192168193113
498.9634762697459
498.96503031523355
498.9665838183363
498.9681367789966
498.9696891971572
498.9712410727608
498.9727924057503
498.9743431960686
498.9758934436587
498.97744314846375
498.97899231042686
498.9805409294912
498.98208900559996
498.9836365386965
498.9851835287242
498.98672997562664
498.98827587934795
498.9898212398324
498.9913660570245
498.992910330869
498.9944540613109
498.9959972482951
498.9975398917669
498.99908199167146
499.000623547954
499.0021645605601
499.00370502943554
499.00524495452635
499.0067843357789
499.00832317313973
499.00986146655544
499.0113992159726
499.01293642133794
499.01447308259856
499.01600919970167
499.01754477259453
499.0190798012246
499.0206142855394
499.0221482254864
499.02368162101345
499.02521447206857
499.0267467786001
499.02827854055647
499.029809757886
499.03134043053717
499.03287055845874
499.0344001415998
499.03592917990943
499.0374576733369
499.03898562183156
499.0405130253424
499.0420398838186
499.0435661972091
499.04509196546303
499.04661718852947
499.0481418663579
499.0496659988979
499.0511895860992
499.05271262791155
499.0542351242851
499.05575707517016
499.0572784805171
499.0587993402763
499.0603196543983
499.0618394228337
499.0633586455334
499.0648773224483
499.0663954535297
499.067913038729
499.0694300779975
499.07094657128675
499.0724625185486
499.07397791973483
499.07549277479745
499.0770070836887
499.07852084636113
499.08003406276714
499.08154673285947
499.08305885659104
499.0845704339148
499.0860814647841
499.08759194915285
499.08910188697485
499.0906112782044
499.0921201227958
499.09362842070334
499.0951361718811
499.09664337628317
499.0981500338638
499.0996561445776
499.1011617083792
499.10266672522346
499.1041711950653
499.10567511785973
499.10717849356195
499.10868132212715
499.11018360351056
499.1116853376676
499.11318652455395
499.11468716412526
499.1161872563372
499.1176868011456
499.11918579850646
499.1206842483758
499.12218215071005
499.1236795054657
499.12517631259936
499.12667257206783
499.12816828382813
499.1296634478373
499.13115806405233
499.1326521324305
499.1341456529291
499.1356386255053
499.1371310501164
499.13862292671945
499.14011425527144
499.1416050357294
499.14309526805016
499.1445849521905
499.1460740881072
499.1475626757573
499.14905071509804
499.15053820608694
499.1520251486819
499.1535115428409
499.154997388522
499.15648268568395
499.1579674342855
499.1594516342856
499.1609352856432
499.1624183883174
499.16390094226733
499.16538294745226
499.1668644038317
499.1683453113652
499.1698256700123
499.17130547973227
499.1727847404844
499.1742634522285
499.1757416149245
499.17721922853264
499.1786962930131
499.18017280832635
499.1816487744328
499.18312419129313
499.18459905886823
499.1860733771192
499.1875471460072
499.1890203654931
499.190493035538
499.19196515610304
499.19343672714956
499.19490774863914
499.1963782205336
499.19784814279467
499.1993175153847
499.2007863382663
499.2022546114023
499.2037223347555
499.2051895082892
499.2066561319665
499.2081222057508
499.20958772960546
499.21105270349415
499.21251712738047
499.2139810012285
499.2154443250025
499.21690709866687
499.2183693221863
499.21983099552597
499.22129211865115
499.22275269152726
499.22421271411974
499.22567218639426
499.2271311083165
499.2285894798523
499.23004730096807
499.23150457163035
499.23296129180574
499.234417461461
499.235873080563
499.23732814907873
499.23878266697545
499.24023663422065
499.2416900507818
499.24314291662665
499.2445952317229
499.24604699603844
499.2474982095413
499.24894887219955
499.25039898398165
499.251848544856
499.2532975547912
499.25474601375606
499.2561939217197
499.25764127865125
499.25908808451993
499.2605343392953
499.2619800429469
499.2634251954445
499.26486979675826
499.2663138468587
499.2677573457164
499.26920029330256
499.2706426895885
499.27208453454557
499.2735258281451
499.27496657035897
499.2764067611589
499.27784640051675
499.2792854884043
499.28072402479336
499.28216200965596
499.2835994429644
499.2850363246911
499.2864726548088
499.28790843329045
499.28934366010924
499.29077833523854
499.292212458652
499.29364603032366
499.29507905022786
499.2965115183389
499.2979434346313
499.2993747990796
499.3008056116586
499.30223587234343
499.3036655811096
499.3050947379328
499.3065233427891
499.30795139565487
499.3093788965069
499.3108058453221
499.31223224207736
499.31365808675
499.31508337931734
499.31650811975703
499.31793230804726
499.31935594416643
499.32077902809317
499.32220155980633
499.3236235392852
499.32504496650915
499.32646584145766
499.3278861641105
499.3293059344477
499.3307251524494
499.33214381809637
499.3335619313692
499.33497949224886
499.33639650071666
499.33781295675396
499.33922886034236
499.3406442114639
499.3420590101008
499.3434732562356
499.344886949851
499.34630009092996
499.34771267945587
499.34912471541236
499.35053619878306
499.3519471295514
499.35335750770093
499.35476733321605
499.356176606081
499.3575853262802
499.35899349379804
499.36040110861916
499.36180817072807
499.36321468010976
499.3646206367497
499.3660260406333
499.36743089174627
499.3688351900747
499.370238935605
499.3716421283235
499.3730447682168
499.3744468552719
499.3758483894759
499.3772493708158
499.3786497992786
499.38004967485165
499.38144899752217
499.38284776727767
499.38424598410586
499.3856436479947
499.3870407589326
499.3884373169079
499.38983332190935
499.3912287739257
499.3926236729461
499.39401801895985
499.3954118119567
499.39680505192666
499.3981977388602
499.3995898727479
499.4009814535806
499.4023724813493
499.4037629560456
499.4051528776614
499.40654224618845
499.4079310616188
499.4093193239445
499.41070703315756
499.4120941892503
499.41348079221495
499.4148668420438
499.4162523387291
499.4176372822636
499.41902167264027
499.42040550985223
499.42178879389314
499.4231715247571
499.4245537024382
499.4259353269307
499.4273163982292
499.4286969163285
499.4300768812235
499.4314562929093
499.4328351513808
499.4342134566333
499.43559120866246
499.4369684074637
499.4383450530328
499.4397211453653
499.4410966844574
499.44247167030505
499.4438461029041
499.4452199822505
499.4465933083401
499.44796608116883
499.44933830073285
499.4507099670285
499.45208108005215
499.4534516398004
499.45482164627026
499.45619109945926
499.4575599993651
499.4589283459858
499.4602961393192
499.46166337936336
499.46303006611663
499.46439619957766
499.4657617797451
499.4671268066178
499.46849128019505
499.4698552004762
499.4712185674608
499.4725813811484
499.47394364153877
499.4753053486319
499.476666502428
499.47802710292774
499.4793871501321
499.4807466440419
499.48210558465837
499.4834639719826
499.4848218060157
499.4861790867591
499.4875358142141
499.4888919883821
499.49024760926466
499.49160267686364
499.4929571911813
499.49431115222035
499.49566455998354
499.4970174144736
499.49836971569323
499.49972146364564
499.50107265833446
499.50242329976356
499.50377338793703
499.50512292285896
499.50647190453367
499.5078203329655
499.5091682081587
499.5105155301179
499.5118622988481
499.51320851435446
499.5145541766425
499.5158992857181
499.5172438415874
499.5185878442568
499.51993129373284
499.5212741900224
499.52261653313224
499.5239583230697
499.525299559842
499.52664024345665
499.52798037392097
499.5293199512424
499.53065897542876
499.5319974464877
499.53333536442744
499.53467272925616
499.5360095409825
499.5373457996153
499.5386815051635
499.5400166576359
499.5413512570416
499.54268530339016
499.5440187966916
499.54535173695615
499.54668412419403
499.5480159584155
499.5493472396307
499.55067796785
499.552008143084
499.5533377653436
499.5546668346402
499.5559953509854
499.5573233143913
499.55865072487006
499.5599775824338
499.5613038870948
499.56262963886536
499.56395483775793
499.56527948378505
499.56660357695944
499.56792711729406
499.5692501048021
499.570572539497
499.57189442139213
499.57321575050116
499.57453652683796
499.5758567504166
499.5771764212517
499.57849553935773
499.5798141047493
499.58113211744114
499.5824495774483
499.5837664847862
499.58508283947083
499.58639864151826
499.5877138909451
499.5890285877682
499.5903427320046
499.5916563236716
499.5929693627869
499.5942818493685
499.59559378343454
499.5969051650035
499.5982159940937
499.5995262707237
499.60083599491156
499.602145166676
499.6034537860361
499.6047618530109
499.60606936761985
499.60737632988264
499.6086827398191
499.60998859744916
499.6112939027929
499.61259865587056
499.6139028567028
499.61520650531077
499.61650960171585
499.61781214593987
499.6191141380049
499.62041557793316
499.6217164657468
499.6230168014682
499.62431658512025
499.6256158167256
499.62691449630677
499.62821262388627
499.6295101994871
499.6308072231326
499.63210369484625
499.6333996146517
499.63469498257257
499.6359897986325
499.63728406285566
499.6385777752665
499.6398709358899
499.6411635447506
499.6424556018736
499.6437471072842
499.645038061008
499.64632846307074
499.6476183134981
499.64890761231607
499.6501963595505
499.65148455522774
499.6527721993747
499.65405929201813
499.6553458331854
499.6566318229037
499.65791726120085
499.65920214810455
499.66048648364256
499.6617702678428
499.6630535007333
499.6643361823425
499.6656183126987
499.66689989183044
499.6681809197663
499.66946139653544
499.6707413221669
499.67202069668986
499.6732995201338
499.67457779252857
499.67585551390414
499.677132684291
499.6784093037196
499.67968537222066
499.6809608898251
499.6822358565645
499.68351027247047
499.68478413757464
499.68605745190905
499.687330215506
499.688602428398
499.68987409061754
499.6911452021974
499.6924157631705
499.69368577357034
499.6949552334303
499.696224142784
499.69749250166535
499.698760310108
499.70002756814586
499.70129427581276
499.7025604331428
499.7038260401704
499.70509109693
499.70635560345625
499.7076195597839
499.70888296594796
499.7101458219837
499.7114081279266
499.7126698838123
499.71393108967675
499.7151917455561
499.7164518514868
499.71771140750513
499.71897041364775
499.7202288699517
499.7214867764543
499.7227441331928
499.72400094020475
499.72525719752787
499.72651290520014
499.72776806325953
499.7290226717438
499.7302767306911
499.73153024013993
499.73278320012867
499.73403561069574
499.73528747188004
499.73653878372045
499.7377895462563
499.7390397595269
499.74028942357165
499.74153853842984
499.7427871041408
499.7440351207441
499.74528258827957
499.74652950678717
499.7477758763074
499.74902169688073
499.75026696854786
499.7515116913495
499.7527558653268
499.7539994905213
499.75524256697474
499.7564850947289
499.7577270738258
499.7589685043075
499.7602093862164
499.7614497195949
499.7626895044856
499.7639287409312
499.7651674289747
499.76640556865925
499.76764316002834
499.7688802031254
499.770116697994
499.77135264467813
499.77258804322184
499.77382289366926
499.77505719606495
499.7762909504537
499.77752415688076
499.7787568153916
499.77998892603193
499.7812204888479
499.7824515038859
499.78368197119255
499.78491189081467
499.78614126279933
499.78737008719384
499.7885983640459
499.7898260934036
499.7910532753152
499.79227990982974
499.7935059969965
499.794731536865
499.7959565294849
499.7971809749057
499.7984048731772
499.7996282243497
499.80085102847386
499.80207328560084
499.8032949957818
499.80451615906816
499.8057367755115
499.80695684516365
499.8081763680767
499.8093953443032
499.8106137738961
499.8118316569081
499.81304899339204
499.81426578340086
499.81548202698775
499.8166977242064
499.81791287511066
499.8191274797547
499.820341538193
499.8215550504807
499.8227680166732
499.82398043682576
499.8251923109939
499.82640363923304
499.8276144215989
499.8288246581475
499.8300343489351
499.83124349401817
499.8324520934533
499.8336601472971
499.83486765560644
499.8360746184384
499.8372810358502
499.8384869078992
499.83969223464294
499.8408970161389
499.84210125244465
499.8433049436177
499.844508089716
499.84571069079755
499.8469127469208
499.84811425814416
499.8493152245263
499.85051564612615
499.8517155230028
499.85291485521554
499.8541136428238
499.85531188588664
499.8565095844634
499.8577067386135
499.85890334839644
499.86009941387226
499.8612949351012
499.86248991214336
499.8636843450589
499.8648782339086
499.8660715787536
499.867264379655
499.8684566366743
499.8696483498728
499.8708395193122
499.87203014505405
499.87322022716023
499.8744097656926
499.87559876071316
499.87678721228406
499.8779751204678
499.87916248532736
499.8803493069257
499.8815355853261
499.88272132059194
499.8839065127871
499.885091161976
499.88627526822313
499.88745883159334
499.88864185215164
499.8898243299633
499.891006265094
499.89218765760995
499.8933685075773
499.8945488150624
499.8957285801322
499.89690780285343
499.89808648329324
499.8992646215187
499.9004422175973
499.9016192715966
499.90279578358434
499.9039717536285
499.9051471817976
499.90632206815997
499.9074964127841
499.9086702157384
499.9098434770916
499.9110161969123
499.91218837526924
499.91336001223146
499.91453110786836
499.9157016622497
499.91687167544535
499.9180411475253
499.9192100785598
499.92037846861933
499.92154631777464
499.92271362609665
499.9238803936563
499.92504662052477
499.92621230677366
499.92737745247484
499.9285420577004
499.9297061225228
499.9308696470147
499.9320326312487
499.93319507529816
499.93435697923667
499.9355183431377
499.9366791670749
499.93783945112216
499.9389991953534
499.9401583998425
499.9413170646636
499.94247518989107
499.9436327755992
499.94478982186286
499.94594632875703
499.9471022963568
499.9482577247376
499.9494126139749
499.9505669641445
499.9517207753223
499.95287404758426
499.9540267810063
499.95517897566435
499.9563306316346
499.95748174899325
499.9586323278164
499.9597823681803
499.96093187016106
499.9620808338351
499.96322925927905
499.96437714657
499.9655244957854
499.9666713070029
499.9678175803
499.96896331575465
499.97010851344487
499.9712531734489
499.9723972958453
499.9735408807129
499.9746839281305
499.975826438177
499.9769684109316
499.97810984647333
499.97925074488137
499.98039110623506
499.981530930614
499.98267021809795
499.983808968767
499.9849471827014
499.9860848599816
499.98722200068835
499.9883586049026
499.9894946727053
499.9906302041776
499.9917651994007
499.99289965845617
499.99403358142615
499.99516696839294
499.99629981943906
499.9974321346473
499.9985639141004
499.9996951578813
500.00082586607334
500.0019560387601
500.00308567602576
500.00421477795464
500.00534334463157
500.00647137614135
500.0075988725688
500.00872583399916
500.00985226051796
500.0109781522111
500.01210350916483
500.01322833146526
500.0143526191986
500.0154763724512
500.0165995913097
500.01772227586105
500.01884442619223
500.0199660423906
500.02108712454367
500.022207672739
500.02332768706435
500.0244471676077
500.02556611445755
500.0266845277025
500.0278024074313
500.02891975373257
500.03003656669523
500.0311528464084
500.0322685929615
500.033383806444
500.03449848694584
500.0356126345572
500.0367262493688
500.0378393314717
500.0389518809569
500.04006389791573
500.0411753824395
500.0422863346199
500.04339675454855
500.04450664231683
500.0456159980166
500.04672482174
500.04783311357926
500.048940873627
500.0500481019757
500.05115479871813
500.05226096394756
500.05336659775764
500.0544717002423
500.0555762714954
500.05668031161065
500.0577838206817
500.05888679880275
500.0599892460683
500.061091162573
500.0621925484114
500.06329340367836
500.06439372846864
500.06549352287755
500.0665927870008
500.0676915209341
500.0687897247732
500.0698873986138
500.07098454255186
500.0720811566838
500.07317724110624
500.07427279591604
500.0753678212101
500.07646231708543
500.0775562836394
500.07864972096934
500.07974262917276
500.0808350083472
500.08192685859046
500.0830181800003
500.0841089726749
500.0851992367128
500.0862889722124
500.0873781792724
500.0884668579919
500.0895550084705
500.0906426308078
500.0917297251034
500.09281629145687
500.09390232996805
500.09498784073696
500.0960728238639
500.09715727944956
500.0982412075947
500.0993246084
500.1004074819667
500.10148982839644
500.102571647791
500.1036529402526
500.1047337058832
500.1058139447854
500.10689365706196
500.1079728428157
500.1090515021493
500.1101296351659
500.1112072419688
500.1122843226616
500.11336087734765
500.11443690613044
500.11551240911365
500.1165873864012
500.1176618380972
500.1187357643056
500.1198091651305
500.1208820406763
500.1219543910471
500.1230262163473
500.1240975166812
500.1251682921537
500.1262385428698
500.1273082689346
500.1283774704533
500.12944614753144
500.1305143002745
500.13158192878825
500.13264903317884
500.1337156135527
500.1347816700162
500.135847202676
500.136912211639
500.1379766970125
500.13904065890404
500.1401040974214
500.1411670126723
500.14222940476486
500.143291273807
500.1443526199067
500.1454134431723
500.1464737437119
500.1475335216338
500.14859277704625
500.1496515100579
500.15070972077785
500.15176740931554
500.1528245757805
500.15388122028287
500.15493734293284
500.15599294384094
500.15704802311814
500.1581025808754
500.15915661722386
500.160210132275
500.1612631261404
500.1623155989324
500.1633675507634
500.1644189817458
500.1654698919923
500.1665202816156
500.16757015072847
500.1686194994437
500.1696683278741
500.1707166361326
500.1717644243321
500.17281169258524
500.1738584410051
500.1749046697049
500.1759503787979
500.1769955683973
500.1780402386163
500.17908438956863
500.180128021368
500.181171134128
500.18221372796245
500.1832558029852
500.18429735931034
500.1853383970523
500.18637891632545
500.1874189172444
500.1884583999239
500.1894973644788
500.19053581102446
500.1915737396765
500.19261115055076
500.1936480437631
500.19468441942956
500.1957202776658
500.19675561858764
500.19779044231075
500.1988247489511
500.19985853862465
500.2008918114476
500.20192456753614
500.20295680700644
500.20398852997494
500.20501973655803
500.20605042687214
500.2070806010337
500.20811025915907
500.2091394013645
500.2101680277664
500.21119613848134
500.2122237336263
500.21325081331827
500.2142773776744
500.21530342681206
500.2163289608487
500.2173539799022
500.2183784840905
500.2194024735321
500.22042594834545
500.221448908649
500.2224713545612
500.22349328620055
500.2245147036855
500.2255356071345
500.22655599666575
500.2275758723978
500.22859523444924
500.2296140829393
500.2306324179873
500.2316502397131
500.23266754823646
500.2336843436775
500.2347006261565
500.23571639579393
500.23673165271055
500.2377463970273
500.23876062886495
500.2397743483442
500.24078755558605
500.2418002507119
500.24281243384337
500.24382410510214
500.2448352646103
500.24584591249015
500.24685604886406
500.24786567385456
500.24887478758444
500.2498833901765
500.2508914817539
500.25189906244
500.25290613235836
500.25391269163276
500.25491874038687
500.2559242787448
500.25692930683124
500.2579338247707
500.25893783268805
500.25994133070833
500.2609443189566
500.2619467975577
500.26294876663644
500.2639502263179
500.2649511767273
500.26595161799025
500.2669515502324
500.26795097357956
500.26894988815764
500.26994829409284
500.27094619151114
500.2719435805385
500.2729404613009
500.27393683392404
500.2749326985339
500.2759280552565
500.27692290421817
500.2779172455454
500.278911079365
500.2799044058039
500.2808972249892
500.28188953704796
500.28288134210754
500.2838726402955
500.2848634317394
500.285853716567
500.28684349490607
500.28783276688466
500.288821532631
500.28980979227356
500.290797545941
500.2917847937621
500.29277153586565
500.2937577723809
500.29474350343696
500.295728729163
500.29671344968835
500.2976976651429
500.2986813756562
500.2996645813581
500.30064728237824
500.3016294788466
500.30261117089333
500.3035923586484
500.30457304224194
500.3055532218044
500.3065328974666
500.30751206935963
500.30849073761476
500.30946890236316
500.31044656373626
500.3114237218655
500.31240037688247
500.3133765289191
500.31435217810724
500.31532732457924
500.3163019684674
500.3172761099041
500.3182497490219
500.31922288595354
500.32019552083227
500.3211676537916
500.32213928496515
500.32311041448713
500.3240810424919
500.32505116911386
500.32602079448736
500.3269899187468
500.32795854202675
500.3289266644621
500.3298942861876
500.3308614073386
500.3318280280506
500.3327941484596
500.3337597687015
500.3347248889123
500.33568950922825
500.33665362978525
500.33761725071906
500.33858037216567
500.33954299426125
500.34050511714224
500.34146674094507
500.34242786580637
500.34338849186304
500.34434861925195
500.34530824811
500.346267378574
500.3472260107811
500.3481841448687
500.34914178097426
500.3500989192356
500.3510555597908
500.35201170277776
500.3529673483348
500.3539224966004
500.35487714771295
500.35583130181124
500.35678495903414
500.35773811952083
500.35869078341045
500.3596429508424
500.36059462195647
500.3615457968925
500.36249647579064
500.3634466587911
500.36439634603437
500.365345537661
500.3662942338118
500.3672424346274
500.36819014024866
500.36913735081646
500.3700840664716
500.371030287355
500.3719760136079
500.3729212453717
500.37386598278806
500.3748102259989
500.37575397514604
500.37669723037163
500.377639991818
500.37858225962725
500.3795240339415
500.38046531490306
500.3814061026545
500.38234639733844
500.38328619909737
500.3842255080741
500.38516432441145
500.3861026482522
500.3870404797391
500.38797781901474
500.38891466622147
500.38985102150207
500.39078688499956
500.39172225685695
500.39265713721727
500.39359152622376
500.3945254240199
500.39545883074936
500.39639174655565
500.39732417158245
500.3982561059735
500.3991875498724
500.4001185034234
500.4010489667704
500.4019789400571
500.40290842342745
500.40383741702533
500.4047659209947
500.40569393547946
500.40662146062357
500.4075484965714
500.4084750434673
500.40940110145596
500.4103266706819
500.41125175129
500.4121763434249
500.4131004472314
500.41402406285454
500.4149471904394
500.41586983013156
500.4167919820767
500.4177136464208
500.4186348233103
500.4195555128921
500.4204757153135
500.4213954307221
500.4223146592652
500.4232334010902
500.4241516563444
500.42506942517514
500.42598670773
500.4269035041565
500.42781981460223
500.42873563921455
500.4296509781408
500.43056583152827
500.4314801995246
500.432394082277
500.433307479933
500.43422039264
500.43513282054585
500.43604476379835
500.43695622254575
500.4378671969365
500.43877768711934
500.4396876932432
500.4405972154574
500.44150625391137
500.44241480875473
500.4433228801371
500.4442304682083
500.44513757311836
500.4460441950174
500.44695033405594
500.44785599038494
500.44876116415537
500.44966585551845
500.4505700646258
500.45147379162916
500.45237703668033
500.4532797999317
500.45418208153603
500.4550838816464
500.4559852004155
500.45688603799647
500.45778639454227
500.45868627020616
500.45958566514116
500.4604845795003
500.46138301343683
500.46228096710445
500.4631784406571
500.4640754342489
500.4649719480341
500.46586798216674
500.4667635368013
500.4676586120921
500.4685532081936
500.4694473252604
500.47034096344703
500.4712341229082
500.47212680379846
500.4730190062727
500.4739107304857
500.47480197659263
500.4756927447487
500.47658303510923
500.4774728478295
500.47836218306486
500.4792510409708
500.4801394217028
500.48102732541645
500.48191475226747
500.48280170241185
500.48368817600556
500.48457417320503
500.4854596941667
500.486344739047
500.4872293080026
500.4881134011904
500.48899701876724
500.48988016089004
500.49076282771546
500.4916450194004
500.4925267361017
500.4934079779763
500.49428874518105
500.4951690378731
500.49604885621
500.4969282003493
500.49780707044886
500.49868546666664
500.49956338916047
500.50044083808837
500.5013178136086
500.50219431587936
500.503070345059
500.5039459013054
500.504820984777
500.5056955956321
500.5065697340291
500.50744340012636
500.50831659408266
500.5091893160567
500.5100615662071
500.51093334469294
500.51180465167306
500.51267548730664
500.51354585175307
500.51441574517173
500.5152851677218
500.51615411956266
500.5170226008539
500.51789061175543
500.51875815242704
500.5196252230286
500.52049182372014
500.52135795466177
500.52222361601355
500.5230888079358
500.52395353058876
500.5248177841328
500.5256815687279
500.5265448845345
500.52740773171297
500.52827011042416
500.5291320208288
500.52999346308786
500.53085443736256
500.53171494381434
500.5325749826044
500.5334345538939
500.53429365784416
500.53515229461607
500.53601046437063
500.53686816726906
500.53772540347256
500.5385821731426
500.53943847644075
500.54029431352876
500.5411496845685
500.5420045897216
500.5428590291498
500.5437130030149
500.5445665114788
500.54541955470347
500.54627213285096
500.5471242460834
500.54797589456336
500.5488270784534
500.5496777979164
500.5505280531148
500.55137784421106
500.55222717136746
500.55307603474614
500.55392443450944
500.5547723708197
500.55561984383974
500.5564668537321
500.5573134006596
500.5581594847855
500.55900510627305
500.5598502652855
500.5606949619861
500.56153919653786
500.56238296910385
500.5632262798471
500.56406912893056
500.56491151651755
500.5657534427713
500.5665949078551
500.56743591193265
500.5682764551674
500.56911653772306
500.5699561597636
500.5707953214529
500.57163402295475
500.5724722644326
500.5733100460501
500.574147367971
500.5749842303593
500.57582063337907
500.5766565771945
500.5774920619698
500.5783270878693
500.5791616550574
500.57999576369855
500.5808294139573
500.5816626059983
500.58249533998594
500.5833276160846
500.5841594344589
500.58499079527326
500.58582169869226
500.58665214488053
500.5874821340027
500.5883116662234
500.5891407417072
500.58996936061874
500.5907975231229
500.5916252293847
500.59245247956926
500.59327927384163
500.5941056123669
500.5949314953101
500.59575692283636
500.59658189511094
500.59740641229894
500.5982304745654
500.59905408207567
500.59987723499523
500.60069993348964
500.6015221777244
500.60234396786507
500.60316530407715
500.6039861865262
500.6048066153779
500.60562659079835
500.6064461129539
500.607265182011
500.60808379813636
500.6089019614966
500.6097196722584
500.6105369305884
500.61135373665354
500.61217009062113
500.61298599265876
500.613801442934
500.61461644161466
500.6154309888685
500.61624508486386
500.6170587297694
500.6178719237538
500.6186846669858
500.6194969596346
500.6203088018693
500.62112019385916
500.6219311357735
500.6227416277817
500.6235516700532
500.6243612627576
500.62517040606474
500.6259791001447
500.6267873451678
500.6275951413046
500.62840248872556
500.62920938760146
500.63001583810285
500.63082184040024
500.63162739466463
500.63243250106746
500.6332371597804
500.6340413709755
500.63484513482547
500.6356484515028
500.63645132118006
500.6372537440301
500.63805572022545
500.6388572499387
500.63965833334225
500.6404589706084
500.64125916190994
500.6420589074197
500.6428582073107
500.643657061756
500.6444554709286
500.6452534350018
500.646050954149
500.646848028544
500.64764465836026
500.64844084377125
500.6492365849507
500.65003188207277
500.65082673531185
500.65162114484235
500.6524151108389
500.6532086334763
500.65400171292947
500.65479434937345
500.65558654298354
500.65637829393506
500.65716960240354
500.65796046856474
500.6587508925944
500.6595408746683
500.66033041496223
500.6611195136519
500.6619081709131
500.66269638692177
500.66348416185417
500.66427149588674
500.6650583891957
500.6658448419572
500.666630854348
500.6674164265447
500.66820155872404
500.6689862510626
500.66977050373737
500.67055431692495
500.67133769080226
500.6721206255462
500.67290312133366
500.67368517834154
500.67446679674697
500.6752479767273
500.67602871845986
500.67680902212203
500.6775888878914
500.6783683159457
500.6791473064628
500.67992585962054
500.68070397559666
500.6814816545692
500.68225889671623
500.68303570221576
500.6838120712458
500.68458800398446
500.6853635006097
500.6861385612996
500.6869131862321
500.6876873755856
500.68846112953827
500.6892344482684
500.69000733195423
500.6907797807743
500.69155179490747
500.692323374533
500.69309451982974
500.6938652309767
500.6946355081528
500.69540535153703
500.69617476130827
500.69694373764594
500.69771228072966
500.6984803907393
500.6992480678549
500.7000153122568
500.70078212412534
500.701548503641
500.70231445098455
500.70307996633676
500.7038450498786
500.7046097017911
500.70537392225526
500.706137711452
500.7069010695624
500.7076639967678
500.7084264932495
500.7091885591889
500.70995019476743
500.7107114001668
500.7114721755687
500.712232521155
500.7129924371076
500.71375192360836
500.71451098083946
500.715269608983
500.71602780822116
500.716785578736
500.71754292070966
500.7182998343243
500.7190563197622
500.7198123772058
500.7205680068374
500.7213232088394
500.72207798339434
500.72283233068504
500.7235862508941
500.72433974420403
500.72509281079726
500.7258454508561
500.726597664563
500.72734945210016
500.72810081365003
500.72885174939495
500.7296022595175
500.73035234420047
500.73110200362714
500.7318512379808
500.73260004744463
500.7333484322022
500.73409639243744
500.7348439283345
500.73559104007757
500.7363377278508
500.7370839918384
500.73782983222475
500.73857524919424
500.73932024293106
500.7400648136196
500.74080896144426
500.74155268658967
500.7422959892407
500.74303886958216
500.7437813277992
500.74452336407705
500.7452649786013
500.7460061715575
500.7467469431309
500.7474872935069
500.7482272228707
500.74896673140813
500.7497058193052
500.7504444867478
500.7511827339223
500.751920561015
500.7526579682127
500.75339495570176
500.75413152366866
500.75486767229984
500.75560340178174
500.7563387123013
500.75707360404556
500.75780807720196
500.75854213195805
500.75927576850165
500.76000898702057
500.76074178770284
500.76147417073673
500.7622061363105
500.76293768461267
500.7636688158317
500.7643995301561
500.76512982777433
500.7658597088749
500.76658917364614
500.76731822227623
500.76804685495347
500.7687750718661
500.7695028732022
500.7702302591498
500.7709572298969
500.7716837856318
500.772409926543
500.7731356528192
500.7738609646491
500.77458586222167
500.77531034572587
500.77603441535064
500.77675807128514
500.77748131371834
500.7782041428394
500.7789265588375
500.77964856190204
500.78037015222264
500.78109132998895
500.7818120953908
500.78253244861855
500.78325238986247
500.78397191931265
500.7846910371592
500.78540974359214
500.7861280388016
500.7868459229775
500.78756339630957
500.78828045898774
500.78899711120164
500.7897133531411
500.790429184996
500.79114460695644
500.79185961921246
500.7925742219544
500.79328841537233
500.79400219965635
500.79471557499676
500.7954285415839
500.796141099608
500.79685324925947
500.7975649907286
500.79827632420586
500.79898724988186
500.7996977679469
500.8004078785915
500.8011175820062
500.8018268783816
500.8025357679079
500.8032442507755
500.80395232717467
500.80465999729597
500.80536726132993
500.8060741194671
500.80678057189823
500.8074866188141
500.80819226040546
500.8088974968631
500.80960232837776
500.81030675514023
500.81101077734127
500.8117143951714
500.81241760882074
500.81312041847957
500.813822824338
500.81452482658585
500.81522642541324
500.81592762101
500.81662841356604
500.81732880327115
500.8180287903152
500.8187283748879
500.819427557179
500.8201263373784
500.8208247156757
500.8215226922606
500.8222202673227
500.8229174410516
500.8236142136367
500.8243105852672
500.8250065561323
500.82570212642133
500.82639729632376
500.82709206602897
500.8277864357261
500.82848040560464
500.8291739758537
500.8298671466624
500.83055991822005
500.8312522907155
500.8319442643375
500.83263583927476
500.8333270157158
500.8340177938493
500.83470817386376
500.8353981559477
500.8360877402894
500.8367769270768
500.83746571649806
500.8381541087416
500.83884210399617
500.8395297024507
500.8402169042939
500.84090370971455
500.8415901189013
500.84227613204314
500.8429617493292
500.8436469709487
500.84433179709083
500.8450162279447
500.84570026369954
500.8463839045445
500.84706715066875
500.84775000226125
500.8484324595112
500.8491145226077
500.84979619174
500.8504774670972
500.8511583488686
500.851838837243
500.85251893240945
500.85319863455686
500.85387794387395
500.85455686054945
500.8552353847721
500.85591351673054
500.8565912566138
500.8572686046108
500.8579455609105
500.85862212570225
500.8592982991753
500.85997408151854
500.86064947292095
500.86132447357124
500.86199908365813
500.86267330337034
500.86334713289637
500.8640205724247
500.8646936221436
500.86536628224155
500.86603855290707
500.86671043432887
500.86738192669543
500.86805303019503
500.8687237450159
500.8693940713464
500.8700640093747
500.87073355928885
500.8714027212769
500.87207149552717
500.87273988222785
500.873407881567
500.87407549373245
500.87474271891176
500.8754095572923
500.87607600906165
500.8767420744074
500.8774077535171
500.87807304657815
500.87873795377766
500.879402475303
500.88006661134125
500.8807303620798
500.8813937277058
500.88205670840637
500.8827193043686
500.8833815157799
500.88404334282734
500.8847047856981
500.88536584457927
500.8860265196578
500.8866868111203
500.88734671915347
500.88800624394423
500.88866538567925
500.8893241445452
500.8899825207285
500.8906405144154
500.8912981257919
500.8919553550437
500.89261220235664
500.8932686679167
500.89392475191005
500.8945804545232
500.8952357759425
500.8958907163543
500.8965452759445
500.89719945489935
500.89785325340506
500.8985066716481
500.89915970981485
500.89981236809183
500.90046464666545
500.9011165457222
500.9017680654482
500.9024192060298
500.9030699676531
500.90372035050416
500.9043703547692
500.9050199806344
500.905669228286
500.90631809791046
500.90696658969443
500.9076147038246
500.90826244048765
500.90890979987023
500.90955678215903
500.9102033875405
500.91084961620106
500.9114954683274
500.9121409441062
500.9127860437244
500.9134307673686
500.9140751152255
500.914719087482
500.91536268432503
500.91600590594146
500.9166487525182
500.91729122424215
500.91793332130044
500.9185750438802
500.9192163921688
500.91985736635354
500.92049796662207
500.92113819316194
500.92177804616097
500.92241752580696
500.92305663228774
500.9236953657911
500.92433372650487
500.9249717146171
500.925609330316
500.92624657378985
500.92688344522674
500.92751994481466
500.9281560727419
500.9287918291967
500.92942721436737
500.9300622284419
500.9306968716081
500.93133114405407
500.9319650459678
500.9325985775373
500.93323173895067
500.9338645303957
500.93449695205993
500.935129004131
500.9357606867967
500.9363920002446
500.9370229446623
500.93765352023763
500.93828372715836
500.9389135656123
500.9395430357873
500.9401721378712
500.9408008720517
500.94142923851643
500.9420572374528
500.94268486904787
500.94331213348903
500.9439390309634
500.94456556165835
500.94519172576145
500.9458175234605
500.94644295494334
500.94706802039775
500.94769272001156
500.9483170539726
500.9489410224686
500.94956462568746
500.95018786381695
500.9508107370449
500.95143324555886
500.95205538954644
500.952677169195
500.9532985846921
500.95391963622535
500.9545403239823
500.9551606481506
500.95578060891773
500.95640020647136
500.9570194409988
500.957638312687
500.958256821723
500.958874968294
500.9594927525869
500.9601101747886
500.96072723508576
500.9613439336648
500.9619602707122
500.9625762464144
500.96319186095764
500.9638071145281
500.964422007312
500.9650365394954
500.9656507112642
500.9662645228044
500.96687797430207
500.96749106594314
500.9681037979136
500.96871617039903
500.96932818358493
500.9699398376564
500.9705511327983
500.97116206919566
500.9717726470336
500.972382866497
500.9729927277705
500.9736022310384
500.9742113764852
500.97482016429524
500.9754285946527
500.9760366677416
500.9766443837458
500.97725174284926
500.97785874523595
500.97846539108957
500.9790716805941
500.9796776139332
500.9802831912906
500.9808884128503
500.98149327879617
500.982097789312
500.98270194458144
500.98330574478825
500.98390919011615
500.9845122807491
500.98511501687074
500.98571739866486
500.98631942631494
500.98692110000445
500.9875224199167
500.98812338623486
500.98872399914205
500.98932425882106
500.9899241654547
500.99052371922573
500.991122920317
500.99172176891136
500.9923202651913
500.9929184093395
500.9935162015382
500.99411364196965
500.9947107308154
500.99530746825724
500.9959038544765
500.99649988965496
500.99709557397443
500.9976909076164
500.9982858907621
500.99888052359245
500.99947480628873
501.0000687390319
501.000662322003
501.0012555553827
501.0018484393519
501.0024409740912
501.00303315978147
501.00362499660366
501.004216484739
501.0048076243687
501.005398415674
501.0059888588361
501.0065789540362
501.0071687014555
501.0077581012753
501.00834715367625
501.008935858839
501.009524216944
501.0101122281718
501.01069989270275
501.0112872107171
501.0118741823952
501.01246080791736
501.01304708746363
501.0136330212139
501.01421860934795
501.0148038520455
501.0153887494861
501.0159733018494
501.01655750931457
501.017141372061
501.01772489026814
501.0183080641151
501.0188908937813
501.0194733794459
501.0200555212879
501.0206373194861
501.0212187742196
501.0217998856673
501.0223806540081
501.0229610794207
501.0235411620839
501.02412090217615
501.0247002998759
501.02527935536125
501.0258580688097
501.0264364403987
501.0270144703053
501.0275921587066
501.0281695057796
501.0287465117011
501.02932317664806
501.02989950079734
501.0304754843256
501.03105112740934
501.0316264302245
501.03220139294706
501.03277601575303
501.0333502988184
501.0339242423189
501.03449784643055
501.0350711113291
501.0356440371903
501.0362166241897
501.0367888725026
501.03736078230406
501.03793235376895
501.0385035870719
501.0390744823875
501.03964503989016
501.0402152597543
501.0407851421543
501.0413546872645
501.0419238952592
501.0424927663124
501.04306130059797
501.0436294982893
501.0441973595597
501.0447648845824
501.0453320735304
501.04589892657657
501.04646544389345
501.0470316256534
501.04759747202877
501.0481629831919
501.04872815931515
501.04929300057063
501.04985750713024
501.05042167916565
501.0509855168481
501.0515490203485
501.05211218983766
501.0526750254861
501.05323752746415
501.05379969594185
501.05436153108906
501.0549230330754
501.0554842020705
501.0560450382437
501.05660554176427
501.05716571280107
501.0577255515228
501.05828505809825
501.05884423269583
501.05940307548406
501.0599615866314
501.0605197663059
501.0610776146758
501.06163513190916
501.06219231817397
501.06274917363805
501.0633056984692
501.063861892835
501.0644177569028
501.06497329083993
501.0655284948133
501.06608336898955
501.0666379135354
501.0671921286174
501.06774601440213
501.06829957105595
501.06885279874484
501.0694056976346
501.0699582678909
501.0705105096796
501.07106242316615
501.0716140085159
501.0721652658939
501.0727161954652
501.07326679739515
501.0738170718488
501.074367018991
501.07491663898634
501.075465931999
501.0760148981934
501.0765635377335
501.0771118507829
501.0776598375054
501.07820749806444
501.0787548326233
501.079301841345
501.07984852439233
501.0803948819279
501.08094091411397
501.08148662111296
501.08203200308697
501.0825770601981
501.08312179260827
501.08366620047934
501.084210283973
501.0847540432504
501.0852974784726
501.08584058980034
501.0863833773943
501.0869258414151
501.087467982023
501.08800979937826
501.0885512936412
501.08909246497217
501.0896333135312
501.09017383947787
501.09071404297185
501.0912539241723
501.09179348323835
501.09233272032895
501.0928716356028
501.0934102292182
501.09394850133333
501.09448645210625
501.09502408169476
501.09556139025665
501.0960983779495
501.0966350449306
501.09717139135694
501.09770741738487
501.09824312317085
501.0987785088711
501.09931357464154
501.099848320638
501.10038274701594
501.1009168539309
501.10145064153846
501.1019841099941
501.1025172594533
501.10305009007163
501.1035826020044
501.1041147954069
501.10464667043414
501.10517822724125
501.10570946598307
501.10624038681397
501.10677098988833
501.1073012753603
501.1078312433839
501.10836089411293
501.1088902277012
501.10941924430233
501.10994794406986
501.1104763271568
501.1110043937157
501.1115321438989
501.1120595778583
501.1125866957458
501.113113497713
501.1136399839114
501.1141661544922
501.1146920096063
501.1152175494043
501.1157427740362
501.1162676836519
501.116792278401
501.1173165584331
501.1178405238976
501.1183641749436
501.1188875117201
501.11941053437556
501.1199332430584
501.12045563791696
501.1209777190992
501.12149948675267
501.12202094102474
501.12254208206275
501.1230629100138
501.1235834250248
501.12410362724233
501.1246235168129
501.12514309388246
501.12566235859674
501.1261813111013
501.12669995154135
501.12721828006204
501.12773629680817
501.12825400192435
501.12877139555474
501.12928847784303
501.1298052489327
501.13032170896724
501.1308378580901
501.1313536964443
501.1318692241724
501.1323844414168
501.1328993483197
501.1334139450229
501.1339282316677
501.13444220839517
501.13495587534624
501.13546923266165
501.13598228048147
501.13649501894554
501.13700744819346
501.1375195683646
501.13803137959815
501.1385428820332
501.13905407580876
501.13956496106346
501.1400755379358
501.14058580656376
501.14109576708495
501.1416054196369
501.14211476435673
501.1426238013811
501.14313253084663
501.14364095289
501.1441490676474
501.144656875255
501.14516437584905
501.14567156956525
501.14617845653936
501.14668503690666
501.14719131080244
501.147697278362
501.14820293972036
501.1487082950124
501.1492133443729
501.1497180879368
501.1502225258388
501.15072665821333
501.15123048519456
501.1517340069166
501.1522372235132
501.1527401351178
501.1532427418639
501.15374504388467
501.1542470413134
501.1547487342833
501.15525012292767
501.15575120737947
501.1562519877715
501.1567524642363
501.15725263690626
501.15775250591344
501.15825207138994
501.1587513334681
501.15925029228026
501.15974894795875
501.16024730063566
501.16074535044334
501.1612430975141
501.1617405419803
501.16223768397424
501.1627345236285
501.16323106107563
501.1637272964482
501.16422322987876
501.1647188614994
501.16521419144203
501.1657092198383
501.1662039468198
501.1666983725182
501.16719249706546
501.16768632059313
501.1681798432327
501.1686730651153
501.1691659863724
501.1696586071354
501.1701509275355
501.17064294770387
501.17113466777175
501.1716260878701
501.17211720812963
501.1726080286811
501.17309854965504
501.1735887711819
501.17407869339206
501.17456831641596
501.1750576403841
501.17554666542685
501.1760353916744
501.1765238192571
501.177011948305
501.1774997789481
501.1779873113163
501.1784745455394
501.178961481747
501.17944812006874
501.17993446063394
501.180420503572
501.1809062490123
501.1813916970842
501.18187684791667
501.18236170163857
501.1828462583786
501.1833305182653
501.1838144814268
501.1842981479914
501.18478151808733
501.1852645918426
501.18574736938524
501.18622985084346
501.1867120363455
501.1871939260194
501.18767551999315
501.18815681839476
501.18863782135224
501.1891185289934
501.189598941446
501.19007905883757
501.1905588812957
501.19103840894775
501.19151764192077
501.19199658034165
501.1924752243373
501.1929535740345
501.19343162956
501.1939093910404
501.19438685860234
501.1948640323727
501.1953409124784
501.19581749904626
501.19629379220316
501.1967697920762
501.1972454987923
501.1977209124781
501.19819603326016
501.198670861265
501.1991453966192
501.1996196394492
501.20009358988125
501.2005672480417
501.201040614057
501.2015136880535
501.2019864701575
501.20245896049516
501.20293115919264
501.20340306637615
501.20387468217166
501.2043460067051
501.20481704010274
501.2052877824905
501.2057582339943
501.20622839474015
501.20669826485425
501.20716784446256
501.20763713369104
501.20810613266565
501.20857484151213
501.209043260356
501.20951138932253
501.209979228537
501.21044677812495
501.21091403821185
501.211381008923
501.2118476903835
501.2123140827181
501.21278018605165
501.2132460005088
501.2137115262143
501.21417676329327
501.2146417118705
501.21510637207064
501.21557074401824
501.21603482783746
501.2164986236522
501.2169621315867
501.2174253517652
501.2178882843124
501.2183509293526
501.2188132870102
501.21927535740986
501.2197371406759
501.22019863693265
501.22065984630456
501.2211207689162
501.22158140489194
501.2220417543559
501.2225018174323
501.22296159424525
501.22342108491887
501.2238802895773
501.22433920834453
501.2247978413442
501.22525618869975
501.2257142505347
501.2261720269722
501.2266295181356
501.22708672414785
501.22754364513173
501.22800028121003
501.2284566325055
501.22891269914123
501.22936848124016
501.2298239789253
501.2302791923199
501.23073412154724
501.2311887667305
501.2316431279929
501.23209720545776
501.23255099924825
501.2330045094876
501.2334577362989
501.23391067980504
501.2343633401289
501.2348157173932
501.23526781172075
501.23571962323433
501.2361711520567
501.2366223983105
501.23707336211794
501.2375240436014
501.2379744428832
501.23842456008595
501.2388743953321
501.2393239487443
501.23977322044504
501.2402222105567
501.24067091920153
501.2411193465017
501.2415674925793
501.2420153575564
501.2424629415551
501.2429102446973
501.2433572671049
501.2438040088997
501.2442504702034
501.24469665113736
501.24514255182305
501.2455881723819
501.24603351293547
501.2464785736055
501.24692335451334
501.2473678557802
501.2478120775271
501.2482560198747
501.24869968294377
501.249143066855
501.249586171729
501.2500289976862
501.25047154484685
501.2509138133313
501.2513558032598
501.2517975147524
501.2522389479292
501.25268010290995
501.25312097981407
501.25356157876115
501.25400189987056
501.25444194326144
501.25488170905294
501.2553211973644
501.25576040831527
501.25619934202484
501.2566379986123
501.25707637819653
501.25751448089625
501.25795230683013
501.25838985611665
501.25882712887403
501.2592641252203
501.2597008452734
501.26013728915143
501.2605734569721
501.26100934885324
501.2614449649128
501.26188030526885
501.2623153700396
501.262750159343
501.26318467329713
501.26361891202
501.2640528756293
501.26448656424293
501.26491997797837
501.26535311695295
501.2657859812838
501.2662185710882
501.2666508864835
501.267082927587
501.2675146945161
501.267946187388
501.2683774063199
501.2688083514289
501.2692390228318
501.2696694206453
501.270099544986
501.27052939597036
501.2709589737145
501.2713882783347
501.27181730994664
501.27224606866605
501.27267455460867
501.27310276789046
501.2735307086274
501.2739583769352
501.2743857729291
501.27481289672426
501.2752397484354
501.2756663281774
501.2760926360651
501.27651867221323
501.27694443673647
501.2773699297494
501.2777951513664
501.2782201017018
501.27864478086997
501.2790691889853
501.27949332616197
501.27991719251384
501.28034078815483
501.28076411319864
501.28118716775896
501.28160995194924
501.28203246588293
501.2824547096735
501.28287668343467
501.28329838728007
501.2837198213234
501.28414098567816
501.284561880458
501.2849825057764
501.28540286174655
501.2858229484817
501.28624276609514
501.28666231470027
501.2870815944108
501.2875006053406
501.2879193476034
501.28833782131267
501.28875602658184
501.28917396352415
501.28959163225284
501.29000903288113
501.29042616552204
501.29084303028833
501.291259627293
501.2916759566491
501.29209201846936
501.2925078128666
501.2929233399533
501.2933385998416
501.2937535926434
501.2941683184705
501.2945827774348
501.29499696964774
501.2954108952207
501.2958245542653
501.29623794689303
501.29665107321523
501.2970639333431
501.29747652738786
501.29788885546066
501.2983009176727
501.29871271413515
501.29912424495944
501.29953551025676
501.29994651013806
501.30035724471406
501.3007677140953
501.3011779183922
501.3015878577154
501.30199753217505
501.3024069418817
501.30281608694565
501.3032249674769
501.30363358358534
501.3040419353805
501.30445002297176
501.30485784646874
501.3052654059808
501.305672701617
501.3060797334864
501.3064865016976
501.3068930063588
501.3072992475778
501.3077052254622
501.30811094011926
501.30851639165587
501.3089215801789
501.30932650579496
501.3097311686107
501.3101355687328
501.31053970626783
501.3109435813225
501.31134719400336
501.3117505444169
501.3121536326695
501.31255645886733
501.3129590231166
501.3133613255235
501.31376336619417
501.3141651452348
501.3145666627514
501.3149679188499
501.315368913636
501.31576964721523
501.3161701196931
501.31657033117506
501.31697028176666
501.3173699715734
501.31776940070074
501.3181685692542
501.31856747733934
501.3189661250616
501.3193645125265
501.3197626398395
501.3201605071059
501.32055811443104
501.32095546192033
501.3213525496791
501.3217493778126
501.32214594642585
501.32254225562394
501.3229383055117
501.32333409619366
501.323729627774
501.32412490035665
501.3245199140455
501.3249146689442
501.32530916515645
501.32570340278596
501.32609738193594
501.3264911027094
501.3268845652093
501.3272777695389
501.32767071580145
501.3280634040999
501.32845583453707
501.3288480072157
501.32923992223834
501.3296315797078
501.3300229797268
501.3304141223979
501.33080500782364
501.3311956361064
501.3315860073484
501.3319761216518
501.33236597911844
501.3327555798502
501.3331449239487
501.3335340115151
501.3339228426504
501.3343114174553
501.33469973603053
501.3350877984768
501.33547560489444
501.33586315538344
501.33625045004385
501.3366374889755
501.337024272278
501.33741080005086
501.3377970723935
501.3381830894051
501.3385688511845
501.3389543578304
501.3393396094415
501.3397246061162
501.340109347953
501.3404938350501
501.34087806750574
501.3412620454179
501.3416457688844
501.34202923800297
501.3424124528714
501.3427954135874
501.3431781202488
501.3435605729534
501.3439427717984
501.3443247168808
501.3447064082974
501.345087846145
501.34546903052035
501.34584996152
501.3462306392406
501.3466110637788
501.34699123523126
501.3473711536941
501.3477508192633
501.3481302320346
501.34850939210344
501.34888829956515
501.34926695451475
501.3496453570468
501.35002350725574
501.35040140523586
501.35077905108153
501.3511564448871
501.3515335867472
501.35191047675596
501.35228711500724
501.35266350159475
501.3530396366119
501.35341552015177
501.3537911523068
501.3541665331694
501.3545416628316
501.3549165413855
501.3552911689229
501.35566554553577
501.35603967131567
501.356413546354
501.3567871707422
501.3571605445717
501.3575336679338
501.35790654091977
501.35827916362075
501.3586515361279
501.35902365853224
501.3593955309242
501.35976715339405
501.36013852603185
501.3605096489274
501.36088052217053
501.3612511458508
501.36162152005716
501.36199164487846
501.36236152040317
501.3627311467193
501.3631005239148
501.36346965207747
501.3638385312946
501.3642071616533
501.3645755432407
501.3649436761435
501.36531156044873
501.36567919624315
501.3660465836134
501.3664137226457
501.36678061342593
501.36714725603963
501.3675136505723
501.36787979710937
501.36824569573594
501.368611346537
501.36897674959766
501.36934190500267
501.36970681283685
501.3700714731848
501.37043588613085
501.3708000517594
501.3711639701547
501.37152764140103
501.37189106558196
501.3722542427814
501.3726171730833
501.3729798565713
501.3733422933286
501.3737044834385
501.37406642698363
501.3744281240464
501.37478957470887
501.37515077905266
501.3755117371594
501.37587244911026
501.3762329149862
501.37659313486813
501.37695310883703
501.3773128369736
501.37767231935834
501.37803155607173
501.37839054719404
501.37874929280554
501.3791077929865
501.3794660478171
501.3798240573775
501.38018182174767
501.3805393410074
501.38089661523634
501.38125364451355
501.38161042891795
501.38196696852776
501.3823232634212
501.3826793136765
501.3830351193718
501.3833906805852
501.3837459973944
501.3841010698769
501.3844558981101
501.38481048217125
501.3851648221372
501.3855189180848
501.3858727700907
501.3862263782313
501.38657974258297
501.3869328632219
501.387285740224
501.387638373665
501.3879907636207
501.38834291016644
501.3886948133776
501.38904647332913
501.38939789009567
501.3897490637513
501.39009999436996
501.3904506820253
501.39080112679073
501.3911513287395
501.3915012879446
501.3918510044788
501.39220047841457
501.39254970982404
501.3928986987788
501.39324744535077
501.3935959496115
501.3939442116324
501.3942922314842
501.3946400092374
501.39498754496196
501.395334838728
501.39568189060526
501.39602870066335
501.3963752689714
501.3967215955985
501.39706768061353
501.3974135240852
501.39775912608195
501.39810448667197
501.398449605923
501.39879448390263
501.39913912067834
501.3994835163177
501.3998276708877
501.40017158445505
501.4005152570861
501.4008586888473
501.4012018798047
501.40154483002436
501.40188753957216
501.40223000851404
501.4025722369155
501.4029142248413
501.40325597235585
501.4035974795232
501.4039387464071
501.40427977307115
501.40462055957903
501.40496110599395
501.40530141237866
501.4056414787957
501.40598130530736
501.4063208919755
501.40666023886195
501.40699934602833
501.4073382135358
501.4076768414453
501.40801522981735
501.40835337871215
501.40869128818974
501.40902895830993
501.4093663891325
501.4097035807173
501.4100405331236
501.4103772464108
501.4107137206378
501.4110499558632
501.41138595214545
501.4117217095428
501.4120572281132
501.41239250791443
501.41272754900376
501.41306235143804
501.41339691527367
501.41373124056656
501.41406532737267
501.4143991757477
501.4147327857471
501.4150661574264
501.41539929084104
501.4157321860463
501.4160648430974
501.4163972620494
501.4167294429568
501.41706138587404
501.41739309085517
501.4177245579541
501.4180557872245
501.41838677871954
501.4187175324922
501.4190480485951
501.4193783270806
501.4197083680011
501.42003817140846
501.42036773735424
501.42069706588984
501.4210261570662
501.421355010934
501.42168362754376
501.422012006946
501.42234014919103
501.422668054329
501.42299572241035
501.4233231534858
501.42365034760627
501.4239773048229
501.42430402518715
501.42463050875034
501.4249567555641
501.42528276568004
501.42560853915
501.42593407602607
501.4262593763603
501.426584440205
501.4269092676122
501.42723385863377
501.427558213322
501.42788233172945
501.42820621390905
501.428529859914
501.42885326979757
501.4291764436129
501.42949938141345
501.42982208325265
501.43014454918415
501.4304667792616
501.4307887735385
501.4311105320682
501.4314320549044
501.431753342101
501.43207439371207
501.43239520979176
501.4327157903942
501.4330361355739
501.4333562453855
501.4336761198835
501.43399575912275
501.4343151631578
501.43463433204346
501.43495326583474
501.43527196458643
501.43559042835335
501.4359086571905
501.43622665115316
501.43654441029656
501.4368619346762
501.43717922434774
501.4374962793667
501.43781309978834
501.43812968566834
501.4384460370622
501.43876215402514
501.43907803661244
501.4393936848791
501.4397090988802
501.4400242786707
501.44033922430543
501.4406539358394
501.44096841332765
501.4412826568252
501.44159666638706
501.44191044206826
501.44222398392384
501.4425372920088
501.4428503663782
501.44316320708725
501.44347581419146
501.4437881877463
501.44410032780746
501.4444122344307
501.44472390767186
501.4450353475872
501.445346554233
501.445657527666
501.44596826794276
501.4462787751199
501.446589049254
501.44689909040216
501.4472088986217
501.44751847396986
501.447827816504
501.4481369262814
501.44844580335933
501.4487544477949
501.44906285964515
501.4493710389672
501.449678985818
501.4499867002548
501.45029418233474
501.4506014321152
501.45090844965347
501.4512152350068
501.4515217882328
501.45182810938894
501.4521341985325
501.45244005572084
501.4527456810112
501.45305107446114
501.4533562361282
501.4536611660698
501.45396586434384
501.45427033100776
501.45457456611933
501.4548785697363
501.45518234191644
501.4554858827177
501.45578919219787
501.4560922704149
501.4563951174268
501.4566977332915
501.457000118067
501.45730227181133
501.4576041945824
501.4579058864385
501.4582073474375
501.45850857763725
501.45880957709545
501.4591103458701
501.4594108840194
501.459711191602
501.46001126867685
501.460311115303
501.4606107315398
501.4609101174471
501.4612092730849
501.4615081985132
501.4618068937918
501.46210535898075
501.4624035941403
501.46270159933096
501.46299937461316
501.4632969200474
501.4635942356944
501.46389132161465
501.4641881778686
501.4644848045163
501.464781201618
501.46507736923394
501.46537330742416
501.4656690162487
501.46596449576754
501.466259746041
501.4665547671295
501.4668495590933
501.4671441219927
501.46743845588816
501.46773256084015
501.4680264369094
501.46832008415635
501.4686135026415
501.4689066924254
501.4691996535684
501.4694923861313
501.46978489017505
501.4700771657603
501.470369212948
501.47066103179935
501.4709526223755
501.4712439847378
501.47153511894766
501.4718260250665
501.4721167031559
501.4724071532775
501.47269737549317
501.47298736986494
501.4732771364551
501.473566675326
501.4738559865404
501.4741450701612
501.4744339262515
501.4747225548742
501.4750109560927
501.4752991299703
501.4755870765702
501.4758747959556
501.47616228818987
501.476449553337
501.4767365914608
501.47702340262543
501.47730998689525
501.4775963443346
501.477882475008
501.47816837898034
501.4784540563166
501.47873950708225
501.4790247313426
501.4793097291626
501.47959450060756
501.47987904574296
501.4801633646343
501.480447457347
501.4807313239468
501.4810149644997
501.4812983790716
501.4815815677286
501.4818645305374
501.4821472675648
501.48242977887793
501.4827120645438
501.4829941246298
501.48327595920335
501.48355756833206
501.48383895208366
501.48412011052613
501.4844010437275
501.48468175175566
501.4849622346789
501.48524249256565
501.4855225254843
501.4858023335034
501.4860819166915
501.48636127511753
501.4866404088502
501.4869193179583
501.4871980025111
501.4874764625776
501.487754698227
501.48803270952857
501.4883104965517
501.4885880593658
501.4888653980401
501.48914251264404
501.48941940324715
501.48969606991926
501.48997251273016
501.49024873174966
501.49052472704756
501.49080049869343
501.49107604675686
501.4913513713074
501.49162647241513
501.4919013501503
501.4921760045831
501.49245043578406
501.4927246438237
501.49299862877245
501.49327239070084
501.49354592967956
501.4938192457798
501.49409233907267
501.4943652096294
501.4946378575211
501.49491028281926
501.4951824855952
501.4954544659201
501.49572622386535
501.49599775950236
501.4962690729025
501.49654016413723
501.4968110332779
501.4970816803961
501.49735210556327
501.497622308851
501.497892290331
501.498162050075
501.4984315881549
501.4987009046428
501.4989699996108
501.4992388731309
501.4995075252752
501.499775956116
501.5000441657257
501.50031215417624
501.50057992153955
501.5008474678877
501.50111479329297
501.5013818978277
501.50164878156414
501.50191544457465
501.5021818869315
501.50244810870703
501.5027141099735
501.50297989080326
501.5032454512688
501.50351079144247
501.50377591139676
501.504040811204
501.5043054909365
501.5045699506665
501.5048341904664
501.5050982104082
501.50536201056383
501.5056255910053
501.50588895180493
501.5061520930348
501.50641501476747
501.50667771707543
501.50694020003147
501.5072024637083
501.50746450817854
501.5077263335149
501.5079879397901
501.5082493270767
501.5085104954475
501.508771444975
501.50903217573176
501.50929268779004
501.50955298122216
501.5098130561004
501.51007291249715
501.51033255048463
501.5105919701352
501.51085117152087
501.511110154714
501.5113689197869
501.5116274668116
501.51188579586045
501.51214390700596
501.5124018003207
501.5126594758771
501.51291693374804
501.5131741740062
501.5134311967244
501.5136880019756
501.513944589833
501.5142009603698
501.5144571136595
501.5147130497757
501.51496876879213
501.5152242707824
501.51547955582026
501.5157346239791
501.51598947533233
501.51624410995345
501.5164985279163
501.51675272929464
501.5170067141623
501.51726048259314
501.51751403466113
501.51776737044037
501.5180204900054
501.5182733934309
501.51852608079133
501.51877855216156
501.5190308076164
501.51928284723016
501.5195346710772
501.51978627923194
501.5200376717689
501.5202888487624
501.52053981028683
501.52079055641656
501.5210410872259
501.5212914027895
501.5215415031818
501.52179138847777
501.5220410587519
501.52229051407875
501.5225397545327
501.52278878018814
501.5230375911198
501.52328618740256
501.5235345691112
501.5237827363207
