486.99999999999994
487.1517395912008
487.3041127939101
487.457761213003
487.6133228586303
487.77141809207205
487.93265265406677
488.09763131501126
488.2669428163828
488.4411910878493
488.62093937794583
488.8067437269474
488.99915102405106
489.19867512365227
489.4058186930055
489.6210444172467
489.84481832449
490.0775813676483
490.31974751357944
490.57172177320535
490.8338617450712
491.10650037391645
491.3899401745204
491.68444746648015
491.9902554243137
492.30753641533147
492.6364440736541
492.9770964755995
493.3295595447657
493.69388742913844
494.07006680221036
494.458048728325
494.8577323996564
495.2689795166522
495.6916092454451
496.12538465053325
496.5700453097015
497.0252791139075
497.4907204837214
497.96597272923316
498.45057371350083
498.94402501705406
499.44577969536874
499.9552412005872
500.47176428047226
500.9946622893493
501.52323006456106
502.0567149430159
502.5943277140533
503.1352361330691
503.6785559201833
504.2233919039768
504.7688051436803
505.313821587243
505.8574560540796
506.398679482519
506.93644499202395
507.46969870371174
507.99737346148794
508.5184004426805
509.0317081096634
509.536212712309
510.0308286190814
510.5144787215394
510.98610290905003
511.4446273555669
511.8890013646575
512.3181815224835
512.7311309176124
513.1268487751584
513.504351821822
513.8626947288298
514.2009664593113
514.5182974542649
514.8138712686878
515.0868814625757
515.3365842942449
515.5622789751251
515.7633184462927
515.9391290279617
516.0891776660305
516.2130001864775
516.3101878139117
516.380391117677
516.4233325771721
516.438786142478
516.4266200565601
516.3867523716063
516.319143477302
516.2238381314075
516.1009236383228
515.9505552449248
515.7729480608855
515.5683773693902
515.3371875752479
515.079783387171
514.7966540539963
514.488330165761
514.1553904823031
513.7984682826285
513.4182266174644
513.0153856160673
512.5907215004141
512.1450617835916
511.6792829362085
511.19430189149585
510.69108329579785
510.1706582604158
509.6340936884166
509.08250167493117
508.5169858478369
507.938703657854
507.3488409966852
506.7485888496451
506.1391654897261
505.52179430026405
504.89773128698937
504.26822410386205
503.6345337262569
502.99792254980235
502.3596459965912
501.72099161019054
501.0832657052116
500.4477847138305
499.815877748458
499.1888851181264
498.568192680922
497.9551797645174
497.35123327456773
496.75775133340034
496.1760989291778
495.60764195234793
495.0537350329465
494.51572451513556
493.99494451726264
493.4927192300359
493.01037838937265
492.54922031324094
492.11053158016284
491.69559123329117
491.30563771931963
490.9418968604244
490.605557083019
490.29777718049587
490.01970706964534
489.77244974415476
489.5570625462461
489.3745246281411
489.2257822502661
489.1117327947511
489.03322885750083
488.9910696228322
488.98597915261945
489.0186262703365
489.08961427253433
489.19945343755364
489.3485861420404
489.53736175382795
489.7660223642566
490.03471432639077
490.3434644823553
490.6921954090674
491.08071870412897
491.5087373711378
491.97582864436765
492.48143771477794
493.0249111241916
493.605463041887
494.2221881692631
494.8740711252859
495.5599749853579
496.27863744481755
497.02866330064046
497.80853272388714
498.61658810579723
499.4510385832771
500.3099936462718
501.1914473241757
502.0932806381222
503.0132779017224
503.9491042159443
504.8983426141533
505.85847260748375
506.8268862898178
507.8009134950742
508.77781466349325
509.7548050877309
510.7290247336917
511.69759795268374
512.6576725540253
513.6063707715858
514.5408308536544
515.458201109318
516.355651717131
517.2304019710276
518.0797084218434
518.9008833350116
519.6913013947491
520.448434421972
521.1698706779032
521.8533012304476
522.4965497392968
523.0975620470797
523.6544274472217
524.165392304896
524.6288397796199
525.0433358954577
525.4076064038879
525.7205249855941
525.9811319222157
526.1886177811363
526.3424280764642
526.4422299132285
526.4878900280137
526.4795012826723
526.417363416423
526.3020011542104
526.134136362195
525.9147083821553
525.6448660896423
525.3259558352763
524.9595357676062
524.5473373132271
524.0912499439706
523.5933244186816
523.0557528466737
522.4808625877572
521.8710796528649
521.2289469952647
520.5571127684941
519.8583238077723
519.135438303767
518.3914057018616
517.6292446041828
516.8520405535882
516.0629089549118
515.2649841981691
514.4613841633987
513.6552245852988
512.8495959923904
512.0475360151813
511.2520476005629
510.4660737831356
509.69249499741636
508.93412291873506
508.19365124197066
507.4736837182782
506.77671516767157
506.1051226811293
505.4611423292732
504.84686824620013
504.26424153044013
503.7150486114393
503.20090949243934
502.72328187304066
502.2834439957175
501.8825287961684
501.5214957634846
501.2011346167558
500.9220810830592
500.6847943817807
500.4895773434256
500.3365579357544
500.2257063080719
500.1568480353926
500.129662981777
500.1436983856685
500.1983453093429
500.2928634414671
500.42640388672464
500.5979864340416
500.8065207565452
501.0508233054465
501.3296214886229
501.6415624833544
501.9852244919431
502.3591326252721
502.76175519530346
503.19151303364964
503.6467996461631
504.1259596427742
504.6273302135661
505.14923839559737
505.69001131596923
506.247997326126
506.8215386140437
507.4090109156295
508.0088057736018
508.6193649994867
509.2391642748151
509.86670438417775
510.5005563379291
511.1393341990429
511.7817091119338
512.4264073827069
513.0722055284256
513.7179662928564
514.3626155774676
515.00515203579
515.6446453369706
516.2802098897654
516.9110392304124
517.5363963329332
518.1556148725717
518.7680916434435
519.373278629783
519.9707145103229
520.559975365856
521.1407105343216
521.7126394151495
522.2755424093698
522.8292898296672
523.3737635619626
523.9088473788472
524.4344639871649
524.9505586614451
525.4571107506977
525.9541227653358
526.4416135192521
526.9196174797643
527.3881704409613
527.8473431251662
528.2971874500502
528.7377527301755
529.1690995978896
529.591279354966
530.0043532252803
530.4083751635104
530.8033952909515
531.1894706232825
531.5666350506798
531.9349047968867
532.2942641602411
532.6446510727424
532.9859925897412
533.3181616072172
533.6410189330835
533.9543943554241
534.258105596119
534.5519581533504
534.8357327381477
535.1091997847545
535.372097290679
535.6241371813668
535.8650072358656
536.0943597242244
536.3118306636318
536.5170262431124
536.7095308632378
536.8889327084506
537.0547928566291
537.2066713452954
537.3441095455997
537.4666432776471
537.5738116077796
537.6651395455351
537.7401666888898
537.798418980646
537.8394153113502
537.8626935958621
537.8677864997856
537.8542366094294
537.8216049413132
537.7694708922729
537.6974411749092
537.6051171103181
537.4921184269759
537.3580890672506
537.2027075128942
537.0256953508202
536.826775538539
536.605713624583
536.3622998006514
536.0963591940979
535.8077466841539
535.4963459744863
535.1620836562116
534.8049211589951
534.4248509846591
534.0219145687176
533.5961784120173
533.1477737918572
532.676873248425
532.183678085948
531.6684406595788
531.1314448732182
530.5730304682354
529.9935646926765
529.3934837810195
528.7732603455659
528.1334015574653
527.4744447632763
526.7969369730678
526.1014660010494
525.3886649919858
524.6591995819977
523.9137748408407
523.15311779365
522.3779904194905
521.5891851918017
520.7875118143977
519.9738279140952
519.1490022622468
518.3139195327007
517.4694782747727
516.6165931508838
515.7561949848799
514.8892175915188
514.0166153527871
513.1393372136503
512.2583266762808
511.3745347265741
510.4888953308145
509.6023445614337
508.71583582201276
507.83031189981614
506.9467166514311
506.06599158765897
505.189055233461
504.3168242524177
503.4501865984497
502.590018403994
501.7371499915533
500.8924059757046
500.0566040479031
499.2305233879159
498.4149387251528
497.61059315293943
496.8182105362791
496.0385016135499
495.27213295980994
494.5197549773051
493.7819883652308
493.05943470120275
492.3526896466153
491.6622907455862
490.98877882232176
490.33266094170347
489.6944282752242
489.0745544219529
488.47347616075996
487.8916112682435
487.32935436438413
486.78708164987796
486.26515358120736
485.76390005551457
485.2836426907443
484.8246909374995
484.3873342361099
483.9718495519858
483.57846913728577
483.2074244698501
482.8589198689165
482.53316297105073
482.2303539454091
481.9506750093396
481.69429764355743
481.4613611626961
481.2519924056908
481.06632099657935
480.90443995346146
480.7664382473491
480.6523961668397
480.56237198536184
480.4964147444263
480.4545374725296
480.4367537273874
480.4430639473116
480.4734374195393
480.5278354738536
480.60617974020863
480.70837954656196
480.8343111095464
480.9838402699993
481.15679932708855
481.3529924185707
481.5722052907607
481.8141822268403
482.07863334717825
482.3652571248331
482.6736909058657
483.00354667353514
483.3543895511828
483.72574452475806
484.11712308285297
484.52798479619224
484.9577626784228
485.40584065283247
485.8715707007704
486.3542329386532
486.8530631434737
487.3672627993086
487.89599654081144
488.43840792937215
488.99360320139573
489.5606353738864
490.1385257179666
490.7262526524301
491.32275605799055
491.92693947299165
492.53766137901687
493.1537592920938
493.7740213353353
494.3972168765643
495.022090160676
495.64736516781716
496.2717418535008
496.8938989309673
497.5124965727155
498.12618339278697
498.7335991896455
499.3333910842628
499.92420360293266
500.5046865424335
501.0735051822376
501.6293177658184
502.1708075950413
502.69666906973043
503.20560448190645
503.696351227625
504.1676608911129
504.61833305336387
505.0472033031015
505.45315339980027
505.83511935152865
506.19206660761034
506.52302876395186
506.8270695408413
507.103307697708
507.3509217790284
507.5691413863437
507.75726667862074
507.9146746165575
508.0408078122375
508.1351764581823
508.1973488164962
508.22699853556344
508.22385802675495
508.1877306603854
508.1184981379676
508.0160967897706
507.88054146679167
507.71190951623583
507.5103548088376
507.27611706317043
507.00949190954407
506.71085557940665
506.3806367243507
506.01932269255786
505.6274852026709
505.20575376720507
504.7548465214231
504.2755293409635
503.7686144086849
503.2349669312418
502.67548731017126
502.0911347729216
501.48292053146497
500.85191250856053
500.1992340071431
499.52605610567
498.83362150305675
498.12320164143784
497.3960803837872
496.6535742881957
495.8970062333951
495.1277419264507
494.3471712229082
493.55670662798906
492.757799139429
491.95187944536696
491.1404032366497
490.32483667795844
489.5066634644344
488.6873694269192
487.8684551691714
487.0514553584862
486.2379191201656
485.42942408564363
484.62755851324744
483.83389277538765
483.05002759359616
482.27756852080864
481.5181206244403
480.7732834102959
480.0446191204751
479.3337035362937
478.6420869209628
477.971327139795
477.3229593954305
476.6985077407702
476.09947899803404
475.5273475395043
474.9835592761839
474.4695240777275
473.9866119907821
473.53616663378307
473.1194943512968
472.737857726477
472.39246898807085
472.08448750439317
471.81502376712245
471.58511482757916
471.39573898233124
471.24780633215335
471.1421450308433
471.079507269868
471.0605578361498
471.08587381970347
471.15594446923365
471.2711538300995
471.43179866451226
471.63805860505204
471.88999501209184
472.18756082707074
472.5305711423121
472.9187440219943
473.3516586579668
473.8287707746751
474.34940874309837
474.91275695235464
475.5178810193717
476.16370968546767
476.8490412488074
477.57254621031103
478.3327396977319
479.12801756363655
479.9566403566001
480.8167574100158
481.7064012376809
482.6234782935964
483.56579532661686
484.5310558857621
485.516844372263
486.52066082801053
487.5399104759195
488.5719355606633
489.6139908146889
490.6632741579819
491.71693622767157
492.77207955034555
493.8257999854536
494.8751723000912
495.9172825773845
496.9492087765627
497.96801878314966
498.9708272363171
499.95478906623805
500.917115274337
501.8550866466663
502.76603636248313
503.64739089732745
504.49665976202976
505.31147489878947
506.0896102412484
506.8289484937362
507.5275235931175
508.18350078567613
508.79519691455266
509.3610883646931
509.87980224172503
510.3501056525506
510.77090998866515
511.141314660898
511.4606480981306
511.72842818062145
511.9444040733453
512.1085152985936
512.220892412184
512.2818551987443
512.2918950495587
512.2517360557789
512.1622873280364
512.02465476074
511.8401376717183
511.6102016528114
511.3364796513047
511.0207326306413
510.6648503380462
510.2708372068998
509.8408119069151
509.3770166296212
508.88178361226517
508.3575331467386
507.80677274057024
507.23208260540883
506.63612296729224
506.0215885510893
505.39121738065205
504.74775765342093
504.09396495998845
503.4325973913777
502.76639979066164
502.09809714080683
501.4303863454752
500.7659089927168
500.107257551642
499.45695148893725
498.81742052985635
498.1910190558139
497.5799976676253
496.9865062210188
496.4125821530078
495.86014852194006
495.3310107763164
494.8268324134213
494.34915735026163
493.8993893459621
493.4788007659122
493.08853129264793
492.72956995475795
492.40277505337315
492.10884643737944
491.84835288351667
491.62174051027466
491.4293114024939
491.27125545441965
491.1476192390027
491.05833652668974
491.00322210734595
490.98197700830514
490.99421172990697
491.03943275931
491.1170469187554
491.226376693435
491.36665372635616
491.5370607465489
491.73671264118923
491.9646684720036
492.2199435164152
492.5014929510587
492.8082479430764
493.13910103255
493.49291739509397
493.8685568305167
494.2648517932795
494.6806483887385
495.114787828161
495.56612263651317
496.03352819807697
496.51589001850857
497.01211690000343
497.52112700004363
498.0418680613316
498.57331276628804
499.1144645499769
499.66437862850444
500.2221431870262
500.7868797439303
501.3577563221067
501.9339740964232
502.5147976869095
503.09952429063117
503.68748998044896
504.2780646180541
504.87064396479514
505.46468108998977
506.05966114561505
506.65510920655214
507.25058294400503
507.84566962993387
508.4399920057643
509.03322342583573
509.62506659598415
510.21525863076573
510.80352954717125
511.38963900951774
511.9733403080633
512.5544006475767
513.1326036370257
513.7077386297842
514.2796098029413
514.8480053198563
515.4127161341645
515.9735259619662
516.5301897600061
517.0824664219286
517.630103229042
518.1728468573853
518.7104461975264
519.2426405896174
519.7691684012093
520.289758577093
520.8041271642378
521.3119874419208
521.8130232656765
522.3069173494209
522.793333874404
523.271921246234
523.7423172368824
524.2041346732233
524.6569888772449
525.1004816241257
525.5341985007808
525.9577215045471
526.3706087973358
526.7724248043306
527.1627222012492
527.5410414278177
527.9069364307522
528.2599413096386
528.5996026273416
528.9254658037642
529.2370658680184
529.5339551418739
529.8156739246085
530.0817824752673
530.3318425608533
530.565420870777
530.7820988327287
530.9814516344254
531.1630796391457
531.3265915981071
531.4716209072884
531.5978157845581
531.704827135372
531.7923356758544
531.8600308949459
531.9076228563674
531.9348429818177
531.9414426153076
531.9272005049589
531.891908371368
531.8353716072618
531.7574360966894
531.657956022917
531.5368251867834
531.3939446876767
531.2292428248211
531.0426795387536
530.8342179836483
530.6038748081806
530.3516896709866
530.0777278081775
529.7820870110562
529.4648848980936
529.1262901297462
528.7664859855358
528.3856797317296
527.9841117385299
527.5620315300839
527.1197304713692
526.6575241816513
526.1757656766736
525.6748410571952
525.1551455579703
524.6171184764808
524.0612233116308
523.4879387507958
522.8977799492772
522.2912759108386
521.6689927201312
521.0314995931302
520.3794002621246
519.7133316298224
519.0339496264733
518.3419370250427
517.6379870680317
516.9228044246884
516.1971234764934
515.461689529204
514.7172751518074
513.9646638193283
513.2046510860328
512.4380633435918
511.66572206845075
510.88847365221994
510.1071645371027
509.3226513677445
508.5357936089155
507.74743932891624
506.95844781514757
506.1696792631528
505.38199763926445
504.5962647438248
503.8133363697227
503.03408706312337
502.25937617342504
501.4900576834445
500.7269811684682
499.97098180098914
499.22289451174186
498.4835398520905
497.75372512258787
497.0342543087292
496.325898694637
495.6294287032669
494.9455865328072
494.2750958091547
493.618669070669
492.97698906664016
492.35074054409176
491.74057004919985
491.1471047682436
490.5709604437269
490.01271444714456
489.4729379881396
488.95216936145584
488.45092226005266
487.96969862167487
487.5089578244261
487.0691427255409
486.6506641364674
486.25390051859364
485.8792262240193
485.52696112223265
485.1974207708934
484.8908769299004
484.6075748569266
484.3477439326379
484.11157560534906
483.899251841429
483.7109190594583
483.54669486372063
483.4066746573145
483.29091859045235
483.1994670747756
483.1323233526045
483.0894577679372
483.07083154932104
483.07636819870896
483.1059599987023
483.15947204274414
483.2367396567925
483.33759446390667
483.4618250096918
483.609209835172
483.77949381235356
483.972406201339
484.18764390780376
484.42486549590245
484.6837201289729
484.9638042359102
485.2646831981842
485.5859082448082
485.92698966817284
486.28742252621055
486.66667054856265
487.06417208823484
487.47934633589443
487.91157553039926
488.36022671402674
488.8246319813515
489.30409723540004
489.7978955951566
490.3052649492348
490.82543417149236
491.3575992868117
491.9009347209736
492.454600605773
493.01771536862356
493.5893895869965
494.1686943192074
494.7546930087433
495.34641658858516
495.9428668748535
496.5430351296959
497.145883587189
497.7503598607201
498.3554049539
498.95993295049914
499.5628610512063
500.16308290021544
500.759494547803
501.3509834450753
501.9364196542359
502.5146688641752
503.08458548937955
503.64502080253175
504.19483102337773
504.7328767486823
505.2580402629466
505.7692125346306
506.26530229739177
506.74523881257073
507.2079617891083
507.6524310724547
508.077618452323
508.4825299599876
508.86619772902054
509.2276805415138
509.56607080977034
509.8804948523552
510.1701218145764
510.43415511262486
510.67183671978444
510.882468854403
511.0654008427143
511.2200335037203
511.34581916602514
511.4422614338385
511.50892796828197
511.5454280899689
511.55144042177153
511.52671204616723
511.47103787065714
511.3842814559063
511.26635167514934
511.1172181412882
510.9369195979824
510.72554572398167
510.48325593947834
510.2102673818197
509.9068645539909
509.5733958827512
509.2102569356024
508.8179217065515
508.3969039749924
507.9477929456275
507.4712366273571
506.96793407607254
506.4386540201651
505.8842056966118
505.30545356286126
504.7033167878835
504.07875131467347
503.43278881525197
502.7665302849081
502.08112767483027
501.3777904514293
500.65771768291376
499.9221493353067
499.1723684037206
498.40968727785184
497.63547739012233
496.8511175516356
496.0580249276052
495.2576371792726
494.4514093120171
493.64081188637823
492.8273306658976
492.0124964083117
491.19786430237275
490.3850356887986
489.57565001660447
488.7713467962657
487.9737979579275
487.1846835833878
486.4056720944754
485.63844833006226
484.88468456551016
484.14606399436855
483.4242647577201
482.7209527838284
482.0377985872095
481.3764635155564
480.73860158215047
480.1258525659907
479.5398285697904
478.9821156739406
478.4542533041932
477.9577592014433
477.4941057814721
477.064733528536
476.6710314286425
476.3143390620672
475.9959420354023
475.7170561053127
475.47884387764503
475.2824031447903
475.12874876814
475.01882299316037
474.95347276909615
474.9334576537295
474.95943796337446
475.0319628912602
475.15148930609246
475.31837248677016
475.53285095414316
475.7950579067909
476.10498714659485
476.4625160639764
476.86738935062533
477.31921841812704
477.81747890077827
478.36149309383393
478.9504608018003
479.58344488792983
480.25936415661
480.97699756911004
481.73498240815
482.5318152589674
483.3658622364982
484.23535236482843
485.1383868862109
486.0729450127059
487.03688841220685
488.02795105649324
489.04376241600727
490.0818429354017
491.1396222549092
492.2144296995212
493.30351152568716
494.40403557981233
495.5131073693789
496.6277600832366
497.7449909344099
498.8617696044234
499.9750562975545
501.08180977951235
502.1789718920121
503.2635112512623
504.3324255965099
505.3827489394223
506.4115674466922
507.4160330169404
508.393376884649
509.3409141936631
510.2560745345523
511.13639055499
511.97950772484836
512.7831952431267
513.5453445324326
514.2640057031876
514.9373901370026
515.5638698686895
516.1419978320466
516.670463142942
517.1480985187046
517.5739246044076
517.9471491379169
518.2672340109042
518.5338604656436
518.746908014941
518.906470703299
519.0128095381563
519.0663985084384
519.0679025874285
519.0181862473221
518.9183243320696
518.769582829329
518.5734307372785
518.3314730392665
518.0454591031955
517.7172827917129
517.3489438226012
516.9425821326824
516.5004453376868
516.0248812953971
515.5183583216851
514.983419239368
514.4226961676549
513.8388767128349
513.234689286708
512.6129207737133
511.9763661379824
511.32783023473706
510.6701095475498
510.00597360438906
509.3381769043575
508.66942959580274
508.0024191830004
507.33977633604457
506.6840526116498
506.03773159642157
505.40319274374633
504.78272856855926
504.1785254636158
503.5926522079271
503.0270578700966
502.4835506203521
501.9638276622434
501.4694449438263
501.00181858241854
500.5622336285875
500.15181654807583
499.77157200073964
499.42234596158863
499.1048353474566
498.81960906660487
498.56707939843966
498.34754634091655
498.16117491346654
498.00799503327244
497.88791716434446
497.8007220798653
497.7460992837076
497.723615901091
497.7327405055916
497.7728584867518
497.84326165756374
497.9431731686942
498.07175094819326
498.22808051367724
498.4111983881074
498.62007387737395
498.85364518708155
499.1108049156757
499.3904248328201
499.69134302515266
500.01238556747944
500.3523680274279
500.7101120146222
501.0844418757451
501.4742096310367
501.8782716904861
502.2955178156601
502.7248603616343
503.16522957452173
503.61559213047923
504.07493839953673
504.54231976878856
505.0168134930056
505.49752849176144
505.9836344890456
506.474331803767
506.9688666673989
507.4665284809747
507.9666467772818
508.46858546989745
508.97175628975504
509.4756235382249
509.9796961106323
510.48352861140097
510.98671375843537
511.4888703053031
511.9896637295522
512.4887855036059
512.9859811098884
513.481048302179
513.9738009124803
514.4640871830316
514.951757170555
515.4366534663715
515.9186449191722
516.3975920622418
516.8733735590662
517.345861858736
517.8149397673369
518.2804859349727
518.7423729072708
519.2004713548811
519.6546343943005
520.1047280490094
520.5506275099049
520.9921854774814
521.4292666836585
521.8617129637275
522.2893545112344
522.7120170169846
523.1295049749214
523.5416159250843
523.9481244466962
524.3487926156372
524.7433830881346
525.1316265603665
525.5132528352586
525.8879785753779
526.2555151836264
526.615568415518
526.9678207240828
527.3119528792196
527.6476238133966
527.9744720452541
528.2921454452478
528.6002587024478
528.8984447256815
529.1863229094951
529.4635089775807
529.7296293115252
529.9842938239302
530.2271300656715
530.4577362109912
530.6757210953919
530.8807069461725
531.0722994808151
531.2501302455904
531.4138223708763
531.563006695489
531.6973314285441
531.8164323863978
531.9199665917266
532.0075976050824
532.0789830109617
532.1338100050402
532.1717610853773
532.1925433606436
532.1958629827072
532.181447684522
532.1490366191169
532.0983722567905
532.0292184056211
531.9413409522222
531.8345233195621
531.7085753630058
531.5633140669494
531.3985991763936
531.2142925348581
531.0102809541195
530.7864771871743
530.5428167554657
530.2792593832148
529.9957794274733
529.6923757873523
529.3690772754837
529.0259259959213
528.6630022235167
528.280398988561
527.8782335818067
527.4566697706471
527.015881006178
526.5560835521346
526.077510292547
525.5804282397154
525.0651561752326
524.5320189183924
523.9813868438738
523.4136541027799
522.8292451967955
522.2286258341087
521.6122877301414
520.9807463856281
520.3345449288902
519.6742665531193
519.0005253103271
518.3139591772665
517.6152405595166
516.9050603282374
516.1841400883653
515.4532334450086
514.7130965281694
513.9645195703464
513.2082880163674
512.4452085677286
511.6761197527852
510.9018610623346
510.1233098944058
509.3413687076727
508.5569704617908
507.7710561622592
506.984570125975
506.19845498858155
505.41365060143175
504.6310969838969
503.85173040512456
503.0764637559684
502.3062211838787
501.5419200886618
500.7844796955382
500.0348278179892
499.2938795647023
498.5625404124396
497.8416918383976
497.1322097470853
496.43495235464604
495.7507480734362
495.0804117005766
494.42473427090755
493.78447730960465
493.16037571443024
492.553142655488
491.9634748001354
491.3920337456375
490.83945805923156
490.3063734040031
489.7933614658242
489.3009969767407
488.8298083839631
488.3802865768001
487.95289776371885
487.5480655887867
487.166188366796
486.8076211699188
486.4727104734499
486.1617635033105
485.87503710829395
485.6127767774125
485.37518789143485
485.16244426515146
484.9747055756288
484.81208687872356
484.6746896491227
484.5625804672646
484.4757827365357
484.41430772971376
484.3781177521161
484.36716362969185
484.38136106537223
484.42059984098245
484.4847398177271
484.57361342408984
484.68703259071077
484.82478044105954
484.98662060682244
485.1722912526725
485.38149017925747
485.6139013290461
485.8691619537309
486.1468886402917
486.44667477982506
486.76807255763674
487.11061187475406
487.47380165132813
487.8571336484277
488.2600735431382
488.68204985277794
489.12246905694104
489.5807022249409
490.05610461402836
490.5480115593887
491.05571250687746
491.5784819149359
492.11556206692944
492.6661656293356
493.22948926422976
493.80467460853936
494.3908544672526
494.9871334119029
495.592594930587
496.2063001299462
496.8272733234248
497.45453358590345
498.0870785988357
498.7238753925208
499.36385948610945
500.00594461783646
500.64903247354647
501.29200724467063
501.933734704229
502.573072212249
503.2088502124497
503.8399152140724
504.4651098376942
505.083295235523
505.69333045690314
506.29406733644805
506.8843629934301
507.4630614106906
508.0290049528712
508.5810430441619
509.11802968397194
509.63885164881526
510.14241317132115
510.627647141633
511.0935132827186
511.5390008352401
511.9631534876263
512.3650333977024
512.7437374700226
513.0984089411273
513.4282137251656
513.7323623066142
514.0101050612284
514.2607537442952
514.4836635406351
514.6782368219418
514.8439420322557
514.9803040782194
515.0868924662085
515.163352971236
515.2093889956786
515.2247625729437
515.2092928815002
515.1628677277637
515.0854242369905
514.9769376858413
514.8374489556651
514.6670541751884
514.4659138794636
514.234262435642
513.9723760165338
513.6805973342354
513.359331961882
513.009040619998
512.6302270459245
512.2234409570916
511.78929423929765
511.3284355367548
510.8415640715029
510.3294283176477
509.7927984184392
509.2325018783729
508.6494025206246
508.0444169170752
507.41853589973147
506.7727903714576
506.1082575721518
505.4260327607563
504.72722911484067
504.0129835197646
503.2844484498042
502.54280711793706
501.78926825642
501.0250692785355
500.2514769305326
499.4697613579511
498.6812243248757
497.8871742559902
497.0889533359321
496.28794700850943
495.4855544950913
494.68322540049076
493.8824356077771
493.08466591338674
492.2914177168603
491.5042045580517
490.7245591879677
489.95402535269375
489.19416269535225
488.4465450989414
487.71274587372864
486.9943513819736
486.29295046948846
485.61013240543707
484.9475000285757
484.30664125321175
483.68915529643857
483.0966197575198
482.53058995104413
481.9926107116728
481.4841950317326
481.0068483582386
480.56202688247237
480.15114788725117
479.77560627621165
479.43675181087684
479.13589485986523
478.8742857960962
478.6531183985345
478.4735376555586
478.336617204213
478.2433612467997
478.19466928437566
478.19133740990185
478.23405225104665
478.32337337851015
478.4597654793368
478.64359335823275
478.87511783568004
479.15449038779235
479.48172224993084
479.8567044010519
480.27918413985805
480.7487684042027
481.264916628065
481.8269404772887
482.43400622131577
483.0851221679906
483.77915519378075
484.51481747041595
485.2906689109576
486.1051377907812
486.9564966070634
487.84288911208654
488.7623209181302
489.7126643038842
490.6916684795685
491.6969443406316
492.725978016259
493.77616028471357
494.8447619355185
495.92895983713777
497.0258393529413
498.13241907606726
499.2456433031778
500.3624145609987
501.47961836080776
502.5941206981009
503.70275541342005
504.8023598997973
505.8897670677718
506.96185008059115
508.0155060818266
509.04767691313504
510.0553717008204
511.0356718972095
511.9857580352943
512.9029142626738
513.7845369291164
514.628149084899
515.4314010136517
516.1921050424279
516.9082190601124
517.5778638294879
518.1993037349271
518.7709249770081
519.2912806688868
519.7591030112166
520.1733404943169
520.5331796755355
520.8380326272049
521.0875471044084
521.2815779124985
521.4201845302227
521.5036348865975
521.5324021182593
521.5071964453737
521.4289297248135
521.2987283576988
521.1179110512766
520.8879416830765
520.6104660798037
520.2872618238786
519.9202386464099
519.511474306138
519.0631662779043
518.5776437130612
518.0573521650334
517.5048463915297
516.9227738341084
516.3138553397534
515.6808895252534
515.0267308041891
514.3542717480665
513.6664296704275
512.9661131511775
512.2562362512821
511.53969102692884
510.819350898246
510.0980636017132
509.3786163188909
508.6637561619267
507.95613920249195
507.25835461521956
506.5729170534561
505.90221857920494
505.248546879178
504.61406237845995
504.00080223626384
503.4106806460685
502.8454481939096
502.3067083744418
501.7959234723451
501.3144237560778
500.86341160335553
500.4439453188572
500.05697721169213
499.7032969904815
499.3835327213333
499.09816273946313
498.84750358312886
498.63174850705144
498.45096056968015
498.305066399372
498.1938833182727
498.11710991883547
498.07433693716104
498.06504745345995
498.08862388054854
498.1443703973146
498.2315030443395
498.34916188611345
498.4963987029549
498.6722214142616
498.8755683822148
499.10531512706683
499.36030231144434
499.6393481399024
499.94125456412354
500.26481828234375
500.6088133240017
500.972019470381
501.3532133869322
501.75118802634864
502.1647366300565
502.5926822589911
503.03386104201337
503.4871287410047
503.95134889800573
504.4254372374611
504.9083289997917
505.39900703575603
505.89648116182974
506.39981300330464
506.9081033853531
507.4204880768966
507.93616154035635
508.454356799229
508.97433822963404
509.4954246055827
510.0169551105882
510.53832733695657
511.05896514587323
511.57833686315325
512.0959429036446
512.6113388593202
513.1241443837924
513.6340159629447
514.1406506748816
514.6437679051667
515.1430903653333
515.6383416755883
516.1292537449119
516.6155799540693
517.097095170428
517.5735803757813
518.0448265789033
518.510611772615
518.9707254153226
519.4249510634186
519.8730619285807
520.3148560356813
520.7501306580153
521.1786902816845
521.6003686336554
522.0149704258315
522.4223097183744
522.8221894934904
523.214409888666
523.5987546999685
523.9749976078285
524.3429062269757
524.7022352583033
525.0527327885749
525.3941446501403
525.7262125953602
526.0486949130529
526.3613417024139
526.6639033155885
526.9561279604002
527.2377460273201
527.5084979276494
527.7681069362689
528.0163022040939
528.252813072499
528.4773563646202
528.6896805413925
528.8895359371311
529.0766868820346
529.2509130048563
529.4119886801319
529.5597151134675
529.6939002030787
529.8143535162998
529.9208982292716
530.0133563248304
530.0915728845042
530.155380916799
530.2046359028002
530.2392220962558
530.2590372895344
530.2640086065242
530.2540668781808
530.229144746852
530.1891941773619
530.1341599284057
530.0640072422663
529.978718721278
529.8782913669014
529.762746956612
529.6320986734855
529.4863942726635
529.3256851179532
529.1500393393452
528.9595351717169
528.7542586962709
528.5343281685324
528.2998660282166
528.0509860772534
527.7878195013883
527.5104881443058
527.2191323423519
526.9138992399768
526.5949531441614
526.2624685347201
525.9166277093514
525.5576096894281
525.1856117102458
524.8008248306447
524.403470969773
523.9937569711415
523.5719117783738
523.1381645106409
522.6927511041421
522.2359186414424
521.7679188154146
521.2890169812994
520.7994704047458
520.2995412429273
519.7895095475349
519.2696512800931
518.7402734275049
518.2016706152752
517.6541538345327
517.0980418867422
516.5336595510358
515.9613357094594
515.3814077430048
514.7942260281719
514.2001541535623
513.599553813856
512.9928024617317
512.380293640983
511.76243093861905
511.1396239591917
510.5122863686161
509.88084918067176
509.24574995106065
508.60744168505585
507.96638848835806
507.32306337184474
506.67796158228884
506.0315767484379
505.3844117437688
504.73699815786597
504.0898479456797
503.44350338330617
502.7985126322241
502.1554338406646
501.514836902546
500.87730307278036
500.2434225386365
499.6137940267761
498.9890243099682
498.3697276148255
497.7565161790271
497.15001030093964
496.55082616179214
495.95958318695824
495.37691358871876
494.80345235785
494.23985176063513
493.68675674774323
493.1448110967967
492.61467013145153
492.0969740813031
491.59236737255986
491.1014737576743
490.62491271700344
490.16329602416727
489.71721531917734
489.2872601736893
488.87400767609404
488.4780296821487
488.09989600364946
487.740153699691
487.39933259908304
487.0779351909912
486.77644599286185
486.49533210304963
486.2350260369892
485.99594121609766
485.7784589432767
485.5829351433522
485.40970727389123
485.25908618903117
485.1313747751643
485.0268368356799
484.94569663875717
484.8881470099878
484.85432883249723
484.8443607745153
484.8583119920734
484.8962207406749
484.95809798516365
485.0439005970299
485.1535615115654
485.2869607920151
485.4439404372152
485.6243107259888
485.82782602587156
486.0542131132976
486.303149328502
486.57426252254993
486.86713947386744
487.18131443126936
487.51628835085603
487.8715309374159
488.24645454859143
488.64044727869003
489.05283827328634
489.4829354479401
489.92999782195756
490.3932451495289
490.8718698913285
491.36500990685744
491.8717736100668
492.39123668376754
492.92244127971037
493.4644042174708
494.01610553992566
494.5764968564374
495.1444942175148
495.718999474139
496.2989000438486
496.88304484305996
497.47028156218096
498.05944160887725
498.649334078527
499.23876366827056
499.82651569574455
500.41137624200985
500.99211948980206
501.56752341374295
502.13636578157985
502.6974223888324
503.2494871608625
503.7913660787558
504.3218757499637
504.8398507936796
505.34413571891935
505.8335985807819
506.30712264600675
506.76363080358425
507.2020751332736
507.62141534127
508.0206691431335
508.3988774009943
508.7551238299264
509.0885459114586
509.3983109471588
509.6836423226625
509.9438151196302
510.1781496594118
510.38601580221075
510.5668281566882
510.7200694872291
510.8452724971271
510.94202770733466
511.00998674479825
511.048852182453
511.058384454213
511.0383952548654
510.98875809547366
510.90942317547143
510.80038629071316
510.66171017732887
510.493506297138
510.2959359382401
510.06922396611816
509.81364385137033
509.5295354821183
509.21728360985236
508.8773246067259
508.51014648138914
508.11627350532564
507.6962901041396
507.2508278437184
506.78055719419194
506.28620124601844
505.7685167523192
505.22830388234263
504.66639205466606
504.0836586654588
503.4810242040863
502.85943258964875
502.2198819043951
501.5634116788255
500.89110434405814
500.20405698358616
499.50337479926384
498.79019449603913
498.06565896223134
497.3309283578184
496.5871969030856
495.8356676898812
495.0775798409555
494.31418283946385
493.5467301635192
492.7764940427418
492.0047576452845
491.2328332825398
490.46205427091405
489.6937823635277
488.9294223409707
488.17038706995385
487.4181112370092
486.6740389750368
485.9396158208795
485.2163069912014
484.50556968937906
483.80887771698406
483.1277043784915
482.4635315751743
481.81784588045593
481.19212575485943
480.5878615073389
480.00653380535186
479.4496050816096
478.9185390074123
478.41477384966663
477.9397305756821
477.4948096764382
477.08138552995155
476.7008091674892
476.3543756586147
476.0433568843459
475.76896830411476
475.53237029101257
475.33468238653165
475.1769471083555
475.06015040439803
474.9852069961726
474.9529524660619
474.9641462045998
475.019450350675
475.1194417999413
475.2645957635872
475.4552672225868
475.6917118374589
475.97406331170464
476.3023373606699
476.6764228430812
477.09608425797177
477.5609492385353
478.0705073321239
478.62412701065887
479.22102083170887
479.8602657896642
480.54079793320534
481.26139649106403
482.0207079993476
482.8172294977729
483.64931192351713
484.5151773007309
485.41291279024153
486.34048327846807
487.2957163188064
488.2763227798294
489.27989641644126
490.3039229441946
491.345785484597
492.4027707493223
493.47208246604396
494.5508510914494
495.63612646573245
496.7249102686446
497.8141606702094
498.90080867404714
499.9817905938172
501.05402447528144
502.11443519660537
503.15995988464067
504.18757527094743
505.1943011884747
506.17721491035786
507.1334741805853
508.06030933912757
508.9550476707984
509.81514170528754
510.63815111409446
511.42176757465137
512.1638232891823
512.8623029038383
513.5153409777572
514.1212287658398
514.6784480550372
515.1856202584147
515.6415120710644
516.045075536122
516.3954889717877
516.6921696914653
516.9347501057723
517.1230981246009
517.2573075105557
517.3376489520938
517.3646146115774
517.3388899716832
517.2613691602935
517.1331769991285
516.9556237501354
516.7302232757528
516.4586583127647
516.1427690595552
515.7845448188848
515.3860832749128
514.9496244442984
514.4775263135708
513.9722590110994
513.4364023182097
512.8726314695675
512.2837134832332
511.672479124903
511.0418096982682
510.3946211114014
509.73385182763707
509.0624526986859
508.38336558182107
507.69952154056057
507.0138328322623
506.3291546214676
505.6482994592128
504.9740239156433
504.30900957923325
503.65585153284013
503.01702992059074
502.3949303155092
501.79182121176444
501.20984777666155
500.65103326818576
500.11725077957567
499.6102484522822
499.1316145332763
498.6827869924162
498.26506403026036
497.8795696648127
497.5272879527741
497.2090434511854
496.9254956214473
496.67716902835133
496.46442318564567
496.2874799643691
496.14641455010855
496.04116247263147
495.9715315305629
495.9371880391437
495.93768503543714
495.9724491568472
496.04080297037706
496.1419810834982
496.27510950500783
496.43923343490934
496.6333231723413
496.8562714666504
497.10692373129575
497.38405792931303
497.686416860838
498.0127009096215
498.3615804697193
498.73171025157006
499.12172587868633
499.5302554983661
499.9559308982848
500.3973918212224
500.8532987037553
501.3223209842233
501.80315997127406
502.2945470711659
502.7952415627832
503.3040584273555
503.8198255193563
504.3414275402804
504.86780358713867
505.39793794777495
505.9308678604279
506.46567984695434
507.00150999152135
507.537545789819
508.07302759595706
508.6072563512878
509.139568138393
509.6693587798394
510.19607995141905
510.71922887917833
511.23835782306577
511.7530596432551
512.2629863943755
512.7678155322652
513.2672865205204
513.7611967746892
514.2493762665529
514.7316813904338
515.207974941632
515.6781382094811
516.1420648106515
516.5996494267747
517.0508223434343
517.4955182299059
517.9336818562739
518.3652625699253
518.7901949419792
519.2084271775695
519.6198925455676
520.024524492593
520.4222566842644
520.8130212173944
521.1967629707235
521.5734109912077
521.9428917698522
522.3051342075412
522.6600445641042
523.0075187934855
523.3474373946618
523.6796649810979
524.0040632483756
524.3204803251754
524.6287580611564
524.9287308348112
525.2202225354174
525.503050265103
525.7770105886153
526.0419074498462
526.2975342370522
526.5436666822226
526.7800751457945
527.0065236148796
527.2227884802578
527.428642493408
527.6238562148767
527.8082037286266
527.9814529329811
528.1433819801595
528.2937626939121
528.4323810794143
528.5590294392267
528.6734982912092
528.7755967309834
528.865129040434
528.9419081991423
529.0057649791655
529.0565285579959
529.0940464754253
529.1181629833642
529.1287321694161
529.1256287608576
529.1087239390448
529.0779181555581
529.0331128055166
528.9742191676776
528.9011716971048
528.8138886889881
528.7123137785144
528.5964049661279
528.4661215429169
528.3214548654914
528.1623848866975
527.9889154509018
527.8010459960775
527.5987846367999
527.3821655349565
527.151218247936
526.9059962134835
526.6465637787584
526.3729899096063
526.0853636988089
525.7837682746905
525.4683137541462
525.1391199446603
524.796307869056
524.4400305940104
524.0704317774945
523.6876830971997
523.2919648578792
522.8834617768905
522.4623762317864
522.0289173468742
521.5833162861443
521.1258198614458
520.6566886563909
520.17619956377
519.6846350816498
519.182298796242
518.6695090127339
518.1465922600199
517.6138964547351
517.0717777731622
516.5206137862983
515.9607858203998
515.3927027887275
514.8167923490728
514.2334944398785
513.6432680333875
513.0465758011101
512.4438970131986
511.8357293874822
511.2225711842188
510.6049469446986
509.98338726806935
509.35843258883165
508.7306477774977
508.10060186644336
507.4688784397851
506.83606174334324
506.20275107538254
505.5695577120168
504.9370975960548
504.30599053383463
503.6768614291867
503.0503459947175
502.4270878188132
501.8077134198249
501.1928706216793
500.58320136931314
499.979343021615
499.38193833857923
498.79161473763355
498.20900716490104
497.63474164437827
497.0694341574674
496.51370257155673
495.9681436377413
495.43336038983153
494.90993706833325
494.3984446652181
493.8994530771094
493.413512876137
492.941165628078
492.4829278175756
492.03929433046505
491.6107505058823
491.1977623269214
490.8007865674926
490.42025708679506
490.05659093127525
489.71018351593386
489.3814015878288
489.0705935635333
488.77808228225575
488.5041775647265
488.2491671043506
488.01330523083254
487.7968256004133
487.59993628854426
487.42283034718855
487.26568134201545
487.1286257572215
487.01179128846474
486.91527052509923
486.83912748439116
486.78341287836406
486.7481333134162
486.73328833942014
486.73885292157917
486.7647664933549
486.8109526051088
486.877290202438
486.96364826193104
487.06986364361717
487.19575842464263
487.3411356504432
487.5057597683818
487.68938295551436
487.8917234105356
488.1124719886467
488.3513032134446
488.6078534736413
488.8817474088736
489.1725717943696
489.47988419592104
489.80323690601927
490.1421331220294
490.49606175924396
490.86448628985045
491.2468445932793
491.6425599184408
492.05102591497257
492.47161586167186
492.90367214244446
493.34651098138715
493.7994315017288
494.2617030572352
494.7325723618666
495.21126834543765
495.6969917613749
496.18893112087363
496.6862524967844
497.18810705717226
497.6936256522268
498.2019201017714
498.7120909401082
499.2232044763848
499.7343288752829
500.24451344729385
500.75280323852155
501.2582340739004
501.75982545791084
502.2566107636105
502.7476042635605
503.23182951281933
503.7083107260951
504.1760620048027
504.6341092187674
505.08148571286887
505.51723256301784
505.94039880100803
506.3500392145598
506.74522955277456
507.12505989214435
507.4886432957355
507.83512006061255
508.1636488867959
508.47342667331594
508.763671092047
509.03363360204276
509.2826059949349
509.50991384426874
509.71492752652017
509.8970490839261
510.05572946601524
510.1904617379309
510.3007675000426
510.3862310075073
510.44647839408725
510.48118741471734
510.49009055025664
510.47296256314496
510.42964067698097
510.3600140694816
510.2640286669053
510.1416985824241
509.9930759623575
509.81825984512136
509.61739341280406
509.3906738489759
509.1383466054907
508.8607059549508
508.55810853977135
508.23095417023194
507.8796950354613
507.50482072231506
507.10686494424056
506.6864166835525
506.24409881192224
505.78057516643406
505.2965487547953
504.79276005874084
504.2699878428815
503.7290434924799
503.1707720825701
502.59606492911456
502.00583313287797
501.4010427452975
500.78271333709563
500.15188696907444
499.50963080757924
498.85700461462403
498.19509957597256
497.5250150985263
496.8478635114924
496.1647804667324
495.4769237951896
494.7854722546648
494.09160864592616
493.3965329293912
492.70146608466774
492.00762956312934
491.3162724933041
490.6286680747865
489.94611694695914
489.2699468364846
488.601492768752
487.9421236284355
487.2932146263029
486.6561483728553
486.032307126624
485.42306687183304
484.8298238205864
484.25396628623963
483.69689463072655
483.1600192969384
482.6447327274907
482.15244237250437
481.6845469280374
481.242434417275
480.8274887913328
480.4410570230066
480.0844680509592
479.759029199895
479.46602241844096
479.20670701688823
478.9822871102978
478.7939487644441
478.6428159586858
478.529969699132
478.4564297210251
478.42315346346277
478.4310392758391
478.48089660000244
478.5734663061209
478.70939937787074
478.88925743435357
479.1135156350367
479.3825417528743
479.69659064008323
480.05581407749617
480.46024472579296
480.9097980269944
481.40426350497495
481.9433009192011
482.5264390235768
483.1530615036621
483.82241523339167
484.53361244139376
485.28561826401784
486.07725424578445
486.9071935497059
487.77396982985164
488.67597368043937
489.61145209422773
490.5785106477687
491.5751316518636
492.59917610301216
493.64837133392683
494.72032111725576
495.8125208217175
496.92234927559355
498.04708541660636
499.1839166523208
500.3299390649096
501.48218007078344
502.63759085103993
503.793080970972
504.94552981593074
506.09179241070876
507.22871689010964
508.35314737688617
509.46194056966937
510.5519692959228
511.6201458503317
512.6634300586387
513.6788460755502
514.6634990529152
515.6145760971057
516.5293775371651
517.4053194015498
518.2399396425427
519.0309078250475
519.7760490788245
520.4733297581188
521.1208876993035
521.7170215918497
522.2602226906566
522.7491436883672
523.1825673372086
523.5594815583662
523.8790939304123
524.1408748833364
524.3445075647661
524.4899124672115
524.5772506377822
524.6068791806381
524.5793653563685
524.4954847495418
524.356236845516
524.1628344045879
523.9166818676888
523.6193951917269
523.2727623272009
522.8787268025928
522.4393895204997
521.9569894619788
521.4338939109424
520.8725891786411
520.2756786649508
519.6458712206854
518.9859819058078
518.2989236774143
517.587663716163
516.8552384303869
516.1047112336429
515.3391624507302
514.5616985617327
513.7754066241492
512.9833675663637
512.1886258817049
511.3941769407691
510.60298539562154
509.8179520246134
509.04189230686563
508.2775375006996
507.5275101688785
506.7943378705924
506.0804196114351
505.3880282057755
504.7193047528717
504.07625408216455
503.46073485297006
502.87445276020406
502.3189591283498
501.7956526470555
501.30576668282924
500.8503793946016
500.430400537971
500.0465853552171
499.69953847872375
499.3897033931943
499.1173701442337
498.8826815185203
498.6856288577745
498.52607908656614
498.4037521083235
498.3182490703813
498.2690460758982
498.2554947176779
498.27685335237396
498.33227512245656
498.4208291524705
498.5414955967922
498.69317610711664
498.87472185552656
499.08491586089
499.3224835595443
499.5861138670381
499.8744605443075
500.1861610122315
500.51981558260167
500.8740319302095
501.24741691368246
501.63857263995226
502.0461205538391
502.46868793168034
502.9049354136508
503.35354693070497
503.8132278465577
504.2827329221009
504.76083681385455
505.24636961068927
505.7382015342898
506.2352490943231
506.73648280473753
507.2409213442812
507.7476407068903
508.2557632454806
508.76446163130254
509.27296452148363
509.7805509788105
510.28655579962384
510.79036833186143
511.291413736285
511.78918008820534
512.2831974413193
512.7730564749437
513.2583814556489
513.7388450939175
514.2141996589664
514.6842256760247
515.148734977959
515.6075422037686
516.0604836144744
516.5074110736921
516.948180721413
517.3826807197565
517.8108086343161
518.2324791679533
518.6476162048301
519.0561335842672
519.4579549621908
519.8529983010422
520.2411866194096
520.6224482235953
520.9967063410659
521.3638866170425
521.7239186749285
522.0767251489287
522.4222242684762
522.760330703312
523.0909480309791
523.4139569808577
523.729232301212
524.0366379563378
524.3360358901548
524.6272757220688
524.9101977363285
525.1846339412748
525.4504049556523
525.7073257466857
525.9552094783485
526.1938559955453
526.4230489123303
526.6425766702987
526.8522141692506
527.0517415975673
527.2409325891098
527.4195510915215
527.5873787287421
527.7441809176147
527.8897275012303
528.0237912742842
528.1461421532416
528.2565653361603
528.3548378658841
528.440751064364
528.5140978870522
528.574679995284
528.6223104310546
528.6568009554114
528.6779690080207
528.6856489240437
528.6796747895214
528.6598983361832
528.6261628644131
528.5783339377181
528.5162797898598
528.4398867727602
528.3490597226997
528.2436983456952
528.1237216260748
527.9890527936453
527.8396283006385
527.6754025161076
527.4963216853575
527.3023633235367
527.0935124043476
526.8697616619243
526.6311248676184
526.3776151457722
526.1092781317033
525.8261551627198
525.5283009155487
525.2157922393898
524.8887130663487
524.5471722342116
524.1912819220042
523.8211709875237
523.4369983975806
523.038914190782
522.6270969100674
522.2017318041213
521.7630261618739
521.3112073279043
520.8465098121035
520.3691863498912
519.8795057157639
519.3777527512666
518.8642372683748
518.3392722950304
517.8031936623703
517.2563488787098
516.6990991436404
516.1318345480632
515.5549543740606
514.9688757941302
514.3740182597611
513.7708204620028
513.1597464008263
512.5412674822951
511.91587310158906
511.28406142867584
510.6463475901692
510.0032676155995
509.35535622047877
508.7031659554508
508.04725119556224
507.3881892708707
506.726562262713
506.0629474517363
505.3979469507258
504.73216716739665
504.06621582510746
503.4007119703571
502.7362741621949
502.0735327935217
501.4131162277276
500.755652277007
500.1017739408651
499.4521120579382
498.807296657045
498.16794945982735
497.5346960829141
496.90816080082203
496.28895257687026
495.6776705615487
495.07491384615383
494.4812693686838
493.89732397005423
493.3236481923147
492.7608063700358
492.2093492103551
491.66981074364315
491.1427228738964
490.6285862701475
490.1278979970187
489.6411287778214
489.16873521803745
488.71117655669065
488.2688704073304
487.84223601754894
487.4316654796836
487.03752562553973
486.6601773296383
486.29995110908686
485.95716882253197
485.6321217140162
485.32508118011447
485.03630287776815
484.7660067670247
484.5143964354191
484.28166091440477
484.0679524701854
483.87341684212777
483.69817324171953
483.542327447129
483.40595658015496
483.2891201118356
483.19184677315826
483.1141387399448
483.0559823476346
483.01734141425226
482.9981593737294
482.99835714022845
483.01783092871295
483.0564677326871
483.11411491118105
483.1906020930371
483.2857411590542
483.39930867750473
483.53106986570464
483.6807631242641
483.8481087909637
484.03280492108644
484.2345163626955
484.4528965106136
484.6875653121091
484.9381222902992
485.204150729754
485.48519552153147
485.78079139335637
486.0904562478888
486.41367815322116
486.7499286079665
487.0986517124419
487.45927106810086
487.83118795674903
488.2137772692649
488.60640092948785
489.00839078321604
489.41907101889245
489.8377303712828
490.2636423710236
490.6960681067858
491.1342416518181
491.5773839552096
492.0247014938327
492.4753830146872
492.9286094884427
493.383535559249
493.8393147432524
494.29508105901897
494.7499635684845
495.20308117084323
495.65354181430627
496.100457211919
496.5429314897796
496.9800740378171
497.41098614009877
497.8347716044495
498.25054761783497
498.65742936962505
499.0545364717051
499.4410015762574
499.81595915560223
500.17856480574255
500.5279838503182
500.86340184104694
501.18403297319855
501.48911108827104
501.77789612023037
502.04966956928536
502.30374962205633
502.5394844362666
502.7562475960959
502.953453230422
503.13055801574296
503.2870500553108
503.42245510804236
503.5363271421045
503.6282669617076
503.69791867389057
503.7449703881335
503.7691614249266
503.77026534209733
503.74811883178415
503.70259802535094
503.63364070560067
503.54122705384646
503.42536661559484
503.28612862731444
503.12360864370976
502.93794936202295
502.7293546283579
502.4980552527636
502.24433369057994
501.9685069458595
501.6709444724388
501.3520577758385
501.0122878782868
500.6521234746796
500.2720930051592
499.8727436874087
499.45467962837444
499.01852353489824
498.56493326960134
498.0945987875071
497.6082437936142
497.106623347349
496.5905240579022
496.0607887334059
495.5183112189246
494.9639931546701
494.39874250640213
493.82348219248064
493.2391535355995
492.6467037317881
492.0471076815896
491.44136746101697
490.8305005250539
490.2155517940807
489.5975682498794
488.97760996339383
488.35676261860243
487.73612359787523
487.1168273704781
486.50001839215224
485.88687454260247
485.27861128289834
484.67645141402767
484.0816499922535
483.4954758515287
482.9191888275718
482.3540757495119
481.8014140405295
481.2624984963992
480.7386329554475
480.23113297830633
479.7413220132368
479.2705143686541
478.8200351058304
478.391195992111
477.9853129401545
477.6036883114231
477.24760155327886
476.91832782273565
476.61711265928454
476.3451747280979
476.10372133963756
475.8939136183002
475.71688403076706
475.5737032257721
475.4654099395145
475.3929838652796
475.35734466415533
475.35934642404334
475.3997741683548
475.4793359390963
475.59866143279675
475.7582875880241
475.95866174694595
476.2001338890237
476.4829425017789
476.8072312732772
477.1730267813412
477.5802451434843
478.0286793347359
478.51799565522083
479.0477415727236
479.6173212168704
480.2260040468637
480.87292948042113
481.55710343367986
482.2773889352649
483.03250371705053
483.82104016661566
484.6414575833885
485.49207081805486
486.37107667715014
487.2765418218589
488.2064267043503
489.15857985895144
490.13073099353244
491.1205066511481
492.12542453280383
493.1429300228141
494.1703744103198
495.2050330989231
496.2441086910258
497.28475407661597
498.32408531147973
499.359190714697
500.3871560374451
501.40507309342587
502.4100226616142
503.39911674864027
504.36949072070195
505.31832829603394
506.2428644961343
507.1403992146912
508.0083192500529
508.8441090388037
509.6453543397268
510.40978498140055
511.1352318297381
511.8196746630145
512.4612342754286
513.0581787281786
513.6089456384253
514.1121303294193
514.5665119863403
514.9709946921097
515.3246242442181
515.6266681498798
515.8766296847183
516.074234241051
516.2194140833982
516.3123306304705
516.3533511324207
516.3430297497868
516.2821187964618
516.1715685988381
516.0125405737756
515.8063922140686
515.5546554462496
515.2590431688767
514.9214135757768
514.5437750329605
514.1282678426695
513.6771289944757
513.1927207869744
512.6774988820736
512.1340140885079
511.5649287436846
510.9729692881558
510.36094198965515
509.7316915380799
509.0881029582493
508.43307468448467
507.76950883001706
507.1003122664863
506.4283561757479
505.756488069136
505.0875133387163
504.424181743172
503.7691877220319
503.125134154701
502.4945471126095
501.8798565025571
501.283364303809
500.7072680911158
500.1536373208895
499.62442363684886
499.12143503601834
498.6463328198204
498.200633823936
497.7857091676491
497.402770907942
497.052883628468
496.7369506229136
496.45572293383975
496.20980263150244
495.9996315540005
495.8255159497148
495.6876015127338
495.5858993205069
495.5202795951934
495.49047700693785
495.49610305249934
495.5366391117786
495.61146055690637
495.7198395561348
495.86093731673935
496.0338270408021
496.2374974210389
496.47086969427096
496.7327885738093
497.022034947286
497.3373561134574
497.67743489377796
498.04093292315383
498.42647674894795
498.83265894112543
499.25806938231847
499.7012868783135
500.16090339553796
500.63550410890133
501.1236994877987
501.62412877866024
502.1354524552682
502.65636608119894
503.1856027424398
503.72192407947915
504.2641366985461
504.8110792982865
505.3616508584885
505.9147946522654
506.4695080903265
507.0248477176409
507.57991857750216
508.1338851487212
508.68597095528224
509.2354447811801
509.7816327987591
510.3238951303491
510.86166125370363
511.39440644016406
511.9216566859916
512.4429960304101
512.9580367831169
513.4664532136657
513.9679563395788
514.4623221067886
514.9493922827464
515.4290274546121
515.9010964374734
516.3654799260739
516.8220844117274
517.2708270211482
517.7116329267147
518.1444500228455
518.5692393128918
518.9859671693259
519.3946015020067
519.7951031184891
520.1874342838069
520.5715561583124
520.9474264176573
521.315012485029
521.674274593332
522.0251891042064
522.3677222514194
522.7018416491537
523.0275108927881
523.3446691194813
523.6532478678852
523.9531640047377
524.2443282795598
524.5266389089044
524.7999820048526
525.0642432614046
525.3192870324062
525.564981658677
525.8011856131143
526.0277402594378
526.2444822520458
526.4512382331578
526.6478392694831
526.8341069936347
527.0098527734457
527.174898762525
527.3290573861609
527.4721391302548
527.6039557176412
527.7243143965752
527.83303412293
527.9299333169448
528.0148262425294
528.0875454644771
528.1479161948129
528.1957765098397
528.2309735253157
528.2533551730644
528.2627837863329
528.2591190353957
528.2422379404303
528.2120176736372
528.1683423134502
528.1111138601082
528.0402392688915
527.9556372593862
527.8572341211191
527.7449615936808
527.6187722862794
527.4786223650723
527.3244826705696
527.1563279435355
526.9741500564744
526.777956018529
526.5677418535964
526.3435385200571
526.1053769670154
525.853296938185
525.587364616089
525.3076466964536
525.0142304001432
524.7072084229093
524.3866901853456
524.0527933390215
523.7056394471774
523.3453758675247
522.9721517843368
522.5861313303625
522.1875067516056
521.7764680544058
521.3532251047727
520.9179967523363
520.4710152603129
520.0125329619144
519.5428025996173
519.0621057342421
518.5707331527484
518.0689783858764
517.5571594511192
517.0356012420127
516.5046529999046
515.964668615695
515.4160109212505
514.8590645541391
514.2942159721722
513.7218817162703
513.1424798014417
512.5564359776486
511.96420084118813
511.3662188207187
510.76295166897
510.15487779246325
509.5424808928767
508.926260390063
508.30670669087135
507.68433324502115
507.0596648425744
506.4332283470777
505.8055586960511
505.1771960047751
504.5486893385473
503.9205940293316
503.29346239226237
502.66786946644714
502.04437105333807
501.42353602402494
500.8059215777237
500.19209215031964
499.5826097768598
498.9780310171199
498.37891919899437
497.7858327506474
497.1993222958147
496.6199385559624
496.0482162055694
495.48469270746136
494.92988983112826
494.38433025598755
493.8485236738686
493.3229681399295
492.80816026009467
492.3045902993428
491.81272649039767
491.3330275812146
490.8659334006705
490.4118774496191
489.97127537346097
489.5445244227396
489.1320226044449
488.7341376598788
488.3512330259516
487.9836477996308
487.63170738145317
487.29572765301214
486.975992897589
486.6727817523999
486.3863516355203
486.1169450936078
485.8647831109846
485.63006492030723
485.41297431236285
485.21367493888533
485.0323143954429
484.8690328536876
484.72393894610775
484.59712719019603
484.4886713119711
484.39862852152294
484.32703947247165
484.2739194780426
484.2392693250351
484.22306640031417
484.2252799348787
484.2458513402847
484.2846963235896
484.34172669162575
484.41682401940966
484.5098504113495
484.6206505580776
484.7490427017069
484.8948380393896
485.05782312627076
485.2377620651667
485.4343986451326
485.64745619416937
485.8766375356779
486.12161386400624
486.38204843822757
486.65758105505427
486.9478124361103
487.2523409411972
487.5707382354556
487.9025535667729
488.24732025236835
488.60454473625293
488.97371770304295
489.35429454480584
489.7457106243822
490.1473901173307
490.558726558226
490.97909844575406
491.4078476606109
491.84430369164323
492.28778395845455
492.73757465945505
493.19295326153565
493.6531738699181
494.11747022869065
494.585065466068
495.0551533332216
495.5269298534589
495.9995705636129
496.4722296286068
496.94406301915456
497.41420583952686
497.8818002718714
498.34597558270264
498.8058499063836
499.26054525095066
499.7091720159603
500.15084179567424
500.5846691304627
501.009766774098
501.42526505006185
501.8302786120342
502.22395629785206
502.60544365737434
502.9739178105814
503.328565539488
503.6685876944631
503.9932144398545
504.30168985674743
504.5932871523028
504.86730856766354
505.12308086345183
505.3599727257585
505.5773816213033
505.7747402650289
505.951509822971
506.1071990735328
506.2413485039233
506.35354044433456
506.4433912721483
506.5105785315586
506.5548089770895
506.57584771655627
506.57350784969793
506.54764450055944
506.49817725394337
506.4250467626013
506.32825419918044
506.2078369095431
506.0638765820163
505.89650487378793
505.70589778936795
505.4922854104395
505.25593316784807
504.9971556694844
504.71631072490123
504.4138023100464
504.09007935093456
503.74563466290954
503.3809908829368
502.9967104083013
502.59338759181276
502.1716651309439
501.73221589628105
501.27575561155055
500.80303608996326
500.3148432222887
499.81201720187755
499.2954515107607
498.76607333717897
498.2248113817341
497.67260684021255
497.11043657976415
496.539289719235
495.9601786410066
495.3741472067308
494.7822677300948
494.18563555503613
493.58535879310784
492.9825671203634
492.37841802684346
491.77408536852414
491.1707738418282
490.56971378798136
489.97217163324405
489.3794298716289
488.7927934767364
488.21360762744064
487.6432189272552
487.0829935491332
486.5343113150555
485.99855312893055
485.477109974958
484.9713763568209
484.48275893061174
484.0126675404323
483.56251260610503
483.1337045718967
482.72764889165177
482.3457541476876
481.9894161103886
481.66001026581785
481.3588951102004
481.0874020116025
480.8468268251258
480.63843869955383
480.46346453131275
480.32309509068637
480.21846461971694
480.15065201979104
480.1206906366891
480.1295342215712
480.1780686625097
480.2670994148221
480.3973453513944
480.5694391241258
480.7839122482204
481.0412109957549
481.34166890184514
481.6855079295713
482.07283770687354
482.50363751375465
482.9777714840114
483.49496038777
484.0547996893284
484.6567430158472
485.300099207375
485.9840453194431
486.7076051398565
487.46965898645254
488.26894095598374
489.10403896446985
489.9733911371384
490.8752936832396
491.8078963022471
492.76921586268134
493.7571422561672
494.7694298186475
495.80371589183824
496.8575184415528
497.92825201438103
499.01320946830526
500.10960121128704
501.2145447773158
502.32507025945876
503.43815470357595
504.5506979673102
505.6595735731742
506.76162771998577
507.8536922479737
508.93261161525874
509.99522467057955
511.03839481160446
512.0590204577402
513.0540523864636
514.0204935609237
514.9554159972538
515.8559836639199
516.7194639831341
517.5432388916313
518.3248352153237
519.0619197707853
519.7523003766933
520.393940889951
520.98497500354
521.5237187535417
522.0086598009207
522.4384846418398
522.8120382706927
523.1283227462342
523.3865541831825
523.5861968399178
523.7269823872962
523.8088641900207
523.8320397927531
523.7969342561294
523.7041834028528
523.5546426796267
523.3493824163586
523.0896894544372
522.7770662962016
522.4132103436158
522.0000234861153
521.5395707924515
521.034090758629
520.4859671346022
519.8977170079219
519.2719905523722
518.6115407029486
517.9192330944755
517.1980308974485
516.4509832110198
515.6812196131283
514.89192915033
514.0863566954715
513.2677687445677
512.4394453929801
511.60465895937824
510.7666656537928
509.9286841671675
509.0938852239853
508.2653724726241
507.4461789370772
506.6392552103778
505.8474539551755
505.07353053645875
504.3201162060887
503.58972283626787
502.8847223845268
502.2073405856994
501.5596626419507
500.94359398001853
500.36088974732985
499.8131306681781
499.3017349543346
498.8279450945175
498.3928267000202
497.9972792366934
497.64201490996317
497.32757340028763
497.05432642213225
496.82247654646994
496.6320612867911
496.48296444649907
496.37491514224433
496.3074985241998
496.2801473168307
496.2921688790513
496.3427354324466
496.43090304164895
496.5556266225461
496.7157535179766
496.9100391940626
497.137158747181
497.39571192857886
497.68423699570513
498.0012136437824
498.3450788309674
498.7142293856641
499.1070375962733
499.52185342634084
499.9570063330887
500.41084388494306
500.8817133497216
501.3679736269724
501.86801555642216
502.3802445711167
502.9031110405379
503.4351007591763
503.97473557919886
504.52059077706764
505.071274434849
505.62547174802035
506.1819189436058
506.73940729517693
507.296797340658
507.853019633856
508.40707755145553
508.9580410318113
509.50503991801463
510.0472721463571
510.5839850904691
511.1145001063528
511.6382108478844
512.1545643466953
512.6630813448502
513.1633218052821
513.654920467923
514.1375568624078
514.6109849011513
515.0750394327698
515.5295887073689
515.9745432197451
516.409815380777
516.8353482702333
517.2511063598115
517.6570788117273
518.0532870255414
518.4397635866575
518.8165593180427
519.1837456716175
519.5413841139244
519.8895564771607
520.2283316961673
520.5577895419989
520.8780116235672
521.1890727465044
521.4910656682646
521.784076181854
522.0681895555329
522.3434909631213
522.610051083152
522.8679317049869
523.117182780435
523.3578375645939
523.5899055789872
523.8133918703845
524.0282860091136
524.234564520601
524.432191274182
524.6211224810143
524.8013032135442
524.9726773190071
525.1351735786383
525.2887116205064
525.4332056069537
525.5685547571724
525.6946600868199
525.8114061029013
525.9186751304886
526.0163484748516
526.1042965069455
526.1823993913482
526.2505306823313
526.3085692774764
526.3563893590923
526.3938655189799
526.4208800388294
526.4373059225887
526.4430291793527
526.437947105671
526.4219535568466
526.3949503423738
526.3568498392053
526.3075556964023
526.2469870211972
526.1750652426967
526.0917295875396
525.9969199066114
525.890590104901
525.7726997176659
525.6432075537322
525.5020848607832
525.3493153940366
525.1848912409615
525.0088108687319
524.8210836735785
524.6217258187899
524.4107581054349
524.1882124913304
523.9541276666414
523.7085533773713
523.4515593209243
523.1832090348595
522.9035773462256
522.612752507102
522.3108230161013
521.9978928341
521.6740769589669
521.3394970993538
520.9942927136713
520.6386014689419
520.2725879340217
519.8964044493753
519.5102218134826
519.114227203446
518.7086091198273
518.2935684394947
517.869311867559
517.4360518536679
516.9940217716608
516.5434606124146
516.0846241229076
515.6177673950925
515.1431490259358
514.6610571432227
514.1717743016236
513.6756037687574
513.1728563575044
512.6638525996862
512.1489315572202
511.62842455026845
511.1026857430338
510.57206999164146
510.0369457661274
509.4976928736123
508.95469786209236
508.408355954934
507.8590707125037
507.3072581324291
506.7533486744919
506.19776075660604
505.6409354269634
505.0833074038164
504.5253307779835
503.9674677338892
503.41017291069466
502.85392362866537
502.2991910135776
501.74644828889524
501.19618118181353
500.64886986471146
500.10499936942205
499.5650567580743
499.0295259927673
498.4988959201605
497.9736574052213
497.45429389277257
496.9412937419237
496.4351430140641
495.93632273552436
495.4453104397999
494.9625794780072
494.4885916747794
494.0238074483719
493.5686850531102
493.12366894609534
492.6892022375082
492.26571504299784
491.85363264641387
491.4533706072842
491.0653298939978
490.689902934843
490.3274708982235
489.97840105491287
489.6430528764085
489.32176010309996
489.0148543223536
488.7226403536506
488.4454154325503
488.1834554681653
487.937016407733
487.7063443404546
487.4916704192846
487.2932058625984
487.1111591102394
486.9457116342384
486.7970221692196
486.66522196959795
486.55043396068436
486.45275476840015
486.3722608871236
486.3090126799517
486.2630518838912
486.23439038128544
486.22302295551344
486.22892255891986
486.25204658442146
486.2923280341866
486.3496777422556
486.4239843279869
486.5151097934374
486.6228937941956
486.7471489828523
486.887667315986
487.0442154963759
487.2165346680062
487.40435107688717
487.6073628404346
487.82524638503776
488.0576563967148
488.3042126727701
488.56452191076386
488.8381535328531
489.1246724765697
489.4236066299359
489.73445791199146
490.0567176187968
490.3898470516207
490.73329110597746
491.0864745036647
491.4487915126676
491.8196174527408
492.1983049443249
492.58419334711647
492.9766075243995
493.37483693706304
493.7781648844688
494.1858607256798
494.59716785164403
495.0113244554295
495.4275404748391
495.84503149977803
496.2630003973822
496.68063437962866
497.0971240266862
497.51164529095877
497.92336996983494
498.33146954040933
498.7351125016208
499.1334661590054
499.5256917091762
499.9109678231067
500.2884750460485
500.65739993303816
501.0169368852209
501.36628762848125
501.7046849273843
502.0313639484488
502.3455773330001
502.6466058864459
502.93374080794
503.206303038828
503.4636473593503
503.7051469479282
503.93021070640543
504.13826984467977
504.32879055249697
504.50127341732764
504.6552461430075
504.7902756660907
504.90596922872766
505.0019731993489
505.0779761453343
505.1337096845541
505.1689536714363
505.1835237811599
505.1772852930905
505.15013608372266
505.10201551193904
505.0329085610069
504.94283006596504
504.83184799564685
504.7000583672596
504.5476057692847
504.37468181160324
504.1815083593736
503.9683711357685
503.73558137060576
503.4834989112492
503.2125291883282
502.923107374447
502.61570232237096
502.2908136997622
501.9489755176325
501.59075533062526
501.2167513155834
500.82759386214235
500.4239540845935
500.00654401499247
499.5761237222139
499.133500419138
498.6795089982068
498.2149928798529
497.7408104774243
497.25784529029045
496.7669979266999
496.26919498612733
495.7653776203826
495.2565224353027
494.7436250129693
494.22770064178144
493.70979338539047
493.19096959744587
492.6723177809444
492.1549592320141
491.6400413327182
491.1287376163765
490.62224128575497
490.12177198009203
489.6285695416056
489.1438966674648
488.6690375280488
488.2052855534132
487.75395302582143
487.31634984028585
486.8938014196657
486.48764459986245
486.09920345505174
485.7298106324325
485.38079765357213
485.05349593779204
484.74923779680273
484.4693486936205
484.21514608131764
483.9879228005814
483.78894766887896
483.6194746258612
483.4807189359376
483.37385492238764
483.300022183563
483.2603075042944
483.2557550066096
483.2873433152149
483.355984274486
483.4625259016503
483.60773549969207
483.7923112039123
484.01686099188333
484.2818970376569
484.58783217902567
484.93497650356716
485.32353414794267
485.7535915533731
486.22512123775306
486.7379729327965
487.29186734404146
487.8863968019091
488.5210087266706
489.1950178894159
489.90760618109806
490.65780549575544
491.4445118419591
492.2664694493728
493.12227710662705
494.010399495825
494.92915096997797
495.8767172257215
496.8511471574849
497.8503630852282
498.8721632553665
499.91422308370954
500.97410150820383
502.04925026205086
503.13700855817405
504.2346267350309
505.3392575383381
506.4479829422623
507.5578174599091
508.6657297308763
509.76864963318855
510.86347605005284
511.9471029550766
513.0164133545545
514.0683153835242
515.0997329956623
516.1076164401852
517.0889702857851
518.0408395633685
518.9603523212895
519.8447268789622
520.691267670222
521.4974130941233
522.2607306658588
522.9789293946759
523.6498560868887
524.2715189945205
524.8420862055592
525.3599069110646
525.8235116898032
526.2316157739467
526.5830875506264
526.8769669241174
527.1125098526544
527.2892167725707
527.4068284412659
527.4653199403671
527.4648993354879
527.4059932452693
527.2892518668909
527.1155381990393
526.8859300172107
526.6017281680524
526.2644339880618
525.8757504622591
525.4375697645406
524.9519513065454
524.4211205869692
523.8474494250996
523.2334545956095
522.5817798815777
521.8951812594629
521.1765172761233
520.4287426458292
519.6548988642082
518.8580998599857
518.0415239291434
517.2084056406832
516.3619993736389
515.5055911630212
514.6424670609578
513.7758926562778
512.9091013564996
512.0452717239709
511.1875200946106
510.3388910388506
509.5023438784554
508.6807507202245
507.87686880124403
507.09334634961414
506.33270748597755
505.5973468644471
504.88951880069465
504.211323083827
503.56470920629783
502.9514707670297
502.3732301411451
501.83143941330565
501.3273754834237
500.8621470768725
500.4366897668125
500.05176638581844
499.7079749356053
499.405739994848
499.1453225465382
498.9268129825145
498.750146677019
498.61510931636735
498.5213363647459
498.46832412256265
498.45543472619875
498.4818949394207
498.5468215020337
498.6492184328142
498.7880032663083
498.9619878301329
499.1698962526672
499.41038727912314
499.68205264675106
499.98341766991604
500.31296118628944
500.66912208998025
501.0503123362273
501.4549210003581
501.8813246063303
502.3279082507612
502.79305163117346
503.2751541288616
503.7726310852194
504.28391619477486
504.8074807250384
505.3418281135546
505.8854990220446
506.4370800131
506.99520503957524
507.5585606202022
508.1258794236145
508.6959639228367
509.267676766482
509.8399463003268
510.4117673091867
510.98219028042695
511.55033878847814
512.115391375825
512.6765870301629
513.2332281819558
513.7846836454877
514.3303849822319
514.8698250854092
515.4025502860194
515.9281654293485
516.4463237367578
516.9567478101934
517.4592228758718
517.9535814344695
518.4396831149381
518.9174069969132
519.3866562061161
519.8473617979655
520.2994841727465
520.7430078233673
521.1779271009078
521.604260107986
522.0220249906795
522.4312531157165
522.8319758235943
523.224228551162
523.6080506745636
523.983485575122
524.3505811518226
524.7093798665879
525.0599266428301
525.402266449257
525.7364447246633
526.0624952594003
526.3804459475571
526.6903072877435
526.992078572865
527.2857343090905
527.571241367078
527.8485499627124
528.1175934565741
528.3782927786459
528.6305544259725
528.8742796248471
529.1093628685659
529.3356862881968
529.5531317803999
529.7615627060994
529.9608384599953
530.1508071156527
530.3313155300024
530.5021975758101
530.6632819747131
530.8144000917193
530.9553740530042
531.0860134345838
531.2061423533627
531.3155807831062
531.4141456365312
531.5016537668604
531.5779248524974
531.6427886413908
531.6960637380428
531.7375777984223
531.767163496257
531.784658952518
531.7899147671434
531.7827769727223
531.7630983709682
531.7307431473331
531.6855783990785
531.6274898210277
531.556368990066
531.4721138688101
531.3746181638232
531.263797721695
531.1395821593579
531.0019000228326
530.8506877582269
530.6859074283747
530.5075209137433
530.3155056280838
530.1098460622737
529.8905450138755
529.657615169561
529.4110750066034
529.1509643271074
528.8773358151556
528.590248870989
528.2897897389057
527.9760412534563
527.6491048866802
527.3090986670481
526.9561551339523
526.590425888999
526.212070862587
525.8212761021515
525.4182300191486
525.0031387481438
524.5762327300665
524.1377449750988
523.6879373317936
523.2270830177059
522.7554601071229
522.2733753670941
521.7811443481152
521.2791022141894
520.7675903641505
520.2469713517959
519.7176263544268
519.1799395631575
518.6343240424269
518.0812062156907
517.521030239214
516.9542447241948
516.3813089537107
515.8027056168976
515.2189252546808
514.630463741664
514.0378281820485
513.4415317279355
512.842108149291
512.2401002100307
511.6360547201753
511.03052844381307
510.42408298640606
509.8172884552816
509.21072053228477
508.60495752574286
508.0005926698599
507.39821826415766
506.7984273556422
506.2018108417737
505.60895218679934
505.020450385059
504.43689056770205
503.85886498658897
503.28696332593853
502.7217719251925
502.1638774408922
501.6138485968988
501.07225281245115
500.5396531119238
500.0166073961351
499.5036656027983
499.00136684711487
498.5102409204826
498.03080315958914
497.5635646644848
497.109027384398
496.66767715080243
496.2399831632116
495.8264017409388
495.42737792625974
495.04333608764364
494.674685827039
494.3218324000369
493.98514555295577
493.6649828441936
493.36168669376605
493.07557932525197
492.8069708134264
492.55614085166076
492.3233622090716
492.10888934719685
491.9129493388663
491.7357481165188
491.57746335845235
491.4382614042795
491.31829259935057
491.2176736706804
491.1365050711403
491.07485318142466
491.0327607208138
491.01024399490564
491.00730338325144
491.02390977344135
491.0600062743537
491.1155187935307
491.1903515127339
491.28437144202627
491.3974280011143
491.5293376677699
491.6798904837599
491.8488410798665
492.035912616931
492.24080718008963
492.4631899072585
492.70269926232197
492.95895525758874
493.23154165618035
493.5200233667572
493.8239356345003
494.14278207744786
494.4760349093001
494.8231328777429
495.1834923362619
495.5564965452968
495.9415092513372
496.33786436489197
496.7448599862753
497.1617831375169
497.5878777382334
498.0223693523891
498.4644726680266
498.91336421001364
499.3682053195892
499.8281345994302
500.2922780595363
500.75973534675984
501.229587757142
501.70091291482083
502.17276240907296
502.6441787661276
503.1141949171124
503.5818338112758
504.0461212983938
504.506064042589
504.9606755531925
505.40897389921804
505.84996870395105
506.2826830617608
506.7061404065155
507.11936445593085
507.52140316096023
507.91131121070083
508.28816765790646
508.65106301743475
508.9991148019413
509.3314634005434
509.64726126792704
509.94569474459144
510.22598180940525
510.487380858936
510.7291866352306
510.9507150344947
511.15133138618046
511.3304349247711
511.48746050718006
511.6218888142694
511.7332387707278
511.8210839411574
511.8850448078064
511.9247940150452
511.9400484651358
511.9305787384195
511.8962073880932
511.8368028160375
511.75228384131515
511.6426151664949
511.5078046765468
511.3479135550306
511.1630486828091
510.9533701350749
510.71908319330714
510.4604390370589
510.17773755272225
509.87131903504854
509.5415800402239
509.1889654620834
508.8139542957312
508.4170695358526
507.9988572824427
507.5599094627391
507.1008515239966
506.6223389247044
506.1250691085256
505.6097785525298
505.0772358564447
504.52824378187654
503.963658973775
503.38439085671524
502.7913558714455
502.1854864954415
501.56773731577005
500.9390862571268
500.30052448320123
499.6530653293385
498.9977461776358
498.335627755845
497.6677711666913
496.995262402844
496.319199000914
495.6407025531096
494.9609156687686
494.2810098477889
493.6021848275749
492.9256659683475
492.2527064392183
491.5845789410949
490.9225697993857
490.2679819948666
489.62212516283904
488.98631639205246
488.361889600901
487.75018526433814
487.1525554695033
486.57035349614216
486.00493858149844
485.45767397328507
484.9299226833112
484.4230542105008
483.9384205113989
483.47737774800225
483.04126630561353
482.6314014039546
482.24908301882397
481.8955879392854
481.57216153436264
481.2800157168532
481.0203309921469
480.79424745381925
480.6028511214233
480.44717971984255
480.3282173528624
480.2468824814697
480.20402903335906
480.20042985140896
480.23678856417564
480.31372313084677
480.4317559570078
480.5913283217983
480.79276909376136
481.0363029054748
481.3220563555149
481.650033932622
482.02012928633206
482.4321018664815
482.8855932558118
483.3801087914498
483.91502358008285
484.4895846412879
485.10291149203385
485.75398425665355
486.4416432422496
487.1645955732693
487.9214203991363
488.7105595132803
489.5303326789562
490.37893635043895
491.25444548946797
492.154818335085
493.0779019439886
494.02143402808645
494.9830431763196
495.9602715215425
496.9505695697795
497.9513046486232
498.95978300547074
499.97325286264174
500.98891908299044
502.003960763856
503.0155321353279
504.0207794483569
505.0168429881516
506.0008724683183
506.9700448235888
507.92156903904794
508.8526975072535
509.7607392332715
510.6430637860391
511.49713769505115
512.3205212156012
513.1108911715876
513.8660370888813
514.5838718097355
515.2624433746989
515.8999436063581
516.4947111119042
517.0452462086586
517.5502026162224
518.0083464161019
518.4185907211823
518.7800698827975
519.0921372013149
519.3543325764164
519.5664069819032
519.7283163798147
519.8402115296515
519.9024342091017
519.915513076819
519.8801924043719
519.7974043032625
519.6682739566033
519.4941073589546
519.2763767225939
519.0167074870691
518.716870880039
518.378755550872
518.0043747914586
517.5958415442724
517.1553834194702
516.6853258328373
516.1880985179741
515.6662153962
515.1222518763216
514.5588435042486
513.9786689144815
513.3844347277176
512.7788689939933
512.1646925792411
511.5446209767101
510.9213397206617
510.29751277777757
509.6757584745792
509.05863248315035
508.44863759095347
507.8481992216368
507.2596526783937
506.68525078275155
506.1271375251532
505.58734885220457
505.0677989298261
504.57028266690446
504.09647043427276
503.64789060139117
503.2259369309151
502.83186805347424
502.46679920879524
502.13170796797584
501.827418863056
501.5546194128759
501.313854862148
501.10553253482414
500.9299357725913
500.78719914486203
500.6773323139148
500.60021141766754
500.5556060037238
500.54317155964986
500.5624601578449
500.6129228692495
500.6939103184215
500.80467979018624
500.944408892068
501.1122050336888
501.3071128621472
501.5281130903458
501.77414538895204
502.04410059629777
502.33683038166333
502.6511588499092
502.9858917151572
503.33981877155594
503.71171831935027
504.10037444522186
504.50457648773545
504.9231270056156
505.35484300034904
505.7985697575068
506.25317456162935
506.7175509412808
507.19061771066856
507.67133476712553
508.1586964926795
508.6517421773989
509.1495550620164
509.6512631219303
510.1560394533718
510.66311111702515
511.17174363095063
511.68126015260316
512.1910209316844
512.7004308826549
513.2089381105864
513.7160278985901
514.2212362126247
514.7241392070662
515.2243450325727
515.7215052523648
516.215300124512
516.7054503670365
517.1917429877075
517.6740058613157
518.1520713072704
518.6257715480589
519.0949664542973
519.5595183988488
520.0192928282806
520.4741649439343
520.9240173029134
521.368735020153
521.80819609426
522.2422721708509
522.6708267539381
523.0937130336939
523.5107804523578
523.9218662083979
524.3267956846792
524.7253986300999
525.1174932268997
525.5029059882796
525.8814442704061
526.2529064052609
526.6170636449885
526.9736706313305
527.3224717477152
527.6631969181535
527.9955577239903
528.3192569497702
528.6339764884762
528.9394005298427
529.2351975462293
529.5210310342496
529.7965506267079
530.0613940547145
530.3152045334682
530.5576088235379
530.7882323455912
531.006705502893
531.2126458471779
531.4056772991609
531.5854229740503
531.7515154194525
531.9035915456624
532.0412852261447
532.1642547123413
532.2721620196946
532.3646741480973
532.4414771857492
532.5022574983739
532.5467309550302
532.5746219323348
532.585664098351
532.579620688337
532.5562522191756
532.5153541139878
532.4567309726117
532.380210269673
532.2856383465207
532.1728719232276
532.0417913354223
531.8922939747301
531.724311937883
531.537792722874
531.3327084633241
531.1090475604617
530.8668171094514
530.6060518465038
530.3267989888244
530.029122579467
529.7131164989647
529.3788978014753
529.0265935544279
528.6563603175358
528.2683752495616
527.8628360886604
527.439952207455
526.9999529995281
526.5431049953323
526.0696744573751
525.5799576803479
525.0742697506568
524.5529488009672
524.01634488341
523.4648306574883
522.8987945609363
522.3186427193674
521.7247942302456
521.1176895123006
520.4977789012815
519.8655397246765
519.2214496542612
518.5660036037369
517.8997129584246
517.2231048359371
516.5367259490101
515.8411246157212
515.1368697418251
514.4245459093795
513.7047420239537
512.9780661408101
512.2451275462001
511.50654486962173
510.7629430817241
510.01495489011484
509.26322871956813
508.508412694939
507.7511604236878
506.99214117402045
506.23202839257516
505.47150147069897
504.71124320984984
503.9519328911185
503.19425449604427
502.43888950222123
501.68652046242715
500.93782791528537
500.1934961416703
499.45421250343816
498.720660268869
497.9935202435679
497.2734679337589
496.5611728586638
495.8573022028281
495.1625201586164
494.47748743680626
493.8028519981382
493.1392484125738
492.4873101746726
491.8476557926061
491.22090339828657
490.60765251801416
490.0084877012356
489.4239864045594
488.85471372616115
488.30122606735176
487.76405950431325
487.24374662638394
486.7408051531562
486.25572443667585
485.7889867959853
485.34105824604563
484.9123881023085
484.50340637271927
484.11452112496664
483.74613124350844
483.3986018688124
483.0722790456229
482.76749778147644
482.48456387200866
482.223773039611
481.9853884704724
481.7696620765059
481.5768232014795
481.40706729168966
481.260577300666
481.13749916308046
481.03796094241704
480.9620701638427
480.90990022213225
480.881509672814
480.87692001927616
480.89612842558023
480.93909608379596
481.00575837973224
481.0960241367367
481.20977492624803
481.3468601687142
481.5071030925051
481.6902958715201
481.8962081595999
482.1245694442139
482.3750709210848
482.64738485519
482.94112933062377
483.2559005678867
483.5912526753267
483.94672130336505
484.3218059754797
484.7159633108745
485.1286287443493
485.5591925566716
486.00702176353826
486.47144059908055
486.95174612557355
487.4471954259081
487.95701470518765
488.4803931114791
489.0164985236333
489.56445852337936
490.1233721424769
490.6923018187225
491.27029613420206
491.8563779497947
492.4495349851823
493.0487321919438
493.6529110148812
494.26099990797377
494.8718987645073
495.48448743563307
496.0976299442966
496.71017429574204
497.32096558527604
497.92883093036886
498.53259286240916
499.1310696544017
499.72307565750816
500.307421739516
500.882926708204
501.4484045562073
502.0026800758256
502.54457818318923
503.0729481497654
503.5866595753503
504.0846030558135
504.5656931461409
505.0288626181097
505.47307624452037
505.897329238269
506.3006478847322
506.6820944424964
507.04077202189615
507.37582062619515
507.6864305972547
507.9718296947533
508.2312983940317
508.4641565529879
508.669784833879
508.847621992326
508.9971555247824
509.1179361449327
509.2095658056268
509.27170733972986
509.3040984056502
509.3065326342677
509.27886689558585
509.22101301145113
509.1329488679252
509.0146963153954
508.8663378558637
508.6880286545675
508.47997786734345
508.2424537815719
507.9757800014003
507.6803292423577
507.3565365676894
507.00489497545783
506.6259468180285
506.22029726892526
505.78858620226964
505.3315060171236
504.8497931247517
504.3442348879826
503.81565489009745
503.26492245283407
502.6929493853014
502.10068921115356
501.4891543227124
500.85940992521427
500.2125469979827
499.5496775783097
498.87192745593796
498.1804457194116
497.47641155502356
496.7610209282636
496.03550791983446
495.3011242055929
494.5591358615676
493.8108306331711
493.0574939432079
492.30042567507
491.5409298797615
490.78034330471473
490.02002025360866
489.2613351363045
488.50570300260165
487.7545483911776
487.0093185135052
486.27146395261025
485.5424458094738
484.82372336323425
484.1167612955738
483.42303257944394
482.7439995003644
482.0811339474985
481.4358983381896
480.8097636864932
480.2041840002678
479.6206187429298
479.0604960018079
478.5252454013038
478.0162696402592
477.5349595833363
477.08267828320527
476.66075347926784
476.2704939045489
475.91316159597653
475.58998317205027
475.3021366020696
475.0507530724198
474.83691870917323
474.66165882891124
474.5259373679162
474.43064949343557
474.3766186656241
474.3645915198947
474.3952305047264
474.4691043096069
474.5867046098998
474.74841278506034
474.9545149524805
475.2051886767517
475.50051200904693
475.84043348148464
476.2247880721108
476.65328935892643
477.1255243468777
477.64095318605445
478.1989048113724
478.79857947065614
479.4390452861585
480.1192310106068
480.83793886705513
481.59384268337794
482.3854824262565
483.21127255315736
484.0695000789976
484.9583387721328
485.8758401063324
486.8199467235401
487.7884892784073
488.77918834764273
489.78967428361284
490.81748587481775
491.86007167346645
492.91480262960647
493.9789829862722
495.04986607688454
496.1246597828923
497.20055245149564
498.2747112578478
499.34428326297495
500.40641643778434
501.4582677966836
502.4970205268343
503.5199036519541
504.524190064843
505.5071987341734
506.4663316102216
507.39905988841497
508.3029558310825
509.1757022515217
510.01508614909943
510.8190045612574
511.5854843888025
512.3126899973646
512.9989361995398
513.6426781732494
514.2424952189879
514.7970960437799
515.3053612161733
515.7663824898715
516.1794499482841
516.5440660323765
516.8599074107076
517.1268525332542
517.3449497732904
517.5144289190289
517.6357212032527
517.7094444742035
517.7364217155064
517.7176673857592
517.6543743280724
517.5478829537925
517.39968453146
517.2113992833654
516.984761538388
516.7216249930077
516.4239554796576
516.0938202072256
515.73338894771
515.3449300675005
514.930784148545
514.4933653182931
514.0351446804343
513.5586356215689
513.0663875368307
512.5609552284282
512.04491405504
511.52082690959116
510.9912552672879
510.45871813168503
509.9257147289768
509.39468871278547
508.8680147656901
508.348009763165
507.83690735956776
507.3368662751458
506.8499510870258
506.3781183053617
505.92322072332547
505.4869883275561
505.07104722927016
504.6768936725602
504.3058907925664
503.95928572996286
503.6381861283255
503.34357247945024
503.07629593153007
502.8370636322891
502.6264640468669
502.4449493355896
502.2928423434802
502.1703439576552
502.07754114871216
502.0144025361229
501.9807743229653
501.9764049563276
502.0009484009115
502.0539570748658
502.1348946417437
502.24313803639666
502.37800607483246
502.53873589015933
502.7244987957928
502.9344116259071
503.16754151968354
503.4229149948652
503.699522513963
503.996327298905
504.31225855986065
504.6462350406309
504.9971774660569
505.3639946354851
505.7456042373248
506.1409293262209
506.5489121007212
506.96851208516347
507.3987083326896
507.8384989148865
508.28691498264715
508.7430146213653
509.20589611485144
509.6746911254724
510.1485661778304
510.6267279186701
511.10841683774356
511.59291361821397
512.0795495707071
512.5676862063868
513.056733878449
513.5461396485846
514.0353792119722
514.5239770276402
515.0115027256445
515.4975656621344
515.9818052342721
516.46388769891
516.9435205400027
517.4204565974688
517.8944947361651
518.365463451791
518.8331931020889
519.2975267974979
519.7582998895024
520.2153800906179
520.6686374335987
521.1179513054421
521.5632150978329
522.0043141738537
522.4411317042508
522.8735363718401
523.3013824589142
523.7245226387486
524.1428034039783
524.5560651757344
524.9641493467949
525.3668972581154
525.7641455530693
526.1557242959451
526.5414579290664
526.9211536319563
527.29460301967
527.6615929350085
528.0218816096718
528.3752208841582
528.7213501841061
529.0599908335962
529.3908625263359
529.713667201424
530.0280926806123
530.3338118485632
530.6305015886558
530.9178224473605
531.1954245638192
531.4629624620637
531.7200814141169
531.9664255984434
532.2016330492315
532.4253348015038
532.6371780732053
532.8367992960158
533.0238495805881
533.1979696377814
533.3588039605928
533.5060127473987
533.6392464613527
533.7581727293986
533.8624659746018
533.951810151912
534.0259037458006
534.0844494259497
534.1271633661148
534.153780208232
534.1640426829463
534.1577087042917
534.1345431191967
534.0943379695958
534.0368933931575
533.9620224632927
533.8695604261601
533.7593499424614
533.6312612601045
533.4851662666521
533.3209606000677
533.1385639534051
532.937907375263
532.7189489879628
532.4816590515568
532.2260290720653
531.9520610964421
531.6597876163403
531.3492631069189
531.0205577312872
530.6737663875028
530.3090024676613
529.9264003467572
529.5261156620282
529.1083189574045
528.6732067601041
528.221008309555
527.7519551697582
527.2663052689938
526.7643382740076
526.2463510359673
525.7126771225778
525.1636605206274
524.5996774878546
524.0211234121954
523.4284062475042
522.8219594538888
522.2022329206097
521.5697056764049
520.9248725487752
520.2682438552897
519.6003513626764
518.9217454434021
518.2330010785441
517.5347087377373
516.8274739057448
516.1119186425207
515.388683087264
514.6584202924178
513.9217931890768
513.1794823357723
512.4321915705685
511.6806230742643
510.92549598550886
510.16754765437105
509.40752196167824
508.6461686260376
507.88424460350564
507.12251321034114
506.36174540063223
505.6027121653818
504.84618784762546
504.0929534883296
503.343784843756
502.5994599871498
501.86075591847697
501.12844517546523
500.40329677620616
499.68607722080566
498.97755155675264
498.27846695980185
497.58957358190656
496.911603857287
496.245277898455
495.59131325614584
494.9504063762622
494.3232446807549
493.71050124148405
493.1128339798774
492.5308781577532
491.9652518517595
491.41655501893285
490.8853751327755
490.37227761067214
489.8778029614802
489.40247259355004
488.94678597892914
488.51120897472555
488.0961971082149
487.7021686444471
487.3295191774267
486.97862538253526
486.64983350274423
486.3434654848891
486.05982078643024
485.79916723812386
485.5617451277682
485.3477624754094
485.1574012390347
484.99082360827117
484.84815217882533
484.72948288184625
484.63488248354923
484.5643884543332
484.5180044434836
484.49570214910165
484.49742754319436
484.5230896199233
484.57257770989577
484.64574162308975
484.7424024451766
484.86235241661865
485.005345982752
485.1711171699018
485.359364213721
485.5697540001022
485.80192215371335
486.0554775772973
486.3299939421476
486.6250119516381
486.94003278806946
487.27453108797835
487.62794378807786
487.9996874509297
488.3891407201799
488.7956642058455
489.2185877392056
489.6571976702177
490.11076578162715
490.5785302697147
491.0596942355207
491.55344606728374
492.05893170576013
492.57528167755726
493.10159220697614
493.6369325606452
494.18035689756664
494.7308987984022
495.2875704059661
495.84935499212844
496.41522582172917
496.98414119252743
497.5550374335135
498.1268327925583
498.69843336304166
499.26874134599905
499.83665047986227
500.4010504163158
500.9608246259789
501.5148549102098
502.0620282907561
502.60123304812373
503.13135469521313
503.6512850582282
504.1599224307862
504.6561714942192
505.13895189242794
505.60720908231536
506.0599079038797
506.49604381405356
506.91462801444055
507.3146987724887
507.6953260557263
508.0556095654672
508.39469208589765
508.71174228958813
509.0059788901329
509.27665318785796
509.52306219671584
509.7445440074996
509.94047506654084
510.1102890482561
510.2534715600917
510.3695680095851
510.45817190319667
510.5189259889688
510.5515296703781
510.55573746641403
510.53135726186883
510.47826589389206
510.3963940836965
510.2857332186708
510.14633111412536
509.9782765064802
509.7817135515552
509.5568450558565
509.3039245400302
509.0232612512692
508.7152141583004
508.3801856730205
508.0186347939284
507.6310728297069
507.21805483708437
506.78017762246736
506.31808655713553
505.8324626786766
505.3240295279154
504.79355144673355
504.24183653510255
503.6697290758241
503.0780999574139
502.46787450716397
501.84002815179645
501.19556988046145
500.5355462181177
499.8610127965914
499.17304065246856
498.4727128966389
497.76113382327014
497.0394308456514
496.3087560412145
495.57028980281314
494.825222433138
494.07475505101
493.3200997112203
492.56246564040157
491.8030907317775
491.0432267143039
490.2841506448327
489.5271678628019
488.77360675066143
488.02482304760287
487.28217851225463
486.54705271638306
485.8208199069556
485.10486737720663
484.4005831109103
483.70935423753207
483.0325808434953
482.37166135612904
481.7279976131952
481.1029978718476
480.498055718124
479.91456598410826
479.353912084554
478.8174575450852
478.30656345981123
477.82256630198515
477.36677950107565
476.9404946362622
476.5449693363846
476.1814301021843
475.85106590801234
475.55502608246474
475.29442244466094
475.07030942117467
474.8836879710639
474.73548959185285
474.6265907099474
474.557794186654
474.52982625499504
474.54333335738727
474.59887021627435
474.6969076637423
474.8378254562125
475.02190323692184
475.24932052280286
475.5201439223326
475.8343254379864
476.1917009477825
476.59197582046227
477.03474582878783
477.51947929929565
478.04551731256583
478.6120765170349
479.21823275291445
479.86294682061344
480.5450294849473
481.26317695958375
482.01595456389697
482.8018096180108
483.61906993087524
484.4659430602488
485.3405161060771
486.2407559937121
487.1645343656596
488.10961825557143
489.07368993980043
490.0543390241128
491.0490836911068
492.0553529725536
493.0705195840654
494.0918959313486
495.116765608193
496.1423851139316
497.1659995159952
498.1848389568189
499.1961352519239
500.1971342742901
501.18511735789536
502.15740342961334
503.11135558959654
504.04439392836304
504.95401238455224
505.8377931652895
506.69341428569
507.5186566210017
508.31140592260033
509.0696712510179
509.79158249787747
510.47540857558363
511.1195656474585
511.72259764700647
512.2831611566379
512.8000668465497
513.2722862068044
513.6990013670032
514.0795919244385
514.4136355622882
514.7009069219918
514.941352650735
515.1350946568169
515.2824284444041
515.3838430838867
515.4400197266953
515.4518218354553
515.420307876358
515.3466896376287
515.2323338916063
515.0787413842709
514.8875244606884
514.6604047358759
514.3992154181832
514.1059000457581
513.7825036188892
513.4311673237316
513.0541182490571
512.6536497204773
512.2321164641997
511.791922612684
511.3355071106922
510.86533107283236
510.3838648242297
509.89358582378657
509.3969526677029
508.8964053949073
508.3943640416393
507.8931971389535
507.395221298307
506.9026948185807
506.4177944482401
505.94263449410033
505.47923436112984
505.0295088261724
504.5952829952082
504.1782577596107
503.78002858509484
503.4020678291033
503.04573870518544
502.7122685373567
502.4027599104134
502.11819171837664
501.8594122838279
501.6271464599762
501.42199034201866
501.24441101947144
501.0947534836247
500.97323492341286
500.8799636243007
500.81492997814786
500.7780154671284
500.76900432111626
500.7875671316758
500.83329052422255
500.9056765184399
501.0041335123455
501.12800678233106
501.27656750279294
501.4490370659147
501.6445765952634
501.8623004837095
502.10127671688076
502.36054233107467
502.63910561830096
502.93595258819175
503.250062070747
503.5803943143729
503.92591206453545
504.2855727746914
504.65834884861476
505.04322351930074
505.4392084285434
505.8453325591257
506.26065485790133
506.6842565729324
507.11525709419215
507.5528009216208
507.99607039641387
508.44429141909814
508.89672563710565
509.3526686440467
509.8114651329601
510.2724932733443
510.73517501135825
511.19896840410587
511.6633683627724
512.1279048386594
512.5921430042978
513.0556988376562
513.5182133612836
513.9793663842681
514.4388728113959
514.8964726104434
515.3519474120686
515.8051292965856
516.2558710584112
516.7040558910302
517.1495606851748
517.5922732941449
518.0320807258711
518.4688698235336
518.9025384772084
519.3329936721439
519.7601428570465
520.1838870473247
520.6041177517138
521.0207134352942
521.4335332618049
521.8424258392445
522.2472291673787
522.6477751763473
523.04389712865
523.4354291601047
523.8221912166847
524.2039963549422
524.5806366213629
524.9518911939333
525.3175237949623
525.6772849169205
526.0309189409894
526.3781453529932
526.7186707811844
527.0521902256097
527.3783863210363
527.6969265266955
528.0074779780844
528.3096941009981
528.6032186830233
528.887687709605
529.1627378149864
529.4279906184294
529.6830742077784
529.9276049953519
530.1612000079966
530.3834936537844
530.5941041686175
530.7926699788949
530.9788291824686
531.1522274284566
531.3125190418981
531.4593615429204
531.5924275789648
531.7113947893234
531.8159530838776
531.9058074072366
531.9806651472594
532.0402605971781
532.0843312913244
532.1126381561007
532.1249548887553
532.1210705202884
532.1007897977902
532.0639312383398
532.0103384191992
531.9398606484995
531.8523683077419
531.7477574171414
531.6259390981303
531.4868377043869
531.3303931989434
531.1565633542357
530.9653259251398
530.7566765189672
530.5306264401028
530.2872069753738
530.0264671923726
529.7484717157795
529.4533116104835
529.1410957530329
528.8119532741584
528.4660272352811
528.103479133942
527.7244867370968
527.3292484704666
526.9179834750831
526.4909250943194
526.048320770478
525.5904362121878
525.1175639798412
524.6300058568498
524.1280858413804
523.6121412478099
523.0825135968192
522.5395830487674
521.9837396655619
521.4153920425828
520.8349649269913
520.24289462222
519.6396396307413
519.0256649131617
518.4014633585324
517.7675402732157
517.1244043969346
516.472593689337
515.8126464797423
515.1451140974125
514.4705690349846
513.7895912403421
513.1027784817182
512.4107348879181
511.7140791345585
511.01344174599393
510.30945588926346
509.60277209336886
508.89404896092464
508.18394617959484
507.47312824056354
506.76226141364435
506.0520259102691
505.3431106659504
504.6362039714598
503.9320037252374
503.2312058404032
502.5345101431395
501.84261532389485
501.15621383607424
500.47600415062414
499.8026877997998
499.13695335182234
498.47948874112006
497.8309671098006
497.1920653845906
496.56345234058796
495.94579200005523
495.33974048863917
494.74594738891193
494.16504394029556
493.59765299389613
493.0443879541541
492.5058562212329
491.9826409284978
491.475319900239
490.98445181830704
490.5105798713425
490.0542376223812
489.6159264148714
489.1961408936582
488.7953529371494
488.41401312353713
488.0525500397951
487.7113671852537
487.39085084437187
487.0913626721725
486.8132453841357
486.55681986877465
486.32237576074556
486.11019276744486
485.92050737093126
485.7535429534836
485.60948967634965
485.4884996010994
485.39070784518515
485.3162166206102
485.2650969031397
485.2373921688923
485.2331222592361
485.2522588834158
485.2947489394472
485.36050271049737
485.4494084945896
485.5613190194748
485.69605549087555
485.8534028725823
486.03311837858325
486.23492264835016
486.45849315184313
486.7034771335007
486.9694848657576
487.2560828571966
487.5628087479109
487.8891622446721
488.2346159538917
488.5986023564154
488.98052058621687
489.3797344749751
489.7955684795281
490.2273145733414
490.67423046460624
491.1355445096731
491.6104431581723
492.09808469047886
492.5975955417745
493.1080755692939
493.6286080887601
494.1582262520512
494.6959405406022
495.240740009726
495.7915871750834
496.34743065880866
496.9071895516259
497.46976627912943
498.03403750204865
498.59887123247904
499.16313336619226
499.7256616007733
500.2852962431006
500.8408740224692
501.3912286146138
501.93518469651406
502.4715693961197
502.99921273721355
503.5169459229192
504.0236038143002
504.5180492447672
504.9991427298076
505.46576894324863
505.9168370040306
506.35128538816815
506.76808270121654
507.1662153495415
507.54470332143586
507.90260940596755
508.2390200555019
508.5530676433453
508.843919714992
509.11079439218435
509.35296268343916
509.5697333132261
509.76045904315464
509.92454702002647
510.0614602096169
510.1707252684924
510.2519185487804
510.3046803488336
510.328707078996
510.3237520144376
510.28963233961497
510.2262317364711
510.1334986107013
510.01143100337936
509.86007851947454
509.6795547573716
509.4700231922101
509.23171543640797
508.9649209134282
508.6699764367096
508.34727966200467
507.99728051945925
507.62047245954324
507.2174120113827
506.7887035098746
506.3349949489155
505.85698253939347
505.3554043477885
504.83104272638445
504.2847159643726
503.7172876752866
503.12965227678563
502.5227426853803
501.8975338533889
501.25505545799797
500.59639925670456
499.92266416429356
499.23496937930423
498.5344473996223
497.8222406956507
497.0995062100125
496.36743686440155
495.62724122047047
494.880157833916
494.12743001564104
493.37031080930984
492.6100628691031
491.84795326695286
491.08525851293797
490.3232756192202
489.5633333387782
488.8067798050844
488.05499042439357
487.3093590711969
486.5712788536703
485.8421557653493
485.1233917319509
484.41640270054984
483.7225996826983
483.0433960194163
482.38021239688265
481.73446889666576
481.107583702185
480.50096954625513
479.9160323150132
479.35416956580406
478.8167622467284
478.30517707559164
477.8207509933882
477.3648059354494
476.9386436618034
476.5435315036948
476.18070972513954
475.85137452366115
475.55668701463736
475.2977645165632
475.0756760937906
474.8914312979735
474.7459772549253
474.640204425268
474.5749305393264
474.5508974975669
474.56876157933993
474.629099022536
474.7323941411918
474.8790384589222
475.0693301529356
475.3034651930636
475.58152205311467
475.90347727556014
476.2691821119899
476.6783678020299
477.1306379046916
477.62547625569067
478.1622446733881
478.7401638300315
479.35831620309483
480.01566034181366
480.7110195258801
481.4430885459974
482.2104279945629
483.01145906111634
483.84449176367707
484.7077082099768
485.5991795639061
486.51686187922127
487.45858830944525
488.4220969301834
489.4050176468642
490.4048859599425
491.4191572758344
492.4452042980945
493.4803302015335
494.52177126344816
495.566726269938
496.6123604570846
497.6558233375006
498.6942630242661
499.72480847607653
500.74459342140443
501.7507759765643
502.7405474979691
503.71114583506295
504.65987745563217
505.58410234080407
506.481264379954
507.3489038486849
508.1846716391079
508.98632990084263
509.7517519421964
510.47895159061255
511.16607205860566
511.81140637079517
512.4134143444406
512.9706923615273
513.4819672333587
513.9461002718887
514.3621483340942
514.7293804709481
515.0472796495349
515.3155452632611
515.5340788045734
515.702974133365
515.8225119660648
515.8931452017083
515.9155253169254
515.8905091413094
515.8191464081287
515.7026831569023
515.5425370230614
515.3402787866179
515.0976128455438
514.8163692739236
514.4984896931278
514.1460288604561
513.7611592654106
513.3461549314457
512.9033875028368
512.435306232082
511.94444140268666
511.43338116278096
510.90475662194996
510.36122649772295
509.805467955956
509.2401627294293
508.6679919057116
508.09161552355954
507.5136698975456
506.9367499972587
506.36340556210996
505.79613139487054
505.2373430640581
504.689375188045
504.15446508040134
503.634754642544
503.13227779844425
502.6489531731535
502.1865776956741
501.746825505531
501.331232472601
500.94120337273245
500.57800461713487
500.2427601278828
499.9364568117671
499.65994002606345
499.41391204713005
499.19893561082455
499.01542937441485
498.86368152798514
498.74384005496495
498.65592098217235
498.59982583388296
498.57533359397775
498.58211074664945
498.6197019138286
498.6875490322494
498.78500212885734
498.91132622330207
499.0657041127639
499.2472437937256
499.4549816725132
499.68789235780326
499.94490508759276
500.2248982016544
500.5267176567363
500.8491692150647
501.19103204662713
501.55107868231227
501.9280641775892
502.3207456056882
502.7278904189029
503.14826707666776
503.580668078322
504.0239042068295
504.47682261331244
504.9382917328075
505.40721193446063
505.88251001896606
506.3631458888638
506.84813400975986
507.336531913531
507.8274479984934
508.3200401323145
508.81350734760684
509.3070874673075
509.8000782738358
510.29182788687666
510.7817337520028
511.2692303760732
511.75380084643405
512.2349840742936
512.7123536872415
513.1855341559906
513.6541951833356
514.118035200921
514.576806740715
515.0303119926378
515.4784035779693
515.920965850938
516.3578891804352
516.7890762078537
517.2144384125096
517.633900776726
518.0473994655299
518.4548835835153
518.856325649807
519.2517035570296
519.640984298338
520.0241267095247
520.4010791418876
520.77178770118
521.1361936863171
521.4942423202973
521.845883296365
522.1910590293464
522.5297197661187
522.8618020784955
523.1872341124221
523.5059346024887
523.8178079667873
524.122741826833
524.4206112602977
524.7112745544641
524.9945845627797
525.2703829333346
525.5385034062472
525.7987643835135
526.050981347871
526.2949553707438
526.5304791800046
526.75733443371
526.9752909906418
527.1841169796216
527.3835736126052
527.573423135972
527.7534258046625
527.9233368204833
528.082914077244
528.231912747026
528.3700819252514
528.4971829283938
528.6129725093039
528.7172122016837
528.8096710238168
528.8901194026727
528.9583383349055
529.0141176284694
529.0572498382417
529.0875351123117
529.1047749214556
529.1087919655074
529.0994174817151
529.0764807147292
529.0398287933176
528.9893116249974
528.9247975460422
528.8461605567189
528.7532894165043
528.6460814069509
528.5244425936036
528.3882902130214
528.237552909822
528.0721753892155
527.8921121223625
527.6973209968173
527.4877764550714
527.2634739261661
527.0244192356643
526.7706333282373
526.5021504747075
526.2190187665236
525.9212917121985
525.6090504190153
525.2823776956263
524.9413780071345
524.5861579041485
524.2168413624262
523.8335806981353
523.4365415247221
523.0259054087749
522.601863571983
522.1646302290483
521.714429662594
521.2515006413785
520.776105199755
520.2885288960789
519.7890658351668
519.2780275364494
518.7557406875195
518.2225514810684
517.6788255919898
517.124941552878
516.5612972647501
515.9883142751627
515.4064157539235
514.8160524527959
514.2176826156998
513.6117934513233
512.9988855002387
512.3794679288992
511.7540733513459
511.1232464793948
510.4875436458176
509.84753872564664
509.2038115872773
508.5569627321723
507.9075971886787
507.25632579407187
506.6037794890298
505.9505997297276
505.29744216587534
504.64495629526544
503.99380877566585
503.34466069613825
502.6981796674745
502.05505192955934
501.41594873334253
500.78155381352036
500.1525449005606
499.52959486631244
498.91337928269724
498.30456871841824
497.7038319843764
497.1118306925777
496.5292247261653
495.95666242038277
495.3947751507263
494.84419358812335
494.3055311257595
493.7793892768957
493.26635431618666
492.7670048578615
492.2819042667854
491.8115953584648
491.3566060430144
490.9174462238572
490.49460470354603
490.08855276018426
489.69973241714524
489.32857311501334
488.97548894963865
488.64086517923556
488.3250644347601
488.02842856833354
487.75126957662155
487.49388023018173
487.2565206009443
487.0394197697645
486.8427839603876
486.66680035560097
486.5116346022877
486.3774196648962
486.264259942014
486.17223985260097
486.10140834719925
486.0517918505045
486.02338754754925
486.01617201718267
486.03009030301047
486.06506251402493
486.1209773224773
486.19770075084205
486.2950697148182
486.4128943380359
486.5509536233259
486.7090065582572
486.886785687258
487.08398841529447
487.3002901584933
487.53533334489214
487.78873825924137
488.06009863474327
488.3489861574368
488.6549352425342
488.9774605435683
489.31604817189196
489.670168910253
490.03926991164786
490.4227575666231
490.8200195270796
491.23042054945836
491.65330288966356
492.0879824019164
492.53375342293833
492.98988718063504
493.45563019644976
493.9302004479054
494.41280759946517
494.902636242485
495.3988489839832
495.9005873111269
496.4069701862397
496.9171079280396
497.43010104786185
497.94502399306083
498.46095282422135
498.9769405623116
499.4920429421229
500.0052895562791
500.5157052134487
501.02231159880336
501.52412022621513
502.0201494495382
502.5094154567155
502.9909299140725
503.4637173356355
503.92679971318245
504.37920737643145
504.8199855461751
505.248185534268
505.6628712129059
506.06311001371813
506.4480076178373
506.8166837406662
507.1682919296351
507.5020023128148
507.81700372691904
508.1125275987384
508.3878281281681
508.64219961320634
508.8749741680705
509.08551941456096
509.27324702491916
509.43760371183015
509.57808398777627
509.69421640075905
509.7855801211173
509.8518127838228
509.8925876473083
509.9076298243749
509.8967213533001
509.85969753580355
509.7964431360523
509.7068970858648
509.5910549492081
509.4489603897531
509.2807050814195
509.0864282089542
508.86631779371373
508.62061175399543
508.3496007868307
508.0536178524009
507.7330450875096
507.38831403127676
507.0199014024078
506.6283337074844
506.2141766688234
505.77803568656907
505.320562972792
504.84244730798076
504.3444104070324
503.82720981596805
503.29163543260506
502.73852379226247
502.16873559709336
501.5831686209441
500.9827686799961
500.3685347756245
499.74149249022724
499.1026746628322
498.45312137667355
497.7938921970728
497.1260557938771
496.4507095378914
495.76896589005963
495.0819669556138
494.39087042058384
493.69683729843723
493.0010518579816
492.3047038981456
491.60899683933013
490.9151509137965
490.2244083208593
489.53802980232325
488.85731346270853
488.1835771042631
487.5181499720628
486.86236685223724
486.2175731318589
485.5851256636661
484.9663805989673
484.3626941132167
483.77542286700213
483.20593740148473
482.65560722068375
482.1258013480644
481.6178865919524
481.13323241238027
480.673182855293
480.2390718348224
479.83222279561505
479.4539417154427
479.1055143527952
478.7881899573049
478.5031840340379
478.25168074038123
478.0348240483763
477.8537130624891
477.70939480784904
477.6028721210684
477.5350919665782
477.5069358927999
477.51921922853245
477.5726726041395
477.6679473561591
477.80561437245126
477.9861499025497
478.2099324385519
478.47724409287736
478.78825682122266
479.143031972128
479.54151793604774
479.9835505066207
480.46883605215913
480.99694806431023
481.56733711721296
482.1793173229134
482.83207749811595
483.5246621261987
484.2559835021827
485.024816902084
485.82979858917525
486.6694331905577
487.5420820181472
488.44598704563225
489.3792606889494
490.33989405829294
491.325759423975
492.3346067520717
493.36408504129946
494.4117426136355
495.475023708711
496.5512896668913
497.63781665322256
498.7318070498048
499.8303990306418
500.9306876179019
502.0297333200869
503.12458029702606
504.2122622362237
505.2898177824216
506.3542801287321
507.4027148198309
508.4322249676409
509.4399566976646
510.4231109886267
511.3789572722502
512.3048531533109
513.1982660509794
514.0567661541619
514.8780450614568
515.6599248685505
516.4003663186683
517.0974803498642
517.7495164398124
518.3548997489216
518.9122188484164
519.4202072864678
519.8777377776509
520.2838553494626
520.6378485208876
520.9392246273105
521.187714346204
521.3832591509132
521.5260054551746
521.6163073527432
521.6547073563726
521.6419561534492
521.5790127757339
521.4670252785259
521.3073442080735
521.101507781688
520.851215991263
520.5583235364941
520.224822876148
519.8528212594706
519.4445376764005
519.0023069234426
518.5285714135184
518.0258741717779
517.4968445262383
516.9441943034221
516.3707071809336
515.779217073195
515.1725708269803
514.5536405103026
513.925302586067
513.2904213891471
512.6518367761192
512.0123672448748
511.374785166289
510.7418055464341
510.11607528258855
509.5001674727436
508.8965678801938
508.3076579557671
507.73571388314855
507.1828910835366
506.6512315843534
506.1426396618522
505.6588846374505
505.2015870205179
504.77222523754375
504.3721236075045
504.00246317239976
503.6642738981889
503.3584191195722
503.08561561985937
502.8464304977395
502.6412789610692
502.4704294338949
502.33400505603487
502.23198581873504
502.16421781442153
502.13040768254166
502.13014820575177
502.16290052479076
502.22802929308784
502.32478361532674
502.45232645354076
502.60972503452075
502.79596113337243
503.00995014426434
503.25053402965875
503.51651159520236
503.8066162853839
504.1195462205203
504.45396780853076
504.80851928448953
505.1818271568566
505.57250930788905
505.9791756423778
506.4004481205938
506.8349541391815
507.28134578119966
507.738303479107
508.2045372369284
508.67879393735626
509.15985315691387
509.6465310104364
510.1376875306394
510.632231199899
511.12912967007753
511.6273937943904
512.1260893176633
512.6243415160529
513.121333038709
513.616307990143
514.1085625292018
514.5974414977642
515.0823521419268
515.5627559197122
516.0381646356418
516.5081407949215
516.9722978970942
517.43030534379
517.8818781767379
518.3267779607299
518.764823036211
519.1958886732249
519.6199013832023
520.0367868409518
520.4464977365625
520.8489927759597
521.2442566319986
521.6322822701502
522.0130746540364
522.386658499293
522.7530551324047
523.1122916096924
523.4643942056166
523.8093771963541
524.1472508348517
524.4780250174141
524.8016979682234
525.1182780926664
525.427762887925
525.7301580725956
526.0254580462442
526.3136510557927
526.5947029032054
526.8685650214416
527.1351717939489
527.3944270494426
527.6462212340492
527.8904402586955
528.1269486044308
528.355596698655
528.5762285854116
528.7886702915638
528.992733593306
529.1882198147446
529.3749128160234
529.5525894141558
529.7210099918012
529.8799352881786
530.0291215343415
530.1683179000647
530.2972725694036
530.4157255669475
530.5234146392183
530.6200744012181
530.7054440635161
530.7792619589425
530.8412753099522
530.8912280403824
530.9288680501337
530.953963307931
530.9662808633257
530.9655985407737
530.9516990417678
530.9243792715554
530.8834399813082
530.8286994327832
530.7599829010603
530.6771407227831
530.5800292521499
530.4685225009044
530.3424973800595
530.2018515686108
530.0464884228635
529.8763368009262
529.6913404630186
529.4914562323124
529.2766586807531
529.0469272247904
528.802272468385
528.5427123399585
528.2682809669363
527.9790309071612
527.6750331640916
527.356370611376
527.0231489943645
526.6754838902502
526.3135160396225
525.9373960777724
525.5472867019123
525.1433734248387
524.7258468703296
524.2949221977726
523.8508257430831
523.3938035244969
522.9241143689022
522.4420340116849
521.9478593292852
521.4418930143069
520.9244543427136
520.3958789385239
519.8565163869004
519.306730071951
518.7468992400175
518.1774078246622
517.59865498947
517.0110547177193
516.4150311113398
515.8110223768934
515.1994782313961
514.5808528649512
513.95561747554
513.3242510013721
512.6872440558628
512.0450962245699
511.3983156236525
510.74741619442113
510.0929214848684
509.43536402760026
508.7752826004473
508.11321960722034
507.4497226081705
506.7853502490372
506.1206607593623
505.4562179278901
504.7925949645748
504.1303586988676
503.47008428930206
502.81235037265077
502.15772544575265
501.5067913298682
500.8601185909802
500.2182812363861
499.5818472415886
498.9513844411803
498.3274599070663
497.71062834197136
497.1014467357154
496.5004649164073
495.9082247680268
495.32526602782303
494.7521234492665
494.1893152325843
493.6373533054086
493.0967403994894
492.5679714778653
492.0515375732946
491.54791448647507
491.0575690169588
490.5809410111454
490.1184645288326
489.6705605510131
489.2376363342646
488.8200804218672
488.4182752390666
488.032585751901
487.6633635231259
487.31093986143134
486.97562984439463
486.6577297620739
486.35752334633884
486.07527043081564
485.81121314537853
485.5655754775442
485.33856286247317
485.1303573743144
484.9411326333955
484.7710338785955
484.6201952061147
484.4887152090768
484.3766762445439
484.28414173836893
484.2111602666478
484.1577566717044
484.12393636875726
484.1096742525024
484.1149253481545
484.13961573558015
484.18365307884824
484.2469328920453
484.3293121478429
484.43063312187684
484.550710057434
484.68933772489515
484.8462802077462
485.0212815859149
485.2140613225439
485.4243185704469
485.6517146206654
485.89589018309965
486.1564630025755
486.4330188904037
486.72512685374676
487.03232586441356
487.3541401550226
487.69005969550625
488.03954910357044
488.4020455105517
488.7769585619615
489.1636815046798
489.5615784065545
489.9699910709927
490.388232831198
490.8155999074382
491.25136318534544
491.6947733360052
492.14505506530315
492.6014166021798
493.06304623471544
493.5291133501851
493.99877169422507
494.47116067457847
494.94539799911763
495.42058980502895
495.8958299372656
496.3701970796105
496.842767291112
497.3126048025584
497.7787747805944
498.240325499001
498.69630987771257
499.14578746114375
499.58781568361064
500.0214586622411
500.44577636757145
500.859846526976
501.26274705363346
501.6535735806204
502.0314283938137
502.39543550016396
502.7447404971314
503.07850388344457
503.395920567559
503.69620449818296
503.97859076558876
504.2423549630457
504.48679753378804
504.71126543990664
504.9151389403086
505.09784025377104
505.2588268540706
505.39759335642907
505.51366866048215
505.60663250624026
505.67611443677913
505.721786147085
505.7433623269593
505.74060332511635
505.71332633667885
505.6613969102186
505.58473811020303
505.48331988715677
505.3571635100159
505.20633271542135
505.03094215360017
504.83114578652714
504.60714238320406
504.35917623344363
504.0875507815734
503.7926030177503
503.47471938249384
503.1343229776714
502.7718847483758
502.3879195077314
501.98297775317377
501.55764631505593
501.11254467617596
500.64832334524147
500.16567762896966
499.6653223241434
499.1480213826038
498.6145698919178
498.065785236407
497.5025224377497
496.92568327592085
496.3362175828668
495.73508631358294
495.1232598818626
494.50172898478843
493.87149295332375
493.23355818363945
492.58895994908215
491.9387509693892
491.28401591396636
490.62584420780837
489.96534178277363
489.3036246715698
488.641818532687
487.9810707303986
487.3225557784216
486.6674722557614
486.0170421297245
485.3725170558857
484.7351720595187
484.10630196219137
483.487200617919
482.87917294169637
482.2835358361076
481.7016124574725
481.13473296729535
480.58423726516236
480.0514689863421
479.53777600868574
479.04451084024885
478.57301998754656
478.12464184083365
477.7007130751247
477.3025661663282
