463.9999999999997
464.8009727580514
465.6018126339846
466.40238701696
467.20256383706186
468.0022118317298
468.80120080743626
469.5994018951157
470.3966877979092
471.19293302979344
471.9880141437222
472.7818099479586
473.5742017093438
474.36507334233943
475.1543115827428
475.9418061450053
476.72744986215673
477.5111388074578
478.2927723969674
479.0722534722632
479.84948836262976
480.6243869260871
481.3968625687441
482.1668322420614
482.93421641769527
483.69893903969205
484.46092745392167
485.2201123148031
485.9764274694799
486.72980981968703
487.48019916162576
488.2275380042644
488.9717713666086
489.7128465545838
490.45071291824445
491.18532159012125
491.9166252055928
492.64457760626954
493.3691335274752
494.0902482709735
494.80787736412935
495.5219762067547
496.23249970697253
496.9394019075043
497.6426356038221
498.34215195566367
499.03790009348586
499.7298267214567
500.4178757185692
501.1019877395053
501.78209981693243
502.45814496690843
503.13005179902893
503.79774413295235
504.461140622931
505.12015439199166
505.77469267736853
506.42465648872223
507.06994028066606
507.7104316410771
508.34601099661114
508.9765513368294
509.60191795829877
510.22196822998825
510.83655138122595
511.4455083134649
512.0486714370436
512.6458645340268
513.2369026480914
513.8215920023318
514.3997299457551
514.9711049291535
515.5354965109618
516.0926753936171
516.6424034908448
517.1844340262388
517.7185116634327
518.2443726680301
518.7617451013458
519.2703490459536
519.7698968629533
520.2600934807451
520.7406367150255
521.2112176196505
521.6715208679022
522.1212251636288
522.5600036816397
522.9875245366293
523.4034512798037
523.8074434223062
524.1991569844495
524.5782450696489
524.9443584618725
525.2971462453835
525.6362564454744
525.9613366888833
526.2720348825333
526.5679999091712
526.8488823384243
527.1143351517387
527.3640144796107
527.5975803494579
527.8146974424124
528.0150358572789
528.1982718798746
528.3640887559383
528.5121774657468
528.6422374985257
528.7539776247487
528.8471166644437
528.9213842496343
528.9765215790417
529.0122821631887
529.0284325580673
529.0247530855048
529.0010385384131
528.9570988691607
528.8927598593176
528.8078637690037
528.7022699641122
528.575855519717
528.4285157980369
528.2601649993751
528.0707366844811
527.8601842667676
527.6284814728828
527.3756227702263
527.1016237601104
526.8065215353234
526.4903750009258
526.1532651571902
525.7952953437277
525.416591443906
525.0173020487179
524.5975985793204
524.1576753675439
523.6977496937749
523.2180617817211
522.7188747496693
522.2004745179511
521.6631696723645
521.1072912834626
520.5331926817482
519.9412491888762
519.3318578050782
518.7054368531612
518.0624255795655
517.4032837130954
516.7284909820697
516.0385465907224
515.3339686557691
514.6152936041574
513.8830755331342
513.1378855339244
512.3803109804355
511.6109547844605
510.83043461889525
510.03938211050837
509.2384420038462
508.4282712979987
507.60953835806566
506.7829220032216
505.9491105733259
505.1088009761002
504.26269771698134
503.41151191384597
502.5559602988658
501.69676420974207
500.83464857258053
499.9703408787098
499.10457015783066
498.2380659499486
497.37155727855
496.5057716274457
495.6414339236907
494.7792655289757
493.9199832418421
493.06429831299766
492.2129154759956
491.3665319955163
490.5258367354571
489.6915092489811
488.8642188926189
488.0446239664518
487.2333708822635
486.4310933614304
485.63841166429967
484.8559318527099
484.0842450871859
483.3239269602212
482.5755368669471
481.8396174143488
481.11669387007413
480.4072736517752
479.71184585778394
479.0308808397425
478.3648298176097
477.7141245373415
477.07917697147906
476.46037906274813
475.8581025106106
475.2726986005532
474.70449807578717
474.15381105086715
473.62092696657385
473.106114585216
472.6096220253677
472.13167683492884
471.67248610125097
471.2322365969733
470.8110949601074
470.4092079067607
470.0267024747727
469.6636862964572
469.320247898536
468.99645702726025
468.6923649966272
468.4080050575495
468.1433927858096
467.8985264865987
467.67338761339465
467.46794119889665
467.2821362956926
467.1159064243543
466.96917002667254
466.8418309217346
466.73377876253466
466.6448894908892
466.57502578852325
466.52403752223836
466.49176218113587
466.4780253039797
466.48264089484934
466.5054118253309
466.5461302216131
466.60457783495184
466.680526394119
466.77373793860545
466.8839651315025
467.010951551114
467.15443196047295
467.31413255412474
467.4897711817053
467.68105754805015
467.88769338976147
468.10937262831294
468.3457814999152
468.5965986625501
468.86149528075157
469.1401350888969
469.4321744339717
469.73726229893686
470.05504030797266
470.3851427150404
470.7271963773776
471.08082071566685
471.44562766275476
471.8212216029495
472.2071993040586
472.6031498444116
473.00865453715534
473.42328685417414
473.8466123520616
474.27818860260146
474.717565130237
475.16428335902526
475.6178765715457
476.07786988220965
476.54378022738734
477.015116374748
477.49137895415623
477.9720605123907
478.456645593828
478.94461084910785
479.43542517365097
479.9285498777448
480.42343888973693
480.91953899370407
481.41629010279036
481.91312556928006
482.40947253229746
482.90475230385255
483.39838079384026
483.88976897446315
484.37832338442104
484.8634466730597
485.34453818451715
485.82099458170745
486.2922105098425
486.75757929910725
487.2164937059953
487.6683466926325
488.1125322432879
488.5484462172478
488.9754872371758
489.3930576119412
489.8005642926703
490.1974198604602
490.5830435438973
490.95686226435896
491.3183117069406
491.66683741475447
492.00189590420126
492.32295579867406
492.6294989779806
492.9210217406464
493.1970359761707
493.4570703442387
493.7006714578302
493.92740506713733
494.1368572411837
494.32863554410125
494.5023702030866
494.6577152650986
494.7943497393878
494.91197872299756
495.0103345064167
495.08917765660004
495.1482980745938
495.18751602499145
495.2066831343427
495.205683355504
495.18443389487993
495.14288609955645
495.0810263013083
494.99887661446775
494.8964956846707
494.7739793854832
494.63146145987065
494.46911410346655
494.2871484866039
494.08581521205593
493.8654047053958
493.62624753485727
493.3687146576312
493.0932175895556
492.80020849510964
492.4901801945807
492.1636660853034
491.8212399738889
491.463515816418
491.09114736363637
490.70482770824
490.305288731405
489.89330044582806
489.4696702327058
489.0352419702958
488.5908950518875
488.1375432911726
487.6761337131922
487.2076452293149
486.73308719495896
486.2534978490666
485.76994263469135
485.28351240043565
484.79532148290656
484.30650567080653
483.81822005174865
483.33163674335884
482.8479425106848
482.3683362724115
481.8940264988976
481.4262285055797
480.9661616458728
480.5150464082927
480.07410142311073
479.64454038445217
479.22756889437665
478.82438123608944
478.43615708406185
478.06405815947875
477.7092248400735
477.3727727340264
477.05578922818074
476.7593300213566
476.48441565409047
476.23202804666676
476.00310705776667
475.7985470764574
475.6191936606497
475.4658402355073
475.3392248655706
475.24002711460304
475.16886500734114
475.12629210746155
475.11279472611926
475.12878927537133
475.17461978069394
475.25055556663466
475.3567891293903
475.49343420980864
475.66052407989696
475.8580100553966
476.0857602463762
476.3435585571235
476.6311039458687
476.9480099540352
477.2938045138262
477.6679300419954
478.06974382657364
478.49851871216634
478.9534440882592
479.43362718376756
479.93809466976063
480.465794570918
481.0155984849105
481.58630410749436
482.1766380596278
482.7852590114402
483.41076109642665
484.0516776078278
484.70648496769405
485.37360695762476
486.0514191987981
486.73825386757125
487.43240463161436
488.13213179025524
488.83566760148943
489.54122177693677
490.24698712489266
490.95114532059506
491.65187278191956
492.3473466279348
493.03575069713867
493.715281601728
494.3841547938567
495.0406106195129
495.6829203354283
496.3093920643109
496.918376663665
497.5082734835995
498.0775359892257
498.624677223557
499.14827508729405
499.6469774124479
500.11950680744235
500.56466525216865
500.98133842243067
501.36849972421584
501.725214019288
502.05064102483675
502.3440383713053
502.60476430389804
502.8322800146188
503.0261515931381
503.1860515864791
503.3117601594272
503.4031658497223
503.4602659142558
503.48316626454454
503.4720809917303
503.42733148326244
503.3493451353399
503.23865366716166
503.0958910450499
502.92179102650346
502.7171843361287
502.48299548720956
502.2202392643233
501.930016883883
501.6135118508225
501.2719855308648
500.9067724589079
500.5192754050493
500.11096022065726
499.6833504876506
499.23802199481906
498.7765970656626
498.30073876274287
497.81214499393946
497.3125425463548
496.8036810738789
496.2873270644552
495.76525781294174
495.2392554251761
494.711100878362
494.18256816227773
493.65541852513684
493.1313948471402
492.61221616382903
492.09957236032176
491.59511905643734
491.1004727015506
490.61720589676526
490.14684296065354
489.6908557533677
489.25065977243855
488.82761053205854
488.4230002360865
488.03805475341704
487.67393090273794
487.33171405203973
487.01241603662373
486.7169733977757
486.446245942646
486.20101562427993
485.9819857391557
485.78978043803596
485.6249445444844
485.48794367398415
485.3791646452604
485.29891617418633
485.24742983947294
485.224861308235
485.23129180854767
485.26672983517534
485.3311130738029
485.4243105283782
485.5461248355722
485.69629474985805
485.87449778234543
486.080352976271
486.31342380188437
486.5732211533801
486.85920643057017
487.1707946881286
487.50735783545576
487.8682278704895
488.25270013117256
488.6600365487692
489.08946888773966
489.5402019574911
490.0114167820089
490.50227371412717
491.0119154820296
491.53947015642456
492.08405402769023
492.64477438318943
493.2207321759253
493.81102457671795
494.41474740303056
495.0309974185352
495.65887449846537
496.297483656779
496.94593693210265
497.6033551303803
498.26886942307766
498.9416228006476
499.6207713818132
500.3054855800352
500.99495112931083
501.6883699721796
502.3849610135192
503.08396074433864
503.78462374033455
504.48622304050474
505.18805041160795
505.88941650466654
506.5896509100414
507.28810211793945
507.9841373914893
508.67714255970566
509.3665217377719
510.0516969821628
510.7321078881901
511.407211137519
512.0764800031134
512.7394038189909
513.3954874220015
514.0442505726134
514.6852273614469
515.3179656080735
515.9420262583782
516.5569827864118
517.1624206062485
517.7579364989442
518.3431380593375
518.9176431670435
519.4810794856176
520.0330839934674
520.573302549692
521.1013894975663
521.6170073079418
522.1198262644034
522.6095241915109
523.0857862270091
523.5483046385078
523.9967786847111
524.4309145209131
524.8504251481396
525.2550304049759
525.6444570008648
526.0184385894055
526.3767158799346
526.7190367854772
527.0451566050082
527.3548382378269
527.6478524277053
527.9239780343881
528.1830023299863
528.4247213177433
528.6489400705849
528.8554730868658
529.0441446608219
529.2147892653494
529.3672519447713
529.5013887152292
529.6170669702137
529.7141658886488
529.7925768429429
529.8522038044587
529.8929637439064
529.9147870242874
529.9176177840641
529.9014143082663
529.8661493852421
529.8118106468293
529.7384008897958
529.645938376525
529.5344571130797
529.4040071029635
529.2546545751176
529.0864821849266
528.8995891872494
528.694091580676
528.470122222409
528.2278309133402
527.9673844530071
527.688966664236
527.3927783873897
527.0790374442108
526.74797857128
526.3998533231857
526.0349299455781
525.6534932183432
525.2558442692415
524.8423003584631
524.4131946346462
523.9688758629502
523.5097081258325
523.0360704972364
522.5483566909171
522.0469746836656
521.5323463142315
521.0049068587729
520.4651045836915
519.9134002767571
519.3502667574817
518.7761883677277
518.1916604435454
517.5971887692731
516.9932890149931
516.3804861584468
515.7593138924817
515.1303140191353
514.4940358315156
513.8510354846934
513.2018753568377
512.5471234018518
511.8873524948284
511.2231397716512
510.55506596403166
509.8837147312991
509.2096719902823
508.53352524462696
507.8558629148839
507.1772736707045
506.4983457664461
505.81966638144945
505.1418209662675
504.46539259612615
503.790961332856
503.11910359650835
502.4503915478376
501.7853924827922
501.12466824009624
500.4687746229772
499.8182608360517
499.1736689383163
498.5355333131275
497.9043801560188
497.280726981132
496.6650821469605
496.0579444020179
495.4598024509428
494.87113454144634
494.29240807245833
493.7240792237769
493.1665926073849
492.62038094042714
492.08586473974236
491.56345203778915
491.0535381197308
490.5565052813338
490.07272260722846
489.60254576900365
489.14631684251793
488.7043641437537
488.27700208250144
487.86453103309515
487.46723722133754
487.085392626665
486.71925489854135
486.3690672860191
486.0350585793772
485.7174430627273
485.4164204764577
485.132175988354
484.8648801722167
484.6146889927763
484.38174379568926
484.1661713014312
483.96808360192523
483.7875781587606
483.62473780188475
483.47963072770824
483.35231049563
483.242816022049
483.15117157102367
483.0773867408517
483.0214564459202
482.9833608932169
482.9630655529345
482.9605211227604
482.9756634856403
483.0084136609328
483.05867774893966
483.1263468689056
483.21129709072
483.31338936066265
483.43246942164643
483.5683677285727
483.72089935957183
483.8898639240125
484.0750454682972
484.2762123805736
484.4931172955836
484.725497000995
484.9730723467246
485.2355481588836
485.51261316004684
485.803939897627
486.1091846822293
486.42798753793056
486.75997216645897
487.1047459272866
487.4618998356794
487.83100858077665
488.2116305657772
488.6033079722748
489.0055668507558
489.4179172392598
489.83985331220305
490.2708535613051
490.7103810104896
491.1578834665389
491.6127938071708
492.0745303080884
492.5424970104069
493.0160841296445
493.49466850725196
493.97761410549685
494.46427254634574
494.95398369478875
495.4460762868973
495.9398686027282
496.434669183983
496.9297775961611
497.42448523480715
497.9180761752896
498.40982806538443
498.8990130597364
499.384898795115
499.86674940525484
500.34382657394184
500.8153906248856
501.2807016468066
501.7390206520582
502.18961076701606
502.63173845243574
503.0646747519568
503.4876965668016
503.90008795447096
504.30114144894674
504.6901593997558
505.066455327131
505.4293552903569
505.7781992662597
506.1123425347143
506.4311570679461
506.7340329203022
507.0203796150772
507.2896275248732
507.5412292418745
507.7746609344018
507.9894236861779
508.18504481479386
508.3610791659472
508.5171103801685
508.65275212891896
508.7676493170321
508.86147924853356
508.9339527529267
508.9848152691036
509.0138478840644
509.02086832360663
509.00573189215794
508.96833235898674
508.9086027881008
508.82651630918554
508.72208682700176
508.5953696667263
508.4464621527496
508.27550411846454
508.0826783445838
507.8682109235466
507.6323715476334
507.3754737184344
507.09787487539535
506.7999764412021
506.48222378176547
506.1451060785886
505.78915611133533
505.4149499484833
505.0231065439761
504.6142872378489
504.1891951588886
503.748574527513
503.29320985717555
502.8239250527088
502.3415824041569
501.8470814748204
501.34135788240314
500.8253819723236
500.3001573825007
499.7667194991807
499.22613380360946
498.67949410958465
498.1279206922517
497.57255830886777
497.01457411262874
496.4551554610151
495.8955076205122
495.336851369993
494.7804205054959
494.22745924955933
493.67921956871214
493.1369584031623
492.6019348131831
492.0754070471929
491.55862953703127
491.0528498264682
490.5593054394969
490.0792206954877
489.6138034788161
489.16424197107966
488.7317013545244
488.317320495815
487.92220861978814
487.5474419833042
487.1940605597629
486.8630647452282
486.55541209753403
486.2720141201079
486.013733102568
485.78137903040374
485.57570657625394
485.3974121854731
485.2471312687722
485.1254355147861
485.03283033541084
484.96975245669535
484.9365676679855
484.93356874177107
484.9609735363549
485.01892329312835
485.1074811398847
485.2266308111249
485.37627559573315
485.55623752178
485.76625678751526
486.00599144682735
486.27501735659865
486.57282839246614
486.89883693852545
487.25237465547957
487.6326935306546
488.038967212173
488.4702926283482
488.92569189210906
489.4041144890306
489.9044397462689
490.42547957837184
490.96598150463245
491.52463193135594
492.10005969107124
492.6908398293734
493.2954976287838
493.91251285774604
494.54032423168763
495.1773340718993
495.8219131468258
496.472405679236
497.1271345017042
497.7844063418481
498.4425172178602
499.0997579240728
499.7544195856034
500.4047992605596
501.0492055678722
501.68596431854274
502.31342412784073
502.92996198580477
503.53398876336587
504.1239546314376
504.698354370479
505.25573254831346
505.79468854431815
506.3138813985087
506.8120344646338
507.2879398471101
507.74046260244853
508.1685446866822
508.57120863120724
508.9475609305301
509.2967951265997
509.61819457562285
509.9111348845298
510.17508600560495
510.4096139790721
510.6143823147899
510.7891530058481
510.9337871687968
511.0482453072688
511.1325871976687
511.1869713974471
511.2116543783559
511.2069892889129
511.1734243521115
511.1115009062441
511.0218510984735
510.90519524251863
510.76233885355026
510.594169374993
510.4016526133302
510.1858288982314
509.9478089864475
509.6887697288835
509.4099495210518
509.1126435578228
508.7981989140617
508.46800947335396
508.1235107275783
507.7661744705403
507.39750340925684
507.01902571674987
506.6322895503245
506.23885755922765
505.840301405377
505.43819632050764
505.0341157226177
504.6296259140505
504.2262808829006
503.8256172286753
503.429149232337
503.03836408991737
502.6547173278742
502.2796284172866
501.91447660277447
501.56059696074345
501.21927670024013
500.89175171832267
500.57920342042786
500.28275581473224
500.0034728879981
499.7423562689078
499.5003431833682
499.27830470472156
499.0770443002519
498.89729667388315
498.7397269034588
498.6049298695325
498.4934299712232
498.405681123319
498.3420670274953
498.3029017092134
498.28843031071517
498.29883012947954
498.33421189053956
498.3946212401169
498.48004044720005
498.59039029892955
498.72553217500445
498.8852702857788
499.06935405825357
499.27748065381394
499.5092976013444
499.7644055292588
500.04236097993504
500.3426792900747
500.6648375206571
501.0082774203932
501.37240840694454
501.75661055055673
502.1602375452386
502.58261965317365
503.02306660866395
503.4808704685824
503.9553083970565
504.4456453729008
504.9511368091467
505.47103107488374
506.00457191049844
506.5510007282909
507.1095587913665
507.6794892646911
508.2600391331782
508.8504609826464
509.45001464044117
510.05796867343963
510.6736017421077
511.29620381019873
511.92507721051743
512.5595375680294
513.1989145824323
513.8425526730584
514.4898114896735
515.1400662933812
515.7927082124419
516.4471443784197
517.1027979486153
517.7591080212185
518.415529449984
519.0715325656067
519.7266028112862
520.3802403002346
521.0319593030861
521.681287673283
522.3277662185922
522.9709480269469
523.610397754798
524.2456908860701
524.8764129696775
525.5021588433846
526.122531851587
526.7371430643561
527.3456105048173
527.9475583916413
528.5426164030712
529.1304189684996
529.710604593225
530.282815221588
530.8466956432716
531.4018929470635
531.94805602594
532.484835136858
533.0118815181862
533.5288470671961
534.0353840795656
534.531145052336
535.01578255126
535.4889491429793
535.9502973920384
536.3994799222711
536.836149541651
537.2599594293232
537.670563383165
538.0676161259084
538.4507736675923
538.8196937218206
539.1740361730259
539.5134635917038
539.8376417944006
540.1462404451269
540.4389336947163
540.7154008544902
540.975327100549
541.2184042049641
541.444331290173
541.6528156029285
541.8435733042633
542.0163302719367
542.1708229117023
542.3067989735963
542.424018369405
542.5222539874791
542.6012925010634
542.6609351663701
542.7009986066896
542.7213155788854
542.7217357187246
542.7021262615563
542.662372734926
542.6023796198269
542.5220709774894
542.4213910388521
542.3003047540907
542.1587982998881
541.9968795424385
541.8145784544621
541.6119474848198
541.3890618795353
541.1460199532513
540.8829433102916
540.5999770146766
540.2972897085912
539.9750736789674
539.633544872057
539.2729428560613
538.8935307320545
538.4955949936101
538.0794453357092
537.6454144136853
537.193857553112
536.725152411683
536.2396985942197
535.7379172220559
535.2202504581214
534.6871609891467
534.1391314664905
533.5766639071932
533.000279056944
532.4105157167411
531.8079300351036
531.1930947677873
530.5665985070099
529.9290448821915
529.2810517342944
528.6232502659124
527.9562841693216
527.2808087347039
526.5974899407829
525.9070035301066
525.2100340712483
524.5072740102067
523.799422713343
523.0871855042128
522.3712726965609
521.6523986256625
520.9312806801368
520.2086383363451
519.4851921974247
518.7616630389662
518.0387708632819
517.3172339641925
516.5977680041808
515.881085105688
515.1678929582189
514.4588939428368
513.7547842755638
513.0562531711255
512.3639820283464
511.67864363836503
511.00090141672234
510.331408660293
509.6708078299013
509.01972985937124
508.37879349163023
507.74860464234774
507.12975579146234
506.52282540284205
505.92837737223675
505.3469605035745
504.77910801351965
504.22533706412236
503.68614832325756
503.16202555243586
502.65343522145065
502.16082614923533
501.68462917026335
501.2252568257175
500.7831030785837
500.3585430518273
499.95193278873035
499.5636090343782
499.19388903726525
498.8430703699748
498.5114307678959
498.1992279849435
497.9066996652078
497.6340632294112
497.381515775089
497.1492339894608
496.9373740739593
496.74607167938507
496.5754418506901
496.4255789804413
496.29655677008975
496.18842819822885
496.1012254950806
496.03496012252543
495.9896227590925
495.9651832894765
495.96159079824633
495.97877356745397
496.0166390779545
496.0750740143601
496.15394427362827
496.25309497741443
496.3723504884453
496.5115144312385
496.6703697176081
496.8486785775162
497.04618259596486
497.2626027567363
497.49763949388483
497.7509727519714
498.0222620561348
498.31114659317353
498.6172453048603
498.94015699479286
499.2794604501388
499.63471457971497
500.0054585699267
500.3912120601558
500.79147533919223
501.205729564311
501.6334370045963
502.07404131006854
502.52696780814176
502.99162382890313
503.46739906065426
503.95366593709485
504.44978005745827
504.95508064083424
505.4688910158376
505.9905191466915
506.51925819667446
507.05438712975996
507.5951713511373
508.1408633870981
508.6907036045487
509.2439209702301
509.79973384957117
510.3573508449343
510.9159716728565
511.47478807973386
512.0329847952654
512.5897405228026
513.1442289656029
513.6956198878456
514.2430802091342
514.7857751310736
515.3228692943848
515.8535279648736
516.3769182464972
516.8922103196967
517.3985787030745
517.8952035364374
518.3812718831849
518.8559790500449
519.3185299221442
519.7681403113252
520.2040383154433
520.6254656862216
521.0316792030704
521.4219520501656
521.7955751939577
522.1518587582473
522.4901333939639
522.8097516407806
523.110089277609
523.3905466589317
523.6505500337755
523.8895528440503
524.1070369990086
524.302514122676
524.475526771205
524.6256496173105
524.7524905991519
524.8556920311368
524.9349316742241
524.9899237633754
525.0204199898254
525.0262104359024
525.007124460216
524.963031531119
524.8938420063681
524.7995078569028
524.6800233327374
524.5354255690384
524.3657951305007
524.1712564921017
523.9519784543269
523.7081744909636
523.4401030275093
523.1480676481939
522.8324172296471
522.4935459993296
522.1318935168869
521.7479445765446
521.3422290286563
520.915321518502
520.4678411404241
520.0004510053759
519.5138577199835
519.0088107752783
518.4861018432877
517.9465639797234
517.3910707310692
516.8205351444273
516.2359086786107
515.6381800151446
515.0283737679691
514.4075490907755
513.7767981810696
513.1372446802657
512.4900419693466
511.8363713598864
511.1774401804962
510.51447975907087
509.84874330152417
509.18150366805395
508.51405104838244
507.8476905378048
507.18373961630266
506.5235255334148
505.8683826020371
505.2196494047937
504.5786659170703
503.94677055131956
503.32529712773675
502.7155717768878
502.11890978043994
501.5366123567103
500.96996339827024
500.42022616936566
499.88863997145904
499.3764167857338
498.884737901946
498.4147505434845
497.9675644989437
497.54424877096835
497.1458282535973
496.7732804497496
496.42753224084134
496.1094567208087
495.81987010707513
495.55952874123585
495.3291261923928
495.1292904761705
494.96058140247726
494.8234880650186
494.71842648546544
494.64573742505667
494.605684376183
494.5984517461599
494.624143245051
494.6827804889435
494.7743018295352
494.8985614203095
495.0553285288952
495.24428710444806
495.46503560805337
495.7170871132471
495.9998696828126
496.3127270269875
496.65491944713045
497.0256250677725
497.42394135878664
497.84888694819534
498.29940372487954
498.7743592291247
499.27254932758797
499.79270116794896
500.3334764071514
500.8934747057905
501.47123747987087
502.06525189986877
502.6739551257695
503.29573876548045
503.9289535428129
504.5719141600185
505.2229043387286
505.8801820220567
506.54198471959916
507.2065349761299
507.8720459439301
508.53672703790744
509.19878965202776
509.85645291512265
510.50794946381075
511.151531209987
511.78547508011985
512.4080887034565
513.0177160262054
513.6127428288502
514.1916021239352
514.7527794119843
515.2948177736112
515.8163227763845
516.3159671756579
516.7924953893377
517.244727727401
517.6715643579314
518.0719889924337
518.4450722742323
518.7899748549361
519.1059501452443
519.392346727632
519.6486104196961
519.8742859783094
520.069018436403
520.2325540661274
520.3647409640613
520.4655292560616
520.5349709212637
520.5732192366153
520.5805278450845
520.5572494524198
520.5038341591559
520.4208274363465
520.3088677553159
520.1686838835482
520.0010918605255
519.8069916688072
519.58736361691
519.3432644516489
519.0758232184911
518.7862368892654
518.4757657774227
518.1457287617988
517.7974983405197
517.4324955373736
517.0521846834523
516.6580680972038
516.2516806862242
515.8345844942739
515.4083632170299
514.9746167099576
514.5349555113822
514.0909954034895
513.644352033577
513.1966356173493
512.74944574535
512.3043663129067
511.8629605931536
511.4267664717255
510.99729186058846
510.57601030732053
510.16435681499706
509.7637238866086
509.3754578066359
509.00085517101513
508.6411596753388
508.2975591696874
507.97118298701497
507.66309955050616
507.37431426384285
507.1057676868432
506.85833399747537
506.6328197397605
506.4299628556402
506.2504319975359
506.09482611699826
505.96367432355095
505.85743600659043
505.7765012120432
505.72119126441487
505.69175962385515
505.68839296692306
505.7112124789013
505.7602753447622
505.83557642525324
505.93705010403767
506.0645722913356
506.2179625691464
506.3969864628564
506.60135782386976
506.83074130781193
507.0847549328728
507.3629727029855
507.6649272807307
507.9901126951093
508.33798706968906
508.70797535707965
509.0994720661728
509.5118439691226
509.94443277561584
510.3965577626857
510.86751834908654
511.3565966040307
511.86305968084815
512.3861621669356
512.9251483421897
513.4792543389724
514.0477101975569
514.6297418118934
515.2245727614084
515.8314260254292
516.4495255776907
517.078097859221
517.7163731287048
518.3635866902483
519.0189799992501
519.6818016478242
520.3513082319428
521.0267651031164
521.7074470080075
522.3926386199527
523.0816349668937
523.7737417607067
524.4682756333335
525.1645642855051
525.8619465541432
526.5597724048064
527.2574028557607
527.9542098403965
528.6495760148184
529.3428945175137
530.0335686880322
530.7210117515807
531.4046464763497
532.0839048102564
532.75822750363
533.4270637241856
534.0898706704087
534.7461131892104
535.395263403397
536.0368003541545
536.6702096634066
537.2949832205354
537.9106188975645
538.5166202965142
539.1124965322665
539.6977620539012
540.2719365070286
540.8345446392195
541.3851162502132
541.9231861881931
542.4482943929303
542.9599859861512
543.457811409056
543.9413266065313
544.4100932572572
544.8636790485879
545.3016579947811
545.7236107968555
546.1291252420742
546.5177966408277
546.8892282984941
547.2430320196722
547.5788286419702
547.8962485964089
548.1949324913819
548.4745317170559
548.7347090670944
548.9751393745953
549.1955101591351
549.3955222818574
549.574890605671
549.7333446577517
549.8706292915398
549.9865053453312
550.0807502945179
550.1531588945377
550.203543811589
550.2317362381573
550.2375864905428
550.2209645856709
550.1817607944797
550.1198861692637
550.0352730424653
549.9278754944247
549.7976697876547
549.6446547653184
549.4688522117685
549.270307173269
549.0490882373408
548.8052877694772
548.5390221062047
548.2504317037045
547.9396812414002
547.6069596800494
547.252480274024
546.876480537621
546.479222165422
546.0609909069099
545.6220963956606
545.1628719335221
544.6836742303236
544.1848830997989
543.6669011124787
543.1301532063816
542.575086256444
542.0021686036964
541.411889545236
540.8047587861265
540.1813058544958
539.542079481154
538.8876469450832
538.21859338618
537.5355210867127
536.8390487230378
536.1298105891357
535.4084557935759
534.6756474315482
533.9320617336683
533.1783871933254
532.4153236743791
531.6435815010187
530.8638805317019
530.0769492190935
529.2835236579359
528.484346622814
527.6801665978371
526.8717368002876
526.0598142002896
525.2451585385187
524.4285313439835
523.6106949538594
522.7924115373277
521.9744421253581
521.1575456483292
520.3424779833354
519.5299910130204
518.7208316977534
517.9157411629207
517.1154538030289
516.320696404252
515.5321872869929
514.7506354699427
513.9767398570228
513.2111884485201
512.4546575776085
511.70781117333127
510.9713000510416
510.2457612312351
509.53181728762786
508.83007572516584
508.141128388501
507.4655509013947
506.80390213742146
506.1567237222229
505.52453956743835
504.907855436333
504.30715854099805
503.7229171708363
503.15558035194096
502.6055775368836
502.07331832435796
501.5591922080348
501.06356835390324
500.58679540529016
500.1292013146532
499.6910932011734
499.2727572330864
498.8744585335918
498.49644110915733
498.1389277990032
497.80212024449656
497.48619887715193
497.1913229239009
496.9176304282867
496.66523828625697
496.4342422951993
496.2247172148647
496.0367168388732
495.8702740755554
495.7254010369226
495.6020891345575
495.5003091812886
495.4200114976107
495.36112602194214
495.3235624239024
495.307210219871
495.31193889017607
495.3375979973503
495.38401730501903
495.4510068971074
495.5383572971546
495.6458395876539
495.77320552950226
495.9201876817714
496.0864995221315
496.2718355683681
496.47587150157335
496.69826429173315
496.9386523265705
497.1966555446174
497.471875573611
497.76389587540797
498.07228189870733
498.396581240966
498.73632382096883
499.0910220635928
499.46017109836447
499.84324897346147
500.2397168868708
500.64901943643827
501.07058489053867
501.5038254810672
501.94813772047695
502.40290274458465
502.8674866828327
503.34124105764613
503.82350321445705
504.31359678390044
504.8108321775868
505.3145071187668
505.82390720907546
506.3383065323724
506.8569682964754
507.3791455133921
507.9040817184686
508.4310117286727
508.9591624400831
509.4877536645372
510.01599900518636
510.54310677053803
511.06828092644196
511.59072208531626
512.1096285316949
512.6241972830056
513.1336251843497
513.6371100359223
514.1338517516376
514.6230535474368
515.1039231576002
515.5756740773028
516.0375268295933
516.4887102549635
516.9284628215902
517.3560339541326
517.770685378735
518.1716924816695
518.558345678854
518.9299517932465
519.2858354370027
519.625340395254
519.947831008341
520.252693549215
520.5393375925861
520.8071973722723
521.0557331230565
521.284432403291
521.4928113945193
521.6804161744336
521.846823959591
521.9916443144795
522.1145203236946
522.2151297241021
522.293185993915
522.3484393957028
522.380677970437
522.3897284797565
522.3754572937273
522.3377712214508
522.276618281935
522.1919884127019
522.0839141137119
521.9524710242208
521.7977784302379
521.6199997002703
521.4193426470704
521.1960598131085
520.9504486775581
520.6828517826375
520.3936567772289
520.0832963757821
519.7522482305897
519.4010347156257
519.0302226201796
518.6404227505463
518.232289438124
517.8065199523625
517.3638538170452
516.9050720284545
516.4309961741156
515.9424874509652
515.4404455819132
514.9258076299154
514.3995467088545
513.862670590727
513.3162202088478
512.7612680570188
512.1989164848188
511.6302958893775
511.0565628042362
510.4788978861979
509.898503801355
509.3166030117707
508.7344354646
508.1532561858048
507.5743327810267
506.9989428465841
506.4283712939963
505.8639075919128
505.30684292976775
504.75846730787396
504.2200665590703
503.6929193074935
503.17829387051904
502.67744511036784
502.1916112423307
501.7220106070299
501.26983841464533
500.8362634695277
500.4224248840611
500.0294287910664
499.65834506447305
499.31020405838143
498.9859933750137
498.6866546723747
498.41308052276145
498.16611133358515
497.9465323422378
497.75507069692276
497.5923926354945
497.4591007744647
497.3557315203963
497.28275261591983
497.240560832517
497.22947982206637
497.2497581389253
497.30156744407174
497.3850009025245
497.5000717849185
497.6467122836391
497.82477255336823
498.0340199853083
498.2741387236872
498.54472943240893
498.84530931890134
499.1753124213415
499.53409016451275
499.92091218858764
500.33496745411435
500.77536562540075
501.24113873333147
501.7312431175131
502.244561646456
502.77990621326984
503.33602050309867
503.91158302726325
504.5052104178083
505.1154609748984
505.7408384582239
506.3797961123217
507.030740914489
507.6920380328235
508.3620154808129
509.03896895376795
509.7211668312824
510.40685532887323
511.09426378099676
511.78161003675865
512.4671059488084
513.1489629351627
513.825397593088
514.4946373437006
515.1549260856214
515.8045298358184
516.4417423356534
517.0648906000489
517.6723403877102
518.2625015704489
518.8338333798333
519.3848495097227
519.914123053689
520.4202912568203
520.9020600620149
521.3582084316054
521.787592425994
522.1891490219051
522.5618996538376
522.9049534633057
523.2175102415476
523.4988630526025
523.7484005249058
523.9656088007494
524.1500731341742
524.3014791293105
524.4196136129129
524.5043651367582
524.5557241075027
524.5737825435225
524.558733460109
524.5108698861517
524.4305835171145
524.3183630107694
524.1747919339102
524.0005463700437
523.7963921998473
523.5631820678524
523.3018520503327
523.0134180406611
522.6989718695265
522.3596771783283
521.996765064868
521.6115295211803
521.2053226840887
520.7795499197048
520.3356647636481
519.8751637392297
519.3995810761793
518.9104833527479
518.4094640841471
517.8981382802992
517.3781369957603
516.8511018944494
516.3186798514814
515.7825176139849
515.2442565422864
514.7055274522813
514.1679455790729
513.6331056811728
513.1025773035932
512.5779002171656
512.0605800503129
511.55208412834094
511.0538375340915
510.5672194025195
510.0935594604438
509.6341348213083
509.190167043383
508.76281945844227
508.3531947765442
507.9623329710742
507.5912094466948
507.2407334913976
506.91174701242363
506.6050235544172
506.32126759678795
506.0611141258995
505.82512847639424
505.6138064347508
505.42757459704444
505.26679097180374
505.1317458178813
505.0226627063616
504.93969979468176
504.88295130037886
504.85244916119626
504.8481648676969
504.8700114540271
504.9178456320634
504.9914700538246
505.0906356868389
505.21504428707885
505.3643509541005
505.5381667530964
505.73606138872714
505.9575659158315
506.2021754724573
506.46935202104777
506.75852708405586
507.0691044607936
507.40046291292646
507.7519588066656
508.1229287003891
508.51269186716445
508.9205527424205
509.34580328786785
509.78772526360564
510.2455924011863
510.71867247128176
511.2062292404673
511.70752431251765
512.2218188504687
512.7483751765658
513.2864582480772
513.8353370077884
514.3942856088001
514.9625845140681
515.5395214718849
516.1243923692235
516.7165019654909
517.3151645098997
517.919704246315
518.529455809968
519.1437645209264
519.7619865796252
520.3834891701932
521.0076504776519
521.6338596254051
522.2615165396782
522.8900317477406
523.5188261169175
524.1473305415062
524.7749855847267
525.4012410828079
526.0255557182813
526.647396569482
527.2662386431404
527.8815643967439
528.4928632571085
529.0996311413619
529.7013699863109
530.297587291867
530.8877956838352
531.4715125009637
532.0482594108271
532.6175620587687
533.1789497537512
533.7319551945749
534.2761142394944
534.810965721848
535.33605131392
535.8509154408495
536.3551052459209
536.8481706080814
537.3296642120899
537.7991416712632
538.2561617024088
538.7002863521649
539.131081273607
539.5481160516698
539.950964575643
540.3392054566901
540.7124224880814
541.0702051456033
541.4121491254143
541.7378569164251
542.0469384041425
542.3390115028313
542.6137028127639
542.8706482992923
543.1094939904384
543.3298966897487
543.5315247012911
543.7140585637786
543.877191790849
544.0206316144819
544.1440997284149
544.2473330283073
544.3300843453353
544.3921231699459
544.4332363625616
544.4532288481006
544.4519242912584
544.4291657495605
544.3848163012249
544.3187596448843
544.2309006682491
544.1211659829074
543.9895044226226
543.8358875027116
543.660309838353
543.4627895199919
543.2433684442398
543.002112598916
542.7391123010918
542.454482387236
542.1483623547696
541.8209164545507
541.472333733961
541.1028280304065
540.7126379152244
540.3020265881353
539.8712817225526
539.420715262196
538.9506631696112
538.4614851272901
537.9535641921906
537.4273064045422
536.8831403519259
536.3215166896989
535.7429076189457
535.1478063232348
534.5367263655194
533.9102010466024
533.2687827266872
532.6130421116594
531.9435675058277
531.2609640329109
530.5658528271215
529.8588701962163
529.1406667584283
528.4119065552749
527.6732661423398
526.9254336601479
526.1691078872636
525.4049972777801
524.6338189854239
523.856297876574
523.0731655345347
522.2851592573758
521.49302105165
520.6974966242873
519.8993343748965
519.0992843906844
518.2980974461823
517.4965240099408
516.6953132603217
515.895212112464
515.096964258462
514.3013092227334
513.5089814345075
512.7207093192594
511.93721441082215
511.1592104857994
510.3874027217976
509.6224868809007
508.8651485197038
508.1160622270988
507.37589089088516
506.6452849941444
505.9248819421832
505.2153054207299
504.5171647859519
503.83105448673336
503.15755351951793
502.4972249158835
501.8506152628634
501.21825425590174
500.60065428418204
499.9983100479266
499.4116982071567
498.8412770613152
498.2874862590334
497.75074653718605
497.2314594882849
496.73000735518553
496.2467528519991
495.78203901000643
495.3361890473049
494.9095062608714
494.50227393965855
494.11475529725914
493.74719342265286
493.39981124754166
493.07281152876
492.76637684426026
492.4806696011767
492.2158320544558
491.9719863345553
491.74923448276434
491.5476584927006
491.36732035661646
491.20826211525514
491.07050591011995
490.9540540370924
490.8588890004021
490.78497356604447
490.73225081387613
490.7006441877626
490.69005754330726
490.7003751927969
490.73146194710984
490.783163154516
490.85530473644764
490.9476932204102
491.0601157703255
491.1923402147447
491.34411507352115
491.51516958370297
491.705213725566
491.9139382498261
492.141014707188
492.38609548152925
492.648813828186
492.928783918913
493.22560089518606
493.53884093161554
493.8680613113188
494.21280051517834
494.5725783269563
494.94689595626687
495.3352361814494
495.73706351442803
496.1518243896453
496.5789473791254
497.0178434357038
497.4679061663921
497.9285121378032
498.39902121552836
498.87877693929494
499.36710693562884
499.86332336958543
500.36672343694147
500.8765898981408
501.3921916551538
501.91278437218307
502.43761114092007
502.96590319084487
503.49688064486435
504.029753320352
504.56372157544945
505.0979772003141
505.6317043528011
506.1640805378779
506.694277629885
507.2214629365754
507.74480030368244
508.2634512585939
508.776576191534
509.2833355725298
509.7828912023295
510.2744074953584
510.75705279269965
511.23000070299827
511.69243146915863
512.1435333586811
512.5825040753523
513.0085521897647
513.420898585934
513.8187779210732
514.2014400953781
514.5681517285461
514.9181976396613
515.2508823270238
515.565531444431
515.8614932703256
516.1381401661348
516.3948700199927
516.6311076719687
516.8463063169306
517.0399488812536
517.2115493696926
517.360654178895
517.4868433742099
517.5897319265268
517.6689709059619
517.7242486293243
517.7552917583829
517.7618663460798
517.7437788279271
517.7008769559698
517.6330506727508
517.5402329227718
517.422400399032
517.2795742223611
517.1118205513302
516.9192511205449
516.7020237051216
516.4603425091005
516.194458475638
515.9046695168427
515.591320661188
515.254804116509
514.8955592466502
514.5140724598745
514.1108770071565
513.6865526885
513.241725465467
512.7770669782
512.293293965286
511.79116758485833
511.2714926353881
510.7351166747279
510.18292903610563
509.61585973989463
509.03487830012574
508.4409924248552
507.83524660968715
507.21872062393516
506.5925278891062
505.95781374961933
505.31575363591566
504.66755112036714
504.0144358666877
503.35766147384084
502.6985032157466
502.0382556784504
501.37823029677605
500.71975279287716
500.0641605195612
499.41279971166625
498.7670226492014
498.12818473644387
497.49764150168335
496.876745522777
496.2668432841428
495.66927197131014
495.0853562096567
494.51640475449466
493.9637071401687
493.42853029632516
492.91211514002845
492.4156731528983
491.94038295291335
491.48738687100666
491.0577875430297
490.6526445280799
490.2729709645717
489.9197302757652
489.59383293679934
489.29613331555726
489.02742659991054
488.78844582401433
488.5798590064357
488.4022664129866
488.2561979571646
488.1421107510481
488.06038681937105
488.0113309892925
487.99516896807893
488.0120456205961
488.0620234581073
488.14508134935494
488.2611134643453
488.4099284606768
488.5912489215604
488.8047110539236
489.0498646541197
489.32617334783134
489.63301510977163
489.96968306779524
490.33538659494343
490.7292526917916
491.1503276602573
491.5975790687912
492.069898007597
492.5661016312267
493.08493598460205
493.6250791071825
494.18514440864817
494.76368430816376
495.35919412795636
495.9701162306109
496.5948443882201
497.2317283703038
497.87907873622595
498.5351718166598
499.19825486751387
499.8665513786337
500.5382665185737
501.21159269584507
501.8847152162299
502.5558180150358
503.22308944250614
503.8847280800884
504.53894856497635
505.18398740015715
505.8181087270384
506.4396100376416
507.0468278033654
507.6381429974543
508.2119864885692
508.7668442832146
509.30126259520296
509.8138527208751
510.30329569947
510.7683467388209
511.2078393874513
511.62068943513844
512.005898525056
512.3625574616776
512.6898491997858
512.9870515012267
513.253539247372
513.4887863965095
513.6923675766551
513.8639593059347
514.0033408345645
514.1103946044549
514.1851063244327
514.2275646610692
514.2379605470113
514.2165861105187
514.1638332316564
514.0801917323639
513.9662472094614
513.8226785214435
513.6502549417395
513.4498329928022
513.222352976861
512.9688352204414
512.6903760508618
512.3881435238492
512.0633729222669
511.71736204675716
511.35146631983383
510.96709372561514
510.56569960792916
510.14878134994905
509.71787295882694
509.27453957900076
508.8203719579551
508.35698088819555
507.8859916490198
507.40903847136184
506.9277590485747
506.44378911555464
505.958757118109
505.47427899384235
504.99195308502806
504.51335520304315
504.04003386293203
503.57350570554394
503.1152511235187
502.666710106176
502.2292783171083
501.8043034169587
501.39308164245347
500.996854651266
500.61680664084014
500.25406174781835
499.9096817332162
499.5846639569765
499.2799396440093
498.99637244230706
498.7347572722475
498.4958194647528
498.2802141845566
498.0885261334673
497.92126952726494
497.7788883386339
497.6617567973325
497.570180137705
497.50439558264867
497.4645735522329
497.45081908432866
497.4631734538458
497.50161597653215
497.56606598274766
497.65638494615416
497.7723787519331
497.91380008887415
498.08035094949537
498.27168522229385
498.4874113602515
498.72709510984095
498.9902622850128
499.2764015709283
499.58496734254123
499.91538248360047
500.2670411922128
500.6393117596809
501.03153930995313
501.4430484877211
501.87314608393234
502.3211235882471
502.78625965877785
503.2678225003313
503.7650721432847
504.27726261611207
504.80364400547427
505.3434643987122
505.89597170450764
506.46041534837286
507.03604784050435
507.6221262143926
508.2179133353997
508.8226790793408
509.43570138195213
510.05626716089955
510.6836731126841
511.31722638746663
511.9562451454999
512.6000589994687
513.2480093475554
513.899449602495
514.5537453223138
515.2102742488403
515.8684262604337
516.5276032456554
517.1872189048153
517.8466984864916
518.5054784662755
519.1630061750363
519.8187393840323
520.4721458541524
521.1227028565205
521.7698966715402
522.4132220733285
523.0521818062792
523.6862860602316
524.3150519504442
524.9380030083412
525.5546686886485
526.1645838981295
526.7672885507301
527.3623271535483
527.9492484276798
528.5276049675742
529.0969529421557
529.6568518405386
530.2068642647536
530.7465557714893
531.2754947644298
531.7932524383115
532.2994027753031
532.79352259387
533.2751916498947
533.7439927894367
534.19951215217
534.6413394242084
535.0690681386963
535.4822960222689
535.8806253852405
536.263663553139
536.6310233369996
536.9823235396608
537.3171894951652
537.6352536382079
537.9361561004984
538.2195453308673
538.485078735932
538.7324233381102
538.961256447839
539.1712663470219
539.3621529808702
539.5336286553305
539.6854187371821
539.8172623538151
539.9289130896728
540.0201396762907
540.0907266728752
540.1404751344129
540.1692032644291
540.1767470495932
540.1629608734023
540.1277181062144
540.0709116689226
539.9924545676091
539.8922803966329
539.7703438077966
539.6266209434765
539.4611098318742
539.2738307427874
539.0648265025661
538.834162767125
538.5819282520839
538.3082349192723
538.0132181190019
537.6970366877003
537.3598730006436
537.0019329796584
536.6234460558067
536.2246650872098
535.8058662323174
535.36734877908
534.9094349305567
534.4324695475119
533.9368198486255
533.4228750690376
532.8910460780071
532.3417649565442
531.7754845359763
531.1926778984858
530.5938378407052
529.9794763015099
529.3501237551999
528.7063285713468
528.0486563426517
527.3776891821778
526.6940249914206
525.9982767007554
525.2910714838391
524.5730499475816
523.844865299376
523.1071824933393
522.360677357356
521.606035702766
520.8439524185986
520.0751305522372
519.3002803784186
518.5201184585442
517.7353666923141
516.9467513637306
516.1550021835037
515.3608513299416
514.5650324904011
513.7682799053736
512.9713274172402
512.1749075256884
511.37975045172055
510.586583212185
509.7961287067102
509.0091048188777
508.22622353343104
507.4481900712744
506.67570204389733
505.9094486288128
505.1501097675543
504.3983553876609
503.6548446499407
502.92022522222203
502.1951325807252
501.4801893400589
500.7760046127457
500.08317339906125
499.4022760078854
498.7338775091392
498.0785272182482
497.43675821294096
496.80908688256824
496.1960125100011
495.5980168860399
495.015563956141
494.4490994991405
493.89905083752325
493.3658265786787
492.84981638648657
492.3513907824145
491.8709009752111
491.40867871819324
490.96503619306617
490.5402659191205
490.1346406865447
489.7484135125195
489.3818176187351
489.0350664289274
488.70835358497555
488.40185298005787
488.11571880731157
487.85008562240466
487.60506841842766
487.3807627115324
487.17724463573904
486.9945710453882
486.83277962372154
486.69188899613357
486.57189884668634
486.4727900365344
486.3945247229981
486.33704647815586
486.300280405914
486.28413325654833
486.28849353783056
486.31323162203176
486.35819984823235
486.42323261948525
486.5081464945083
486.6127402737024
486.7367950794406
486.88007443072917
487.0423243124836
487.22327323978
487.4226323175876
487.6400952966683
487.875338626497
488.12802150617466
488.3977859344251
488.6842567599376
488.9870417334644
489.30573156319525
489.63989997502654
489.98910377941627
490.3528829466262
490.7307606923017
491.1222435754191
491.52682161066497
491.9439683973263
492.37314126680667
492.813781450902
493.2653142729569
493.7271493639925
494.1986809058344
494.67928790319644
495.16833448662743
495.6651702481803
496.1691306115919
496.67953723867004
497.1956984734771
497.71690982574484
498.242454494766
498.77160393480244
499.3036184628201
499.8377479091764
500.37323231172354
500.90930265360345
501.44518164478666
501.9800845472193
502.513220043279
503.04379114708263
503.57099615800513
504.0940296555858
504.61208353481175
505.1243480806153
505.6300130802767
506.1282689722911
506.61830803015374
507.09932557940465
507.57052124615564
508.03110023523067
508.48027463602756
508.91726475419955
509.3413004670576
509.7516226003054
510.14748432347096
510.52815256117196
510.89290941718633
511.2410536082016
511.57190190401064
511.88479057081634
512.1790768142254
512.4541402184292
512.7093841779373
512.9442373181147
513.1581549007016
513.3506202104903
513.5211459193728
513.6692754240606
513.7945841539631
513.8966808458622
513.9752087820984
514.0298469890553
514.0603113927871
514.066355928728
514.0477736024831
514.0043974988064
513.936101735939
513.8428023625208
513.7244581943432
513.5810715882898
513.4126891508894
513.2194023789206
513.00134822949
512.7587096170112
512.491715834526
512.2006428968267
511.88581380286155
511.5475987149627
511.18641505250696
510.8027274976899
510.39704791113473
509.9699351550794
509.52199482190935
509.0538788658547
508.5662851357154
508.0599568065721
507.5356817085767
506.99429155099756
506.4366610397605
505.86370688688453
505.2763867103696
504.6756978232232
504.06267591049306
503.4383935933835
502.80395887978995
502.16051350084666
501.5092311333128
500.8513155078738
500.1879984037215
499.5205375300971
498.85021429583117
498.1783314682892
497.50621072353
496.8351900898998
496.16662128771645
495.50186696819736
494.8422978552799
494.1892897944593
493.5442207132505
492.90846749841137
492.28340279555573
491.67039173729626
491.0707886065963
490.4859334425952
489.91714859672265
489.3657352474651
488.8329698826894
488.3201007589363
487.8283443476054
487.35888177849284
486.91285529165276
486.49136470899134
486.095463937398
485.726157515585
485.384397217161
485.07107872280585
484.7870383746747
484.53305002635005
484.3098220018187
484.11799417704617
483.9581351977045
483.83073984656124
483.73622657396845
483.67493520471317
483.6471248342187
483.65297192677997
483.6925686281303
483.76592130417004
483.87294931717616
484.0134840501855
484.18726818948977
484.39395527439285
484.6331095225536
484.9042059383157
485.2066307104269
485.53968190449723
485.9025704544434
486.29442145596204
486.7142757638307
487.161091893545
487.63374822650667
488.1310455166636
488.6517096951626
489.1943949681694
489.7576872015638
490.3401075847844
490.9401165647015
491.55611803903895
492.18646379754216
492.82945819777046
493.48336306111355
494.1464027734211
494.8167695734795
495.4926290114727
496.1721255584453
496.85338834674457
497.53453702052605
498.2136876745978
498.8889588591403
499.5584776272489
500.2203856018189
500.87284503803335
501.5140448575429
502.14220663031836
502.75559048008563
503.3525008893476
503.9312923802525
504.4903750479039
505.02821992309805
505.5433641419852
506.0344159007563
506.50005917422965
506.9390581780984
507.3502615555848
507.73260627027844
508.0851211880741
508.40693033232105
508.69725579757613
508.95542030874776
509.18084941381926
509.3730732996703
509.53172822196797
509.6565575419344
509.74741236489876
509.8042517776144
509.8271426833702
509.8162592359527
509.77188187546625
509.6943959708834
509.58429007606287
509.44215380783464
509.2686753565879
509.0646386416463
508.8309201255525
508.56848530303495
508.2783848818777
507.96175067419233
507.6197912176832
507.2537871473886
506.8650863392158
506.4550988473708
506.02529165852445
505.57718328620786
505.11233822949424
504.63236132040777
504.1388919847252
503.6335984409835
503.11817186259356
502.5943205278628
502.06376398248335
501.5282272386876
500.98943503485566
500.44910617885233
499.90894799772946
499.37065091565745
498.8358831811087
498.3062857633392
497.78346743710864
497.26900007337275
496.76441415242334
496.2711945146517
495.7907763627595
495.324541527831
494.87381501022077
494.4398618046784
494.02388401756895
493.627018282431
493.25033347854503
492.8948287556388
492.56143186628026
492.2509978059479
491.9643077592712
491.70206834944173
491.4649111863498
491.25339270758496
491.0679943050859
490.90912272899214
490.7771107590761
490.6722181330428
490.59463271998266
490.5444719263376
490.52178432090034
490.52655146461217
490.5586899302884
490.618053496847
490.7044355021558
490.81757133827125
490.95714107263177
491.12277217864875
491.3140423591081
491.53048244586296
491.7715793594557
492.03677911255545
492.32548984139163
492.6370848497772
492.97090565079867
493.32626499178343
493.7024498487715
494.09872437741336
494.5143328079282
494.9485022725322
495.40044555455853
495.8693637493672
496.354448828072
496.8548860960054
497.3698565387118
497.89853904919033
498.4401125310704
498.99375787331337
499.55865979294526
500.13400854327307
500.7190014859414
501.312844526031
501.9147534102574
502.52395488914465
503.1396877447878
503.76120368655097
504.3877681177413
505.0186607768909
505.6531762578541
506.29062441350203
506.9303306483049
507.57163610552794
508.2138977551485
508.8564883889279
509.4987965293335
510.14022625923366
510.78019697948423
511.41814310166603
512.0535136832817
512.685772012718
513.3143951512375
513.9388734391898
514.5587099734977
515.1734200633334
515.7825306707423
516.3855798427456
516.9821161412103
517.5716980763982
518.1538935498204
518.7282793116591
519.2944404376558
519.8519698299808
520.4004677461598
520.9395413597616
521.4688043561711
521.987876566354
522.4963836410986
522.9939567678184
523.4802324315855
523.9548522216339
524.4174626841719
524.8677152218999
525.3052660402217
525.7297761398033
526.140911354809
526.538342435806
526.9217451760275
527.290800579386
527.6451950684392
527.9846207303342
528.3087755985844
528.6173639683665
528.9100967428918
529.1866918082952
529.4468744344111
529.6903776987881
529.9169429313024
530.1263201767628
530.3182686729455
530.4925573416393
530.6489652904062
530.7872823227577
530.9073094543033
531.008859432305
531.0917572560525
531.1558406954283
531.2009608050438
531.2269824313837
531.2337847104939
531.2212615537912
531.1893221196182
531.1378912681705
531.0669099974326
530.9763358578417
530.8661433435187
530.7363242580915
530.5868880533459
530.4178621391942
530.2292921636658
530.0212422618572
529.7937952729069
529.5470529241961
529.2811359821044
528.9961843687778
528.6923572445388
528.3698330556929
528.028809547593
527.6695037429097
527.292151885189
526.8970093478506
526.4843505088426
526.054468591218
525.6076754699793
525.1443014456029
524.6646949846865
524.1692224281845
523.6582676677425
523.1322317907192
522.5915326945503
522.0366046710982
521.4678979616543
520.885878283283
520.2910263272275
519.6838372301503
519.0648200190374
518.4344970306885
517.7934033067935
517.1420859656532
516.4811035516491
515.8110253636193
515.1324307633572
514.4459084655255
513.7520558103215
513.051478020253
512.3447874424173
511.6326027777403
510.91554829865555
510.19425305680426
509.4693500823562
508.7414755765621
508.0112680991722
507.2793677523886
506.5464153630514
505.8130516647902
505.0799164819
504.347647916687
503.6168815420037
502.8882496006837
502.1623802135608
501.4398965977207
500.7214162966141
500.0075504236264
499.2989029206745
498.59606983335004
497.8996386040537
497.2101873845338
496.52828436921743
495.8544871506602
495.18934209832776
494.53338376181335
493.88713429954487
493.25110293396114
492.62578543400247
492.0116636256736
491.4092049313782
490.81886193861766
490.24107199850334
489.6762568544394
489.12482230121435
488.58715787463
488.06363657171744
487.55461460148416
487.06043116595555
486.5814082711526
486.11785056753695
485.6700452193281
485.23826180197483
484.82275222701196
484.4237506934562
484.0414736648208
483.67611987073735
483.32787033207177
482.9968884083521
482.6833198662559
482.3872929678304
482.1089185770544
481.8482902833142
481.60548454030265
481.3805608188416
481.1735617721233
480.98451341185165
480.8134252937677
480.66029071106107
480.5250868941741
480.4077752155055
480.3083013975365
480.22659572295277
480.16257324540584
480.11613399963255
480.0871632097196
480.0755314943735
480.081095068151
480.1036959377227
480.1431620923504
480.1993076878745
480.2719332236295
480.36082571182226
480.46575883904
480.58649311969896
480.7227760413479
480.8743422018314
481.0409134384262
481.22219894922574
481.41789540720794
481.62768706752126
481.85124586864924
482.0882315282586
482.33829163470836
482.6010617353241
482.876165422624
483.16321441977874
483.46180866669187
483.7715364081824
484.09197428586464
484.4226874353987
484.7632295908295
485.113143197744
485.47195953699566
485.8391988607618
486.21437054273036
486.59697324418727
486.98649509774344
487.3824139104472
487.78419738801887
488.1913033818811
488.60318016057425
489.0192667071002
489.4389930436335
489.86178058492203
490.28704252156615
490.71418423422784
491.1426037396515
491.5716921691623
492.000834280129
492.429409000741
492.8567900083039
493.28234634109884
493.705443043727
494.1254418457294
494.5417018731435
494.95358039256064
495.3604335871569
495.7616173640237
496.1564881920065
496.5444039691503
496.9247249187357
497.29681451280703
497.66004042202604
498.0137754906241
498.35739873523113
498.6902963664169
499.01186283169466
499.32150187852085
499.6186276355344
499.90266571008397
500.1730542999654
500.42924531718006
500.6707055214021
500.8969176607284
501.10738161721986
501.301615554699
501.4791570661845
501.6395643182558
501.7824171895384
501.907318400487
502.0138946316455
502.1017976275607
502.17070528358124
502.220322712914
502.2503832914382
502.2606496778167
502.2509148064424
502.221002850795
502.17077015483244
502.1001061300718
502.0089341160025
501.8972122014484
501.7649340044712
501.61212940840016
501.43886525158996
501.24524596849864
501.0314141796618
500.7975512280868
500.5438776595353
500.2706536441011
499.97817933642597
499.66679517186884
499.33688209589036
498.9888617238845
498.6231964286947
498.2403893530394
497.8409843440424
497.42556580702404
496.9947584757055
496.5492270959921
496.0896760205167
495.61684871113783
495.13152714662516
494.63453113287653
494.12671751312524
493.60897927568186
493.08224455685144
492.54747553685536
492.00566722678604
491.45784614482113
490.9050688801646
490.3484205434812
489.7890131028875
489.22798360486587
488.66649227977103
488.10572053193795
487.5468688148192
486.99115439207935
486.4398089860601
485.8940763155305
485.35520952519164
484.8244685099506
484.3031171375078
483.7924203733543
483.2936413128271
482.80803812542996
482.33686091726724
481.8813485180719
481.44272519993393
481.02219733548355
480.620950003928
480.24014355393547
479.8809101329911
479.5443501934695
479.23152898622055
478.9434730530114
478.6811667296897
478.44554867245114
478.23750842007854
478.0578830054118
477.90745362967886
477.78694241360324
477.6970092394445
477.6382486982824
477.6111871569768
477.616279959295
477.65390877568694
477.72437911607403
477.82791801984274
477.9646719370046
478.13470481416493
478.3379963985144
478.5744407725355
478.84384513152105
479.14592881534656
479.480322605207
479.84656829526756
480.2441185482453
480.6723370429015
481.1304989203823
481.6177915352173
482.133315515557
482.67608613596866
483.24503500479983
483.8390120667795
484.4567879201523
485.09705644620317
485.7584377475395
486.43948138999247
487.1386699415033
487.8544227998764
488.5851002998171
489.3290080882313
490.0844017553295
490.8494917076886
491.6224482680843
492.40140698558315
493.1844741381067
493.96973240846626
494.75524671377127
495.53907016708763
496.3192501492849
497.09383446817554
497.86087758131663
498.61844685826696
499.3646288576618
500.09753559417516
500.8153107702735
501.5161359475525
502.19823663242477
502.85988825105596
503.4994219886964
504.1152304688711
504.7057732483237
505.269582104183
505.8052660905113
506.3115163422063
506.7871106051785
507.230917472777
507.6419003095607
508.0191208447392
508.36174241890603
508.66903286908274
508.94036703856324
509.17522889949925
509.37321327757974
509.5340271698608
509.65749064888155
509.74353734843044
509.7922145284667
509.80368271879854
509.778214943181
509.7161955274996
509.61811849771647
509.48458557525714
509.31630377946993
509.11408264869965
508.87883109342647
508.6115538967414
508.3133478790342
507.98539774520145
507.62897163400754
507.24541639038245
506.8361525823836
506.4026692853816
505.9465186568655
505.46931032606244
504.9727056232602
504.45841167423987
503.92817538564003
503.38377734737304
502.8270256783737
502.25974984192544
501.68379445666386
501.10101312910734
500.51326233316826
499.9223953615742
499.3302563735054
498.7386745620255
498.14945846406295
497.5643904347619
496.98522130695846
496.413665255384
495.8513948839728
495.3000365533068
494.76116596380075
494.2363040087443
493.72691290979327
493.23439264595766
492.76007768551057
492.305234028607
491.87105656677005
491.45866676376176
491.06911066070586
490.7033572066887
490.3622969144501
490.0467408392048
489.75741987706243
489.49498437797604
489.260004066692
489.0529682638029
488.874286397684
488.7242887968527
488.6032277512068
488.51127882956894
488.4485424400149
488.41504561862814
488.410744031551
488.4355241745416
488.48920575368726
488.571544230469
488.68223351401275
488.8209087831452
488.98714942075503
489.18048204297486
489.4003836057978
489.64628457191645
489.9175721208431
490.21359338572194
490.53365870070166
490.87704484325513
491.24299825643516
491.63073823669106
492.0394600735742
492.4683381284531
492.9165288401913
493.383173646603
493.8674018113675
494.36833314699544
494.8850806254341
495.41675286887056
495.9624565142857
496.521298446319
497.0923878940034
497.6748383878966
498.267769575068
498.87030889032127
499.4815930829723
500.1007695993872
500.7269978222752
501.35945016850707
501.9973130480039
502.6397876870011
503.2860908196687
503.93545525267933
504.58713030784224
505.24038214837174
505.89449399482754
506.548766237182
507.20251644980823
507.85507931648266
508.5058064727575
509.1540662732035
509.7992434911203
510.4407389583657
511.07796915293636
511.71036574191476
512.3373750873396
512.9584577224351
513.5730878054649
514.1807525582897
514.7809516964732
515.3731968574853
515.9570110332345
516.5319280127808
517.0974918407148
517.6532562963303
518.1987843983114
518.7336479392513
519.2574270538653
519.7697098243298
520.2700919257128
520.7581763140424
521.233572959111
521.6958986236544
522.1447766900724
522.5798370353957
523.0007159547737
523.4070561333775
523.7985066662178
524.1747231249848
524.5353676706716
524.8801092104887
525.2086235973362
525.5205938698476
525.8157105307965
526.09367186146
526.3541842693734
526.5969626667863
526.8217308770188
527.0282220658122
527.2161791947455
527.3853554937763
527.5355149499767
527.6664328096288
527.7778960910134
527.8697041053051
527.9416689828826
527.9936162022266
528.0253851185032
528.0368294889083
528.0278179918522
527.998234737145
527.9479797644005
527.8769695269206
527.7851373583667
527.67243391959
527.5388276230457
527.3843050323007
527.2088712342862
527.0125501821365
526.7953850066586
526.5574382947218
526.2987923331165
526.0195493167031
525.7198315199017
525.3997814307161
525.0595618466496
524.699355932054
524.3193672366187
523.9198196748208
523.5009574663229
523.063045037471
522.6063668842132
522.1312273968356
521.6379506470199
521.1268801378341
520.5983785173752
520.0528272568637
519.4906262940535
518.9121936428883
518.3179649704178
517.7083931420221
517.0839477360024
516.4451145286214
515.7923949507118
515.1263055170637
514.4473772298776
513.7561549575927
513.0531967904559
512.3390733742564
511.6143672236438
510.87967201648524
510.13559187074503
509.38274060538816
508.62174098682704
507.85322396245016
507.0778278827988
506.29619771403196
505.50898424235487
504.71684327207544
503.92043481897235
503.12042230067743
502.31747172574984
501.51225088312714
500.7054285336242
499.89767360508415
499.08965439274516
498.28203776638003
497.47548838573164
496.6706679257112
495.86823431278435
495.06884097391924
494.27313609940956
493.4817619208226
492.6953540053162
491.9145405675018
491.1399417999602
490.3721692234457
489.61182505773377
488.8595016139865
488.11578070944256
487.38123310514584
486.65641796734275
485.94188235307746
485.2381607204497
484.5457744639364
483.8652314750954
483.19702572887144
482.54163689561454
481.89952997882466
481.27115497858273
480.6569465805097
480.0573238699672
479.472690071112
478.9034323103558
478.34992140368695
477.81251166721944
477.29154075025684
476.78732949012726
476.3001817879929
475.83038450479063
475.37820737636133
474.94390294675384
474.52770651866564
474.1298361199753
473.75049248529234
473.3898590514385
473.0481019657476
472.72537010607084
472.421795111359
472.1374914216907
471.8725563266337
471.6270700208417
471.40109566580924
471.1946794567723
471.00785069374416
470.84062185569496
470.6929886769402
470.56493022485813
470.4564089781062
470.36737090459275
470.2977455385231
470.24744605590615
470.2163693479962
470.20439609222944
470.21139082030084
470.23720198314453
470.28166201269664
470.3445873804327
470.4257786527792
470.52502054361406
470.6420819641786
470.77671607083937
470.9286603112461
471.09763646952234
471.283350711216
471.48549362882994
471.70374028886135
471.9377502813712
472.1871677732317
472.4516215663014
472.7307251618114
473.0240768323131
473.3312597026396
473.6518418413946
473.98537636454256
474.33140155268705
474.6894409836353
475.0590036818946
475.4395842867802
475.8306632407985
476.2317069999168
476.6421682672999
477.0614862520389
477.4890869543109
477.924383478356
478.36677637461355
478.81565401230347
479.2703929836853
479.73035854113004
480.1949050680117
480.66337658427324
481.1351072873513
481.6094221289345
482.0856374278683
482.56306151939066
483.0409954407115
483.5187336527552
483.99556479775316
484.47077249225106
484.94363615495405
485.4134318686973
485.87943327571156
486.3409125052418
486.79714113245393
487.24739116745695
487.69093607319553
488.127051810828
488.55501791111317
488.97411857026526
489.38364376868907
489.78289041096383
490.17116348542936
490.54777724168684
490.91205638418836
491.26333727989703
491.60096917778
491.9243154377242
492.23275476637104
492.5256824572812
492.8025116327686
493.06267448467406
493.3056235112753
493.5308327474512
493.7377989851352
493.9260429809859
494.09511064819566
494.24457422942754
494.37403344791744
494.4831166338731
494.57148182343803
494.63881782760274
494.68484526852495
494.7093175808215
494.71202197549474
494.6927803642163
494.6514502417176
494.58792552396125
494.5021373397054
494.3940547730721
494.26368555470805
494.111076699121
493.9363150857992
493.73952798176026
493.5208835032199
493.2805910141275
493.01890145933226
492.736107630137
492.43254436000797
492.10858864824513
491.7646597094103
491.40121894629976
491.01876984424416
490.617857784536
490.19906977478576
489.76303409401027
489.31041985027116
488.84193644872823
488.3583329680262
487.8603974430053
487.34895605179554
486.82487220545715
486.2890455384593
485.7424107984336
485.1859366337593
484.62062427768876
484.0475061279283
483.4676442208058
482.8821285994148
482.2920755753721
481.6986258840833
481.102942733729
480.50620974859334
479.90962880775635
479.31441778055404
478.7218081606412
478.133042600909
477.5493723519465
476.97205460721113
476.40234975856663
475.84151856633844
475.2908192485603
474.7515044946289
474.2248184091098
473.7119933919877
473.2142469622172
472.7327785319858
472.2687661396487
471.8233631498398
471.3976949298047
470.9928555115164
470.60990424963495
470.2498624858885
469.9137102309065
469.60238287495486
469.31676793943814
469.0577018814111
468.82596696366625
468.6222882032378
468.4473304113454
468.30169533792724
468.1859189340182
468.100468745283
468.0457414500158
468.0220605548268
468.02967426105283
468.0687535146721
468.139390252177
468.24159585448257
468.3752998204791
468.54034867130724
468.7365050958197
468.96344734698647
469.2207688982101
469.50797836770715
469.82449971822376
470.1696727383634
470.5427538107298
470.94291697097646
471.3692552606957
471.82078237585597
472.296434611257
472.7950731001608
473.3154863469096
473.85639304896307
474.4164452033994
474.99423149155575
475.58828093409096
476.19706680736346
476.81901081065496
477.45248747246916
478.095828782864
478.74732903749185
479.40524987779594
480.0678255106556
480.733268089634
481.3997732389045
482.06552569992334
482.72870508000125
483.3874916811234
484.04007238669806
484.68464658336427
485.3194320945979
485.9426711026174
486.552636034894
487.14763539143945
487.72601948904884
488.28618609880624
488.8265859533383
489.345728100593
489.84218508132074
490.3145979079686
490.76168082335573
491.18222581828275
491.57510688814165
491.93928400955707
492.273806819121
492.57781797743905
492.8505562029632
493.091358961401
493.2996647978608
493.4750153003008
493.61705668427567
493.725540990608
493.800326889502
493.84138008665684
493.84877332901453
493.82268600981064
493.7634033745135
493.67131533110097
493.54691486999695
493.3907961009088
493.2036519157591
492.98627128880435
492.7395362268887
492.4644183845516
492.16197536019814
491.83334669087304
491.47974956442795
491.10247426894557
490.7028794002332
490.28238684903454
489.84247659039664
489.38468129830255
488.9105808092524
488.42179645895845
487.9199853168035
487.4068343431251
486.8840544946821
486.35337480376944
485.8165364564105
485.2752868948146
484.731373968893
484.18654016107894
483.6425169080177
483.101019041939
482.56373937365873
482.0323434382069
481.5084644230081
480.99369829741835
480.48959916123727
479.9976748285847
479.5193826622046
479.05612567179134
478.6092488884118
478.1800360255624
477.7697064358655
477.3794123708302
477.010236549486
476.6631900400829
476.3392104574588
476.03916047710015
475.7638266653316
475.51391862352403
475.2900684427058
475.0928304634935
474.92268133482713
474.78002036363773
474.6651701463343
474.5783774718075
474.51981448452835
474.4895800952925
474.4877016261986
474.5141366755848
474.56877518791345
474.6514417129561
474.76189783809207
474.89984477713205
475.06492609871407
475.25673057707684
475.4747951478927
475.71860795183886
475.9876114486631
476.2812055846856
476.5987509969701
476.9395722377554
477.3029610031729
477.68817935077374
478.09446289098327
478.521023938261
478.9670546084499
479.4317298495911
479.9142103943087
480.41364562272287
480.92917632575364
481.4599373596105
482.0050601832199
482.5636752713179
483.13491439692905
483.71791277795774
484.31181108359107
484.91575729717687
485.5289084331852
486.15043210678647
486.7795079554952
487.4153289132223
488.05710233794144
488.7040509949994
489.35541389886447
490.0104470168518
490.6684238390221
491.32863581904223
491.9903926913714
492.6530226706514
493.3158725396246
493.97830763228416
494.63971171930626
495.2994868031384
495.9570528303516
496.61184732899284
497.263324978778
497.91095712205475
498.55423122348213
499.192650286324
499.82573223316393
500.45300925873056
501.0740271623404
501.6883446672519
502.29553273396436
502.8951738741937
503.48686147188914
504.0701991172831
504.644799959605
505.2102860837019
505.7662879153886
506.31244365993024
506.8483987776201
507.3738054999859
507.8883223897149
508.39161394693406
508.88335026403666
509.36320673078035
509.8308637908792
510.2860067508128
510.7283256411203
511.15751513004454
511.57327448898855
511.97530760886536
512.3633230661025
512.7370342367436
513.0961594568299
513.4404222270209
513.7695514591841
514.0832817624586
514.3813537660923
514.6635144762134
514.9295176636014
515.179124279466
515.4121028962218
515.6282301702145
515.8272913233754
516.0090806408342
516.1734019816363
516.3200692997635
516.4489071725762
516.5597513337078
516.6524492073934
516.7268604412006
516.7828574341505
516.8203258573232
516.8391651641712
516.8392890877893
516.8206261224179
516.7831199865066
516.7267300647246
516.6514318263529
516.5572172176946
516.4440950263756
516.3120912156287
516.1612492269157
515.9916302494961
515.8033134558193
515.5963962018711
515.3709941917645
515.1272416060964
514.8652911937569
514.5853143270045
514.2875010196739
513.9720599084625
513.6392181973048
513.2892215649654
512.9223340361594
512.5388378166264
512.1390330927059
511.7232377961023
511.29178733459344
510.84503428953803
510.38334808112467
509.9071146023794
509.4167358229889
508.9126293640172
508.3952280445632
507.8649794014324
507.32234518299214
506.7678008184678
506.20183486397815
505.6249484266505
505.03765456818076
504.44047768924
503.83395289613185
503.21862535110336
502.5950496077257
501.9637889327747
501.3254146160739
500.68050526976333
500.0296461184876
499.37342828205357
498.7124480521243
498.04730616446545
497.37860706824335
496.7069581939206
496.03296922127066
495.35725134901884
494.6804165675797
494.0030769363272
493.32584386682726
492.64932741342733
491.9741355725304
491.3008735918293
490.63014329075963
489.9625423934001
489.2986638750174
488.6390953233915
487.98441831600735
487.33520781410766
486.6920315744913
486.0554495798834
485.4260134886681
484.8042661046973
484.1907408677907
483.5859613655145
482.990440866727
482.40468187727157
481.8291757181226
481.2644021262096
480.7108288780373
480.16891143611684
479.63909261811915
479.12180228856374
478.61745707276964
478.1264600927208
477.6492007244145
477.18605437620204
476.73738228751864
476.30353134729387
475.88483393126603
475.4816077573745
475.094155758329
474.7227659703648
474.36771143710547
474.0292501274225
473.7076248661852
473.40306327677916
473.1157777342505
472.8459653279084
472.5938078322089
472.3594716847169
472.1431079699124
471.94485240762504
471.76482534495403
471.6031317505536
471.4598612101399
471.33508792210966
471.2288706922426
471.1412529265487
471.0722626213673
471.0219123499012
470.990199244462
470.9771049737882
470.98259571490286
471.0066221190992
471.049119271739
471.11000664563716
471.1891880479091
471.2865515602727
471.4019694729207
471.53529821223555
471.68637826274636
471.85503408387467
472.04107402214277
472.24429021962885
472.4644585195585
472.70133837007205
472.9546727273773
473.22418795961255
473.50959375283
473.81058302061814
474.12683181900167
474.4579992683526
474.80372748414857
475.1636415184882
475.5373493143479
475.924441674609
476.3244922479363
476.73705753366204
477.16167690786955
477.5978726728652
478.04515013220106
478.5029976933586
478.97088700015354
479.4482730968787
479.93459462613504
480.4292740622247
480.9317179819002
481.4413173741776
481.95744799080126
482.4794707388152
483.0067321165738
483.53856469440666
484.07428764096267
484.6132072959929
485.15461779012185
485.69780171194503
486.24203082255315
486.7865668173725
487.3306621350487
487.87356081286754
488.41449938796717
488.9527078434265
489.4874105981467
490.0178275392959
490.54317509590396
491.06266735201876
491.5755171977219
492.0809375161815
492.5781424047937
493.06634842833466
493.54477590193835
494.01265020165505
494.46920310034494
494.91367412662635
495.3453119444785
495.7633757509016
496.16713668884813
496.55587927245585
496.9289028214735
497.2855229016713
497.6250727679573
497.94690480685705
498.25039197495676
498.5349292298667
498.7999349502224
499.0448523411445
499.26915082145314
499.4723273888935
499.65390795970296
499.8134486789709
499.9505371983897
500.06479391818334
500.15587319019477
500.2234644792542
500.2672934800509
500.2871231868267
500.2827549132941
500.2540292602826
500.20082702869826
500.1230700754089
500.020722109746
499.8937894284318
499.74232158681366
499.5664120043315
499.36619850218926
499.14186377123696
498.89363576811377
498.6217880377457
498.3266399602661
498.00855692045667
497.6679503978814
497.30527797593214
496.92104326800126
496.51579575897705
496.09013056025333
495.6446880764458
495.18015358199955
494.69725670590316
494.19677082280845
493.67951234889887
493.1463399408712
492.59815359644927
492.0358936549382
491.4605396963822
490.87310933801604
490.2746569268322
489.66627212724916
489.04907840303173
488.4242313928128
487.7929171787863
487.1563504483581
486.5157725487609
485.8724494349033
485.22766951104694
484.58274136724424
483.93899141185614
483.2977614018684
482.6604058731551
482.02828947323576
481.40278419947606
480.7852665461393
480.17711456419624
479.5797048383174
478.9944093859603
478.4225924839531
477.8656074284995
477.32479323509716
476.80147128541125
476.29694192869266
475.8124810459303
475.3493365855084
474.90872507966833
474.49182815157275
474.0997890232881
473.73370903554803
473.394644190649
473.08360173023345
472.8015367600779
472.54934893435865
472.32787921217067
472.1379066993392
471.980145588785
471.8552422128712
471.76377222124063
471.70623789769866
471.6830656296822
471.6946035437758
471.74111932056223
471.8227982018336
471.9397412028427
472.091963541867
472.27939329886567
472.50187031443824
472.7591453396562
473.0508794466408
473.376643708956
473.7359191599657
474.1280970363663
474.5524793131186
475.0082795349411
475.49462394835774
476.01055293709663
476.55502276238656
477.126907608419
477.72500193188563
478.34802311312717
478.9946144050539
479.66334817455345
480.35272942966463
481.06119962440465
481.78714073174353
482.52887957383905
483.284692397327
484.0528096801398
484.8314211550393
485.6186810337947
486.41271341471463
487.21161785513266
488.0134750893981
488.8163528719386
489.61831192402235
490.41741196204777
491.2117177845815
491.9993053949046
492.7782681354341
493.5467228100891
494.30281577049357
495.04472894175814
495.77068576354856
496.4789570222903
497.1678665506205
497.83579677051887
498.48119405695843
499.10257389946315
499.6985258396578
500.26771816370535
500.8089023294092
501.32091710873704
501.80269242759067
502.2532528858489
502.67172094201106
503.05731974810016
503.40937562177896
503.7273201439851
504.01069187200693
504.25913765980977
504.4724135794115
504.6503854391304
504.7930288965604
504.900429166097
504.9727803227363
505.01038420579243
505.0136489281128
504.98308699829226
504.919313065319
504.82304129704437
504.69508240576005
504.5363403358496
504.34780862993176
504.13056649118886
503.8857745606889
503.6146704294799
503.3185639061799
502.9988320617022
502.6569140735997
502.29430589323744
501.91255475963413
501.5132535843136
501.09803523189447
500.6685667213991
500.2265433733694
499.77368292786156
499.3117196582236
498.8423985052564
498.36746925598874
497.888680790831
497.4077754222725
496.9264833475397
496.4465172368376
495.96956697786436
495.49729459622273
495.0313293702399
494.5732631575193
494.12464594926007
493.6869816670298
493.26172421530083
492.8502738016017
492.45397353462795
492.0741063090912
491.7118919845041
491.36848486351306
491.0449714738321
490.7423686562431
490.46162195956373
490.2036043419114
489.9691151760887
489.75887955541907
489.5735478949253
489.41369582139674
489.2798243445735
489.17236030047843
489.0916570568035
489.03799546921033
489.011585076439
489.01256552121646
489.04100818311133
489.09691800877283
489.1802355244366
489.29083901512286
489.4285468545656
489.5931199696192
489.7842644227095
490.0016340958453
490.2448334597398
490.5134204117161
490.8069091662633
491.12477318241235
491.4664481124848
491.83133475721235
492.2188020127091
492.62818979533546
493.05881193117233
493.5099589975695
493.9809011050113
494.4708906083209
494.9791647370285
495.5049481356072
496.0474553052162
496.60589293953535
497.17946214821586
497.7673605624137
498.3687843177915
498.9829299112733
499.60899592874523
500.24618464182
500.8937034726506
501.5507663266085
502.21659479345266
502.8904192184138
503.57147964538103
504.2590266350846
504.95232196181183
505.65063919278236
506.35326415488146
507.05949529394127
507.7686439321968
508.48003442995076
509.1930042578285
509.9069039862629
510.6210971990736
511.3349603381743
512.0478824865713
512.7592650968705
513.4685216725295
514.1750774090627
514.8783688023723
515.5778432312502
516.2729585209538
516.9631824945557
517.6479925185137
518.3268750486419
518.9993251823446
519.6648462226207
520.3229492589617
520.9731527698935
521.6149822515325
522.2479698761371
522.8716541842192
523.4855798133603
524.0892972664608
524.6823627217601
525.2643378865525
525.8347898960405
526.3932912582557
526.9394198455657
527.4727589328575
527.9928972820686
528.4994292723954
528.9919550752004
529.470080872282
529.9334191158531
530.3815888283282
530.8142159398122
531.2309336609811
531.6313828888632
532.0152126428985
532.38208052854
532.7316532255646
533.0636069982054
533.377628224176
533.6734139396409
533.9506723971891
534.2091236339545
534.448500047155
534.6685469743705
534.8690232758897
535.0497019164375
535.2103705435286
535.3508320596414
535.4709051854519
535.5704250114396
535.6492435352455
535.7072301822326
535.7442723067827
535.7602756719092
535.7551649047746
535.7288839257478
535.6813963487383
535.6126858507221
535.5227565086119
535.4116331018928
535.2793613797497
535.1260082916433
534.9516621804535
534.7564329374994
534.5404521189511
534.3038730232812
534.0468707295087
533.7696420960984
533.4724057205486
533.1554018598282
532.8188923119277
532.4631602589238
532.0885100721019
531.6952670797813
531.2837772985262
530.8544071284902
530.4075430137309
529.9435910683724
529.4629766695203
528.9661440178683
528.4535556669406
527.9256920219542
527.3830508093292
526.8261465179244
526.2555098130432
525.6716869243024
525.0752390084955
524.4667414886252
523.8467833703231
523.215966536903
522.5749050243261
521.9242242773929
521.2645603885276
520.5965593205552
519.9208761149181
519.2381740867986
518.5491240086413
517.8544032835886
517.1546951103676
516.4506876411829
515.7430731342043
515.0325471022387
514.3198074591674
513.6055536657174
512.890485876174
512.175304087669
511.4607072936286
510.7473926429463
510.0360546064566
509.3273841522903
508.6220679316509
507.9207874764854
507.2242184104762
506.53302967474826
505.8478827696418
505.16943101382805
504.4983188220019
503.8351810023325
503.1806420748293
502.5353156117341
501.8998036009871
501.27469583369316
500.6605693164147
500.05798770903687
499.4675007888845
498.889643941697
498.3249376799502
497.7738871888902
497.2369819005566
496.71469509596017
496.20748353551005
495.7157871177296
495.24002856621735
494.78061314468175
494.33792839976184
493.91234393121886
493.50421118896617
493.1138632962851
492.74161489845557
492.387762035938
492.0525820412177
491.7363334583673
491.4392559843011
491.1615704306371
490.9034787050459
490.6651638109099
490.44678986403767
490.24850212513957
490.0704270467205
489.91267233303086
489.7753270117166
489.6584615158262
489.56212777484143
489.48635931339476
489.43117135630223
489.3965609385574
489.38250701896334
489.38897059615175
489.41589482580275
489.4632051379388
489.5308093532532
489.61859779752353
489.72644341327344
489.8542018679182
490.00171165773475
490.1687942071244
490.35525396274136
490.5608784821514
490.78543851682053
491.02868808937666
491.2903645652119
491.5701887186388
491.8678647939851
492.18308056212584
492.5155073730728
492.86480020539483
493.23059771339047
493.6125222730579
494.01018002804824
494.4231609369115
494.85103882305907
495.293371428971
495.7497004762632
496.21955173332873
496.70243509234353
497.1978446575053
497.705258846449
498.2241405068198
498.7539370500192
499.294080604148
499.8439881881867
500.403061909451
500.9706891863711
501.5462429986079
502.12908216640386
502.718551660955
503.3139829475721
503.9146943633397
504.51999153088735
505.12916780977713
505.7415047868922
506.3562728070208
506.9727315446082
507.59013061743445
508.2077102427544
508.8247019362513
509.4403292539784
510.05380857727386
510.6643499404321
511.2711579007184
511.87343245014443
512.4703699682559
513.0611642150441
513.6450073629271
514.2210910665111
514.7886075686876
515.3467508415591
515.8947177605978
516.4317093102858
516.9569318193594
517.4695982237183
517.9689293550485
518.4541552531847
518.9245165001066
519.379265573269
519.8176682157302
520.2390048203164
520.6425718248782
521.0276831156059
521.3936714353175
521.7398897935842
522.0657128754611
522.3705384455036
522.6537887436435
522.9149118693824
523.1533831506491
523.3687064936095
523.5604157097561
523.728075816716
523.8712843093955
523.9896723981989
524.0829062111825
524.1506879570996
524.1927570463787
524.2088911671926
524.1989073138609
524.1626627649359
524.1000560083771
524.0110276112937
523.8955610317961
523.7536833705461
523.58546605966
523.3910254866596
523.1705235512084
522.9241681523757
522.6522136041798
522.3549609771593
522.0327583637364
521.6860010651238
521.315131697545
520.9206402155679
520.5030638503755
520.0629869608434
519.6010407953139
519.1179031619932
518.6142980059209
518.0909948904787
517.5488083814594
516.9885973317644
516.4112640648465
515.8177534550648
515.2090519032705
514.5861862060722
513.9502223173777
513.3022640009691
512.6434513730267
511.9749593337141
511.2979958871676
510.61380034946893
509.9236414444247
509.2288152872279
508.5306432563303
507.83046975415664
507.1296598576761
506.429596860244
505.73167970661046
505.0373203234543
504.34794084828854
503.6649707600693
502.9898439152883
502.323995493768
501.668858858881
501.0258623374717
500.39642592530197
499.7819579243565
499.18385151889566
498.6034812977284
498.0421997307873
497.5013336086957
496.98218045460095
496.48600491806206
496.01403516129244
495.5674592485536
495.1474215500129
494.75501917187984
494.3912984250882
494.0572513451811
493.75381227638474
493.4818545331295
493.24218715252374
493.03555175149563
492.8626195024296
492.72398824117573
492.62017972134043
492.551637028734
492.51872216968417
492.5217138467231
492.56080543492743
492.63610317181644
492.7476245732262
492.8952970870475
493.078956996112
493.29834858082955
493.55312355143207
493.84284075886984
494.1669661924861
494.52487327160117
494.91584343705546
495.33906704765434
495.7936445852921
496.2785881712927
496.7928233952388
497.33519145625957
497.9044516153563
498.49928395592514
499.11829244819813
499.760008311901
500.4228936699936
501.1053454849327
501.8056997674656
502.52223604657365
503.2531820878087
503.9967188459254
504.7509856364154
505.5140855093196
506.2840908075086
507.0590488904753
507.83698800359747
508.6159232718392
509.393862795951
510.1688138284591
510.93878900613134
511.70181261513255
512.4559268647471
513.1991981452811
513.9297232455342
514.64563550513
515.3451108770324
516.0263738757885
516.6877033872648
517.3274383160068
517.9439830467927
518.5358126975319
519.1014781413671
519.639610776736
520.1489270251014
520.6282325370141
521.0764260882515
521.4925031490027
521.8755591104086
522.2247921540928
522.5395057515698
522.8191107818059
523.0631272568623
523.2711856475203
523.4430278028466
523.5785074597535
523.6775903406777
523.7403538394412
523.7669862972381
523.7577858725814
523.7131590110257
523.6336185224282
523.5197812754648
523.3723655211243
523.1921878588281
522.9801598605313
522.7372843696273
522.4646514927479
522.1634343036568
521.8348842794586
521.4803264902932
521.1011545646155
520.6988254529338
520.274854013587
519.8308074447151
519.3682995870557
518.8889851225563
518.3945536940299
517.886723971176
517.3672376882544
516.8378536785191
516.3003419302488
515.7564776888521
515.2080356290388
514.6567841204445
514.1044796093948
513.5528611386446
513.0036450259739
512.4585197214873
511.91914086232913
511.3871265423274
510.8640528127686
510.35144942912615
509.8507958571302
509.3635175500996
508.89098250795337
508.43449812676795
507.9953083461262
507.57459109992766
507.17345607471447
506.7929427779408
506.43401891702126
506.09757908841493
505.7844437744406
505.49535864404857
505.23099415236504
504.9919454324486
504.77873247139723
504.59180056172863
504.43152101780896
504.2981921460779
504.19204045686814
504.1132221046948
504.0618245430504
504.03786837900964
504.0413094123193
504.07204084316896
504.12989563245003
504.21464899806176
504.3260210306665
504.4636794122214
504.62724222062025
504.8162808039003
505.03032270770393
505.26885463999344
505.53132545737566
505.81714915782555
506.125707865088
506.45635479061013
506.80841715949026
507.18119908765567
507.57398439824345
507.98603936596976
508.4166153791268
508.86495150972
509.3302769831288
509.81181353961307
510.30877768096565
510.8203827965732
511.34584116406575
511.8843658206805
512.4351723024444
512.9974802491778
513.5705148741606
514.1535082981691
514.7457007484326
515.3463416238225
515.9546904283492
516.5700175757703
517.1916050687693
517.8187470568137
518.4507502773589
519.0869343855721
519.7266321782179
520.369189717748
521.013966362983
521.6603347130946
522.3076804718559
522.9554022393178
523.6029112382336
524.2496309826181
524.8949968958516
525.5384558857587
526.1794658840489
526.8174953573964
527.4520227972843
528.0825361955771
528.7085325125485
529.3295171438359
529.9450033925243
530.5545119522282
531.15757040668
531.7537127509684
532.342478939204
532.9234144629739
533.4960699645
534.0600008880186
534.614767172494
535.1599329883793
535.6950665207427
536.219739800627
536.7335285860429
537.2360122935053
537.7267739806017
538.2054003796969
538.6714819825322
539.1246131750662
539.564392421535
539.9904224963999
540.4023107625767
540.7996694940804
541.1821162409856
541.549274234392
541.9007728289002
542.2362479799438
542.555342753236
542.8577078635467
543.1430022399228
543.4108936143911
543.6610591311785
543.8931859736033
544.106972005894
544.3021264272306
544.4783704352061
544.6354378957883
544.7730760167289
544.8910460213184
544.9891238193858
545.067100672543
545.1247838507271
545.1619972770952
545.1785821583675
545.1743975977422
545.1493211874811
545.1032495782207
545.0360990221453
544.9478058873199
544.8383271406997
544.707640797574
544.5557463354751
544.3826650708053
544.1884404966298
543.9731385802817
543.7368480195763
543.4796804565854
543.2017706480988
542.9032765920559
542.5843796093543
542.2452843805812
541.8862189373493
541.5074346080644
541.1092059180763
540.6918304442677
540.255628624231
539.8009435202646
539.3281405385015
538.8376071036294
538.3297522897388
537.8050064079206
537.2638205513142
536.7066660984066
536.1340341754249
535.5464350787383
534.9443976582688
534.3284686630077
533.6992120498134
533.0572082567511
532.4030534423687
531.7373586923754
531.0607491952978
530.3738633887709
529.677352078218
528.9718775297843
528.2581125395079
527.5367394807988
526.8084493323425
526.0739406886206
525.3339187553026
524.5890943318442
523.8401827836835
523.0879030064546
522.3329763846359
521.5761257471178
520.8180743222372
520.0595446948706
519.3012577681952
518.5439317327124
517.7882810451242
517.035015419624
516.2848388341476
515.5384485540985
514.7965341760197
514.0597766935931
513.3288475882749
512.6044079468076
511.88710760779117
511.17758433940065
510.4764630501959
509.7843550348943
509.1018572569008
508.4295516692954
507.7680045758266
507.11776603329406
506.4793692965178
505.85333030693516
505.24014722572576
504.64030001221045
504.05425004805846
503.4824398076274
502.9252925745894
502.383212204817
501.85658293527996
501.34576923851586
500.8511157220998
500.3729470723705
499.9115680414879
499.46726347670284
499.04029839055323
498.6309180705722
498.2393482269379
497.86579517628223
497.5104460596992
497.17346909282884
496.85501384573155
496.5552115501645
496.2741754318165
496.01200106497816
495.76876674702896
495.5445338900627
495.33934742689326
495.1532362286354
494.986213531054
494.83827736683367
494.7094110009011
494.599583365946
494.50874949531993
494.4368509505393
494.3838162406856
494.34956123107617
494.3339895386485
494.336992911622
494.35845159114405
494.39823465273855
494.4562003255289
494.53219628741823
494.6260599346249
494.7376186241573
494.86668988800517
495.01308161803234
495.1765922206859
495.35701074084494
495.5541169543986
495.7676814293912
495.99746555582044
496.24322154440983
496.5046923948888
496.7816118345892
497.0737042284179
497.38068446148566
497.7022577959084
498.03811970354997
498.38795567674384
498.75144101924525
499.1282406198136
499.5180087110036
499.9203886159045
500.3350124857353
500.7615010313859
501.19946325215193
501.64849616505035
502.108184538214
502.5781006319319
503.05780395092864
503.5468410114806
504.0447451269805
504.551036215531
505.06522063309797
505.5867910356918
506.1152262739583
506.6499913234693
507.1905372539027
507.7363012401708
508.28670661842193
508.8411629897019
509.3990663739096
509.959799416483
510.52273164998866
511.08721981247504
511.6526082241116
512.2182292232876
512.7834036630778
513.3474414686896
513.9096422561931
514.4692960125736
515.0256838368861
515.5780787419917
516.1257465160987
516.6679466430925
517.2039332803865
517.7329562927675
518.2542623404833
518.7670960195774
519.2707010522755
519.7643215250422
520.2472031717513
520.7185946992681
521.1777491526445
521.6239253171137
522.0563891539653
522.4744152671083
522.8772883968339
523.2643049370466
523.6347744720754
523.9880213290146
524.3233861414652
524.640227420462
524.9379231282915
525.2158722507692
525.4734963634739
525.7102411873599
525.925578129083
526.1190058013781
526.2900515188892
526.4382727650158
526.5632586255188
526.6646311848607
526.7420468814174
526.7951978178112
526.8238130227651
526.8276596610434
526.8065441881978
526.7603134470116
526.6888557026806
526.592101613881
526.4700251369961
526.3226443608938
526.1500222697854
525.9522674317991
525.7295346109868
525.4820253005329
525.2099881749673
524.9137194592479
524.5935632126655
524.2499115255787
523.8832046270343
523.4939309013499
523.0826268117692
522.6498767293889
522.1963126656167
521.7226139064305
521.2295065467255
520.7177629230875
520.1882009434468
519.6416833121594
519.0791166491634
518.5014505018864
517.9096762486843
517.3048258926846
516.6879707450676
516.0602199969384
515.4227191791223
514.7766485093739
514.1232211266852
513.4636812125729
512.7993019994499
512.1313836664456
511.46125112331384
510.7902516833615
510.1197526266336
509.451138654935
508.7858092406972
508.12517587216286
507.47065919781676
506.8236860734933
506.1856865160534
505.55809056796966
504.9423250776639
504.33981040096734
503.75195702960593
503.1801621531715
502.62580616159556
502.09024909566176
501.57482705362946
501.0808485626466
500.6095909242329
500.1622965436661
499.7401692536275
499.3443706429854
498.97601640210974
498.6361726966355
498.3258525820299
498.0460124717347
497.7975486720203
497.5812939969724
497.39801447730287
497.24840617690467
497.1330921312284
497.05261942163656
497.0074563999414
496.9979900773422
497.024523691858
497.0872744681275
497.18637158315505
497.3218543512058
497.4936706406342
497.7016755349317
497.94563024966584
498.2252013162873
498.53996004302627
498.889382262268
499.27284837291546
499.68964368520176
500.1389590743531
500.61989194840135
501.1314475342642
501.67254048494783
502.24199680936886
502.8385561248821
503.46087423117825
504.1075260027544
504.77700859566505
505.4677449627754
506.17808767024707
506.9063230065157
507.650675373578
508.4093119489739
509.18034760547323
509.96185007409827
510.7518453347598
511.54832321747386
512.3492431958439
513.1525403532937
513.9561315013596
514.7579214282754
515.5558092551529
516.3476948762167
517.1314854588522
517.9051019787237
518.6664857648645
519.4136050294004
520.1444613563248
520.8570961236384
521.5495968331737
522.2201033225776
522.866813834176
523.487990915776
524.0819671288957
524.6471505404903
525.1820299749741
525.6851800041889
526.155265653948
526.5910468068612
526.9913822822654
527.355233575304
527.6816682385739
527.9698628912109
528.2191058416222
528.4287993114511
528.598461250008
528.7277267303709
528.8163489205373
528.8641996251627
528.8712693956023
528.837667208067
528.7636197117238
528.6494700505716
528.4956762649767
528.3028092808788
528.0715504967501
527.8026889804244
527.497118289892
527.1558329339477
526.7799244901208
526.370577398647
525.9290644524034
525.4567420037882
524.9550449105675
524.4254812436947
523.8696267809659
523.2891193111285
522.6856527737077
522.0609712603555
521.416862903928
520.7551536817584
520.077701159736
519.3863882037543
518.6831166849219
517.9698012045878
517.2483628648911
516.5207231101115
515.7887976635113
515.0544905835987
514.3196884628851
513.586254791208
512.8560245046259
512.1307987397017
511.4123398117484
510.7023664342489
510.0025491951971
509.31450630456817
508.6397996256175
507.9799310011355
507.33633888410225
506.7103952804614
506.10340301006096
505.5165932901626
504.95112364425404
504.40807613721785
503.8884559362827
503.3931901955797
502.92312726055036
502.4790361869366
502.0616065676673
501.6714486595776
501.30909380058426
500.97499510670167
500.66952843716956
500.392993614914
500.14561588860886
499.92754762179635
499.73887019379333
499.5795960964535
499.44967121032846
499.3489772433252
499.2773343146213
499.2345036663818
499.2201904856989
499.23404681917697
499.27567456270094
499.34462850912325
499.4404194369104
499.5625172232342
499.71035396554015
499.8833270961895
500.08080247533394
500.3021174478676
500.5465838510891
500.81349096052287
501.10210836217766
501.4116887403346
501.74147057083917
502.090680710812
502.45853687669546
502.844250003583
503.24702647976403
503.6660702513905
504.1005847931898
504.54977494211346
505.0128485917218
505.48901824604934
505.97750243262453
506.47752697517853
506.98832612743877
507.50914357020423
508.0392332746227
508.577860235281
509.1243010773937
509.6778445429999
510.23779186164563
510.8034570115052
511.37416687730604
511.9492613117867
512.5280931077092
513.1100278876827
513.6944439192147
514.2807318625606
514.8682944590842
515.456546167916
516.0449127586724
516.6328308679209
517.2197475269832
517.8051196684869
518.3884136188925
518.9691045839749
519.5466761339173
520.1206196943644
520.6904340494021
521.2556248620539
521.8157042174502
522.370190193457
522.9186064631398
523.4604819330057
523.9953504205411
524.5227503741049
525.0422246377359
525.5533202629716
526.0555883693476
526.5485840547944
527.0318663566665
527.5049982636523
527.9675467783852
528.4190830302008
528.8591824371299
529.287424915857
529.7033951380096
530.1066828308942
530.496883120554
530.8735969148178
531.2364313238085
531.5850001151952
531.9189242012756
532.237832154878
532.5413607510586
532.8291555315504
533.1008713888622
533.3561731668752
533.5947362748906
533.8162473122858
534.0204047010265
534.2069193232816
534.3755151613217
534.5259299368425
534.6579157468296
534.7712396930484
534.8656845022757
534.9410491344795
534.9971493761899
535.0338184163014
535.0509074015769
535.0482859691882
535.025842753672
534.9834858657541
534.9211433407063
534.8387635541408
534.7363156034155
534.6137896531375
534.4711972435284
534.3085715606663
534.1259676678037
533.9234626971328
533.701156001485
533.4591692655741
533.1976465764961
532.9167544533191
532.6166818357128
532.2976400317164
531.9598626248593
531.6036053410454
531.2291458756457
530.836783681224
530.4268397163785
529.9996561562425
529.5555960652244
529.0950430326136
528.6184007717164
528.1260926832276
527.618561383623
527.0962681993758
526.5596926278542
526.009331765855
525.4456997067455
524.8693269072024
524.2807595245728
523.6805587259385
523.0692999699994
522.4475722629419
521.8159773895193
521.1751291206537
520.5256523988971
519.8681825031249
519.2033641939048
518.5318508410523
517.8543035349088
517.1713901829033
516.4837845930094
515.7921655458014
515.0972158568492
514.399621431263
513.7000703122551
512.9992517256316
512.2978551220979
511.5965692193166
510.89608104565525
510.1970749875713
509.5002318426494
508.80622788035464
508.1157339125981
507.4294143762021
506.74792642933403
506.0719190639876
505.4020322365924
504.7388960187905
504.08312977033427
503.435341335995
502.7961262683739
502.16606707847086
501.5457325157509
500.93567687930584
500.33643936163526
499.7485434265463
499.17249622265683
498.60878803389903
498.05789176830564
497.52026248620956
496.9963369688456
496.48653332820606
495.99125065884897
495.51086873222687
495.04574773401873
494.59622804477095
494.16263006396565
493.74525407751213
493.3443801684838
492.96026817079263
492.59315766536116
492.24326801817654
491.91079845942255
491.59592820272997
491.2988166034477
491.01960335466475
490.75840871949646
490.51533379797763
490.29046082678195
490.0838535098654
489.8955573780271
489.7256001752453
489.5739922694876
489.4407270856008
489.32578155781255
489.2291165993015
489.15067758625196
489.0903948537694
489.0481842009631
489.02394740245916
489.01757272360084
489.0289354365747
489.0578983347135
489.1043122422567
489.16801651689315
489.2488395424508
489.3465992091412
489.4611033788578
489.5921503331362
489.7395292015271
489.9030203683041
490.0823958555798
490.27741968102293
490.4878481885093
490.71343035020175
490.9539080387448
491.20901626847956
491.47848340479203
491.76203134088746
492.05937564149536
492.3702256532606
492.69428458181096
493.0312495357213
493.380811537808
493.74265550441623
494.11646019364713
494.50189812372435
494.89863546291406
495.3063318926166
495.7246404454596
496.1532073204489
496.59167167746017
497.0396654135694
497.4968129238907
497.9627308497584
498.4370278172347
498.9193041690462
499.4091516931531
499.90615335124414
500.4098830105747
500.9199051826427
501.43577477225404
501.95703684057884
502.4832263858238
503.01386814510977
503.54847642103897
504.0865549363686
504.62759672013004
505.1710840284179
505.7164883029589
506.26327017047
506.8108794856584
507.3587554204779
507.9063266020204
508.45301130116997
508.9982176738817
509.54134405671874
510.08177931804
510.6189032659601
511.1520871139455
511.6806940046351
512.2040795921687
512.721592683003
513.2325759349252
513.7363666137404
514.2322974069161
514.7196972931985
515.1978924669552
515.6662073158022
516.1239654498664
516.5704907808836
517.0051086491125
517.4271469959106
517.8359375797384
518.230817233272
518.6111291590669
518.9762242608891
519.3254625075367
519.6582143257212
519.9738620183937
520.2718012047299
520.5514422778647
520.8122118763266
521.0535543650113
521.2749333213947
521.4758330225504
521.6557599283985
521.8142441565457
521.9508409440554
522.0651320915828
522.1567273854288
522.2252659932216
522.2704178290977
522.2918848844
522.2894025199798
522.2627407163098
522.2117052777575
522.1361389874712
522.0359227094698
521.9109764346748
521.7612602677458
521.5867753516479
521.38756472701
521.1637141234577
520.9153526802205
520.6426535933904
520.3458346872267
520.0251589069607
519.6809347306051
519.3135164973808
518.9233046504279
518.5107458915494
518.0763332458403
517.6206060341974
517.1441497518144
516.6475958507903
516.1316214249836
515.5969487953059
515.0443449937322
514.4746211444052
513.8886317403185
513.2872738141633
512.6714860020321
512.0422474988044
511.40057690412755
510.74753095809194
510.08420316590207
509.41172231104315
508.7312508566329
508.0439832348321
507.35114402439444
506.6539860167047
505.9537881709325
505.25185345916924
504.5495066026512
503.84809170052955
503.1489697530834
502.45351608170307
501.7631176483936
501.07917027797725
500.40307578659707
499.7362390205931
499.08006481026905
498.43595484350413
497.80530446466184
497.18949940476864
496.58991244944036
496.00790005151543
495.4447988959261
494.90192242486967
494.3805573318863
493.8819600339621
493.40735313130614
492.957921864942
492.53481058273456
492.1391192249164
491.7718998406291
491.4341531474099
491.1268251459023
490.8508038023684
490.6069158118445
490.3959234550171
490.21852156209604
490.0753345970876
489.96691387592466
489.8937349319017
489.85619504177043
489.85461092570836
489.8892166341856
489.9601616344679
490.0675091091171
490.2112344784264
490.39122415824426
490.6072745640715
490.8590913716205
491.14628904324377
491.4683906288245
491.8248278488516
492.21494146641754
492.6379819538523
493.09311045864115
493.57940007213335
494.09583740332664
494.641324458715
495.21468082786083
495.814646173005
496.4398830196557
497.0889798437318
497.76045444944265
498.45275763066206
499.1642771071664
499.89334172572734
500.6382259146747
501.39715437919216
502.168307023317
502.94982408337813
503.7398114563774
504.536346205666
505.337482225199
506.1412560426383
506.9456927405758
507.74881197428334
508.5486340636635
509.3431861364574
510.1305082993193
510.9086598130532
511.67572524800937
512.4298205954278
513.1690993104338
513.8917582624343
514.5960435688484
515.2802562884013
515.9427579506158
516.5819758986016
517.196408422795
517.7846296639922
518.3452942648528
518.8771417499952
519.3790006157894
519.8497921120298
520.2885336988552
520.6943421635605
521.0664363832149
521.4041397202053
521.7068820392665
521.9742013362966
522.2057449712701
522.4012704996277
522.560646098578
522.6838505867657
522.7709730376855
522.8222119890837
522.8378742524534
522.8183733286561
522.7642274376926
522.6760571726078
522.5545827894458
522.4006211469527
522.215082311323
521.9989658427248
521.7533567815558
521.479421353455
521.178402413084
520.8516146476462
520.5004395620326
520.1263202683044
519.7307561029078
519.3152970956038
518.8815383145569
518.4311141122964
517.9656922974774
517.4869682574357
516.9966590564793
516.4964975346822
515.988226431615
515.4735925590771
514.9543410464378
514.4322096816337
513.9089233701942
513.3861887338005
512.8656888689068
512.3490782848918
511.8379780400749
511.33397109269026
510.8385978825887
510.3533521581094
509.87967706118496
509.418961482277
508.9725366952098
508.54167328042814
508.12757834366386
507.73139303541336
507.3541903750332
506.99697338168335
506.66067351282373
506.34614940942595
506.05418594550883
505.7854935781321
505.54070799261234
505.3203900363609
505.1250259334952
504.9550277711697
504.81073424742755
504.69241166938656
504.60025518966427
504.5343902680624
504.49487434474133
504.4816987104323
504.49479055860775
504.5340152040503
504.59917845188204
504.6900291008576
504.80626156458936
504.94751859435286
505.113394087137
505.3034359627096
505.5171490936562
505.75399827266955
506.0134112017253
506.2947814882114
506.59747163360066
506.92081600084725
507.2641237473
507.6266817106065
508.0077572358391
508.4066009328836
508.8224493539354
509.25452758179046
509.7020517205127
510.1642312809998
510.64027145489223
511.12937527117487
511.63074563070285
512.1435872147681
512.6671082647078
513.2005222304626
513.743049286841
514.293917717046
514.8523651638104
515.4176397492874
515.9890010655675
516.5657210383594
517.1470846669803
517.732390644411
518.3209518617188
518.9120958016875
519.5051648269085
520.0995163679735
520.6945230177719
521.2895725381586
521.8840677854813
522.4774265616519
523.0690813975948
523.6584792760184
524.2450813004888
524.8283623178031
525.4078105006187
525.9829268971747
526.5532249547872
527.1182300236443
527.6774788472594
528.2305190456782
528.7769085972726
529.3162153246377
529.8480163898005
530.3718978036093
530.8874539538446
531.3942871562418
531.892007232198
532.3802311165387
532.8585824983577
533.3266914975752
533.7841943794807
534.2307333091022
534.6659561468193
535.0895162861964
535.5010725346265
535.9002890370833
536.286835242964
536.6603859156596
537.0206211841432
537.3672266356173
537.699893447987
538.0183185606905
538.3222048822195
538.6112615325134
538.8852041182392
539.1437550388732
539.3866438214126
539.6136074814891
539.8243909086078
540.0187472732188
540.1964384533959
540.3572354789959
540.5009189912469
540.6272797156515
540.7361189459507
540.8272490367591
540.9004939023807
540.9556895192237
540.9926844292557
541.0113402419947
541.0115321325601
540.9931493333366
540.9560956167616
540.9002897667618
540.8256660363435
540.7321745888532
540.619781920524
540.488471262017
540.338242956851
540.1691148148461
539.9811224389249
539.7743195237844
539.5487781251077
539.3045888981045
539.0418613042756
538.7607237854206
538.4613239040561
538.143828449528
537.8084235092258
537.4553145044304
537.0847261904141
536.6969026205091
536.2921070739848
535.8706219476469
535.432748611127
534.9788072258436
534.5091365276583
534.0240935732958
533.5240534506909
533.0094089535105
532.4805702201485
531.9379643375656
531.3820349104512
530.8132415962255
530.232059606469
529.6389791754705
529.0345049966946
528.4191556280155
527.7934628666434
527.1579710947458
526.5132365969132
525.8598268507067
525.1983197915982
524.5293030536783
523.8533731876139
523.1711348574283
522.4832000177356
521.7901870731371
521.0927200215654
520.3914275834485
519.6869423186808
518.9798997334113
518.270937378746
517.5606939435228
516.8498083433199
516.1389188078816
515.4286619692095
514.71967195261
514.0125794730188
513.3080109389348
512.6065875662742
511.90892450443556
511.2156299768389
510.52730443819104
509.8445397506928
509.16791838135805
508.4980126225731
507.8353838379753
507.18058173564737
506.5341436705126
505.8965939777471
505.26844333893956
504.65018818259114
504.0423101204186
503.4452754208207
502.8595345207601
502.2855215771538
501.72365405869095
501.17433237882335
500.63793957052866
500.1148410033181
499.6053841428199
499.1098983531052
498.628694741734
498.1620660473379
497.71028656943713
497.2736121399821
496.8522801359377
496.4465095320774
496.05650099299316
495.6824370031732
495.32448203384996
494.9827827451755
494.6574682221255
494.34865024236154
494.05642357412756
493.7808663021276
493.52204017921827
493.27999100165215
493.054749005496
492.84632928174887
492.654732207613
492.4799438913496
492.3219366281022
492.18066936403085
492.0560881660861
491.9481266947738
491.8567066772487
491.78173837805235
491.7231210648247
491.6807434663833
491.6544842206154
491.6442123096992
491.649787480253
491.67106064611835
491.7078742715899
491.76006273304586
491.82745265710577
491.9098632335972
492.0071065017371
492.11898760808106
492.24530503500915
492.38585079870467
492.54041061575145
492.70876403768017
492.8906845529862
493.08593965634645
493.29429088499995
493.51549382250187
493.7492980702484
493.99544718740657
494.25367860013773
494.5237234812229
494.80530660141204
495.0981461540373
495.4019535546335
495.7164332174926
496.04128231126026
496.3761904958715
496.7208396432933
497.07490354470417
497.4380476068978
497.8099285408425
498.1901940454397
498.578482489637
498.97442259614223
499.37763313006917
499.78772259590517
500.20428894622876
500.6269193056303
501.0551897132749
501.4886648875027
501.92689801581815
502.3694305735296
502.8157921742104
503.2655004550313
503.7180609999276
504.172967303462
504.62970077810473
505.08773080747835
505.5465148478818
506.0054985801371
506.4641161135236
506.92179024332256
507.3779327632789
507.8319448340277
508.28321740827846
508.731131713298
509.1750597909954
509.61436509567505
510.04840314930345
510.4765222539064
510.898064260453
511.3123653933445
511.71875712939595
512.1165671299954
512.5051202250036
512.883739446811
513.2517471127746
513.6084659540678
513.9532202889297
514.2853372382424
514.6041479812524
514.9089890490585
515.1992036531719
515.4741430461133
515.7331679107367
515.9756497747995
516.2009724472225
516.4085334723829
516.5977455986435
516.7680382571903
516.9188590470827
517.0496752223521
517.1599751768682
517.2492699226381
517.3170945572194
517.3630097160482
517.3866030056304
517.3874904136636
517.3653176922442
517.3197617104233
517.2505317724286
517.1573708979485
517.0400570610244
516.8984043841979
516.73226428463
516.5415265690021
516.3261204740401
516.0860156495945
515.8212230813075
515.5317959499699
515.2178304246894
514.879466386999
514.5168880830886
514.1303247013365
513.7200508723569
513.2863870887912
512.8297000421213
512.3504028738254
511.84895533826545
511.3258638746953
510.7816815858738
510.217008120838
509.63248945941524
509.02881759609573
508.4067301209623
507.76700969546016
507.1104834208938
506.4380220976059
505.75053937287447
505.04899077572577
504.33437263702166
503.6077208933577
502.8701097734747
502.1226503660977
501.36648906837246
500.60280591430694
499.8328127828595
499.05775148560724
498.27889173423137
497.49752898834726
496.714982184581
495.93259134821363
495.15171508917115
494.37372798463207
493.60001785103265
492.8319829087318
492.0710288430992
491.31856576629156
490.57600508451924
489.84475627615865
489.12622358661037
488.42180264635937
487.7328770192651
487.06081468867995
486.4069644895811
485.7726524954883
485.15917836954145
484.56781168969513
483.99978825854595
483.4563064088792
482.93852331655694
482.4475513328592
481.98445434883456
481.5502442046179
481.1458771570234
480.7722504190502
480.43019878519516
480.12049135670935
479.8438283811003
479.6008382202598
479.3920744616072
479.218013186619
479.07905041099303
478.97549971048466
478.90759004619423
478.8754638027415
478.8791750523424
478.91868805731616
478.99387602293416
479.1045201118285
479.2503087304235
479.4308370970211
479.6456071002165
479.89402745532425
480.17541416545225
480.48899129275287
480.8338920441523
481.20916017457415
481.6137517093696
482.0465369863116
482.50630301612057
482.9917561590773
483.50152511381066
484.0341642128695
484.5881570181999
485.1619202081683
485.7538077462867
486.3621153203441
486.9850850392543
487.6209103735696
488.26774132425123
488.9236898029675
489.5868352059567
490.2552301623152
490.9269064364277
491.59988096319324
492.27216199377887
492.9417553288056
493.6066706152364
494.26492768276364
494.91456289512405
495.5536354914568
496.18023389255427
496.7924819467386
497.38854509010673
497.9666363959971
498.5250224887394
499.06202929704517
499.5760476228348
500.0655385018673
500.5290383332516
500.96516375577795
501.37261624999724
501.75018644602045
502.0967581180604
502.4113118479172
502.692928340961
502.9407913795856
503.1541904004577
503.3325226832425
503.4752951400838
503.5821256970179
503.65274426062905
503.68699326548233
503.68482780006383
503.6463153110398
503.5716348876053
503.46107612964465
503.3150376054205
503.1340249065254
502.9186483098961
502.6696200586728
502.38775127556687
502.07394852419753
501.7292100354434
501.3546216171951
500.95135226703786
500.5206495084873
500.06383447244065
499.5822967464912
499.0774890156476
498.5509215187605
498.00415634558397
497.43880159990647
496.85650545458196
496.258950124546
495.6478457840385
495.0249244542336
494.3919338873045
493.75063147269367
493.10277819101293
492.4501326405405
491.79444516069356
491.13745207616057
490.48087008453444
489.8263908093115
489.17567553904945
488.5303501722956
487.8920003866325
487.2621670488985
486.64234188221764
486.0339634039863
485.43841314745646
484.8570121779906
484.291017913451
483.7416212565463
483.2099440452877
482.6970368260794
482.20387695232114
481.73136700968735
481.28033356758993
480.8515262547384
480.44561715516494
480.06320051956675
479.7047927853406
479.3708328973248
479.06168291998694
478.7776289305562
478.51888218147906
478.2855805195451
478.0777900480512
477.8955070174974
477.73865992954507
477.6071118382655
477.5006628320862
477.4190526794193
477.36196362060645
477.32902328858114
477.3198077405269
477.333844582781
477.37061617129604
477.4295628701505
477.510086350883
477.61155291579166
477.733296828765
477.87462363773625
478.03481347345985
478.2131243099468
478.40879517257724
478.62104928064963
478.8490971118943
479.0921393773342
479.34936989576164
479.6199783580553
479.9031529725001
480.19808298323767
480.5039610549368
480.81998551780805
481.14536246805295
481.47930771981476
481.821048605696
482.1698256238427
482.5248939304986
482.885524677825
483.2510061976415
483.62064503254413
483.99376681659027
484.36971700846357
484.74786148075015
485.1275869696298
485.508301389873
485.88943402057845
486.27043556759736
486.6507781090166
487.02995493044426
487.4074802571689
487.7828888905688
488.155735756385
488.52559537265137
488.89206124519285
489.2547451986593
489.61327665108615
489.9673018399376
490.31648300749555
490.66049755332017
490.9990371613513
491.33180690903487
491.65852436562693
491.9789186865619
492.29272971047754
492.5997070651541
492.8996092882956
493.1922029687197
493.4772619131478
493.7545663434301
494.02390212865015
494.28506005613
494.5378351449296
494.7820260049768
495.0174342445007
495.2438639279698
495.46112108629114
495.6690132806526
495.86734922098793
496.05593843963527
496.234591020396
496.4031173828888
496.561328121802
496.70903390038933
496.8460453973386
496.97217330591195
497.0872283839952
497.1910215534423
497.2833640468806
497.3640676000378
497.4329446875562
497.4898088001487
497.5344747608631
497.56675907820477
497.58648033393064
497.59345960330654
497.58752090549024
497.568491681546
497.53620329740824
497.49049156894847
497.431197306208
497.3581668738456
497.2712527648457
497.1703141845156
497.0552176417992
496.92583754487123
496.7820567979008
496.62376739585414
496.45087101421603
496.26327959056067
496.06091589505854
495.8437140872337
495.61162025650725
495.36459294425015
495.1026036452291
494.82563728648614
494.5336926818054
494.22678296007615
493.90493596599526
493.56819463171234
493.2166173181682
492.85027812502875
492.46926716821355
492.07369082412407
491.66367193979255
491.2393500082951
490.8008813088527
490.348439011093
489.8822132430117
489.4024111222724
488.90925675060146
488.40299117114193
487.8838722887385
487.3521747532221
486.80818980585707
486.2522250891961
485.68460442065935
485.1056675302416
484.5157697628661
483.91528174603167
483.3045890234944
482.68409165582693
482.0542037887549
481.41535319027827
480.76798075773513
480.1125399961003
479.44949646890194
478.77932722318013
478.10252018996744
477.4195735618422
476.7309951491244
476.0373017163149
475.3390183004505
474.6366775131016
473.9308188277971
473.2219878547272
472.51073560460736
471.7976177435957
471.08319384118937
470.36802661300203
469.65268116027937
468.93772420800894
468.2237233435109
467.51124625737623
466.80085998856396
466.0931301754392
465.3886203144843
464.68789102832613
463.9914993446764
463.29999798772656
462.6139346834481
461.93385148010475
461.26028408518795
460.59376121988976
459.93480399213075
459.28392528908597
458.64162919006725
458.0084104005126
457.3847537077244
456.77113345890143
456.1680130618988
455.57584450903767
454.995067924169
454.4261111331086
453.8693892574717
453.32530433181205
452.79424494388917
452.2765858978458
451.7726879000001
451.2828972668452
450.80754565477264
450.34694981098704
449.9014113450473
449.4712165204063
449.0566360652631
448.65792500201206
448.27532249454924
447.9090517126792
447.55931971282826
447.22631733422253
446.9102191096918
446.61118319029015
446.3293512829565
446.0648486004627
445.817783822912
445.5882490701066
445.37631988414734
445.1820552216833
445.00549745527314
444.84667238334606
444.70558924825457
444.5822407619339
444.47660313877606
444.38863613541486
444.31828309720703
444.26547101129216
444.23011056624154
444.2120962184015
444.21130626509785
444.2276029249016
444.2608324251696
444.31082509710586
444.3773954785875
444.46034242505647
444.55944922877325
444.67448374673984
444.80519853766197
444.9513310084067
445.1126035704823
445.2887238071219
445.47938465158484
445.68426457731675
445.90302780065275
446.135324496726
446.38079102916936
446.6390501941414
446.9097114791904
447.1923713374508
447.48661347764653
447.7920091703387
448.1081175708044
448.434486058853
448.770650595853
449.11613609918527
449.47045683426893
449.8331168242332
450.2036102772324
450.58142203129296
450.96602801647316
451.3568957340406
451.7534847522674
452.1552472183453
452.5616283857879
452.9720671565762
453.385996637191
453.80284470759636
454.22203460221255
454.64298550188556
455.06511313582917
455.48783039246405
455.9105479380375
456.3326748418484
456.7536192068202
457.17278880403154
457.5895917097129
458.00343694316905
458.4137351040677
458.8198990075413
459.22134431553457
459.61749016280805
460.0077597759953
460.39158108417155
460.7683873195687
461.1376176072495
461.49871754264984
461.85113975601416
462.1943444629342
462.5278000004198
462.85098334813756
463.1633806346516
463.46448762869494
463.7538102156934
464.0308648600509
464.2951790540149
464.5462917541923
464.7837538069408
465.0071283639171
465.21599128902454
465.40993155794445
465.588551651394
465.75146794334813
465.898311085604
466.0287263902066
466.14237421127063
466.2389303276835
466.31808632809
466.37954999951563
466.42304572097925
466.4483148634835
466.45511619783014
466.44322631183684
466.41244003862386
466.3625708976523
466.29345155013385
466.20493427032
466.0968914339897
465.96921602521564
465.8218221622593
465.6546456432184
465.46764451185965
465.260799643858
465.03411535336113
464.7876200194637
464.52136673179973
464.235433954103
463.92992620418534
463.6049747483481
463.2607383078245
462.89740377436635
462.5151869316126
462.1143331784564
461.6951182502531
461.25784893331775
460.80286376775086
460.3305337332725
459.8412629123933
459.33548912487316
458.81368452706613
458.2763561694439
457.7240465053396
457.1573338437505
456.57683273883066
455.98319430853104
455.37710647473506
454.75929411718585
454.1305191335288
453.49158039783566
452.84331361005883
452.1865910290183
451.52232108176764
450.8514478425277
