474.2981610443648
474.30467777731354
474.3111943984897
474.31771090737533
474.32422730345246
474.33074358620314
474.33725975510964
474.34377580965423
474.3502917493192
474.3568075735872
474.36332328194106
474.36983887386344
474.3763543488371
474.3828697063447
474.3893849458688
474.39590006689144
474.40241506889487
474.4089299513616
474.4154447137741
474.4219593556149
474.42847387636647
474.43498827551133
474.44150255253174
474.4480167069102
474.4545307381292
474.4610446456713
474.4675584290189
474.47407208765475
474.4805856210616
474.4870990287222
474.4936123101192
474.5001254647356
474.5066384920546
474.5131513915596
474.51966416273393
474.5261768050611
474.53268931802444
474.5392017011074
474.54571395379315
474.5522260755651
474.55873806590665
474.565249924301
474.5717616502315
474.57827324318185
474.58478470263566
474.5912960280768
474.5978072189891
474.60431827485644
474.6108291951629
474.6173399793924
474.62385062702873
474.6303611375558
474.6368715104574
474.64338174521725
474.64989184131895
474.65640179824635
474.6629116154833
474.6694212925135
474.67593082882075
474.68244022388893
474.6889494772019
474.69545858824375
474.7019675564986
474.7084763814507
474.71498506258416
474.7214935993831
474.7280019913316
474.734510237914
474.74101833861454
474.74752629291737
474.75403410030657
474.7605417602662
474.7670492722804
474.77355663583324
474.780063850409
474.78657091549184
474.7930778305658
474.79958459511516
474.80609120862454
474.8125976705782
474.8191039804603
474.82561013775484
474.83211614194596
474.838621992518
474.8451276889552
474.8516332307419
474.8581386173625
474.8646438483017
474.871148923044
474.8776538410743
474.88415860187723
474.8906632049379
474.8971676497412
474.90367193577225
474.910176062516
474.9166800294574
474.9231838360815
474.92968748187303
474.93619096631704
474.9426942888985
474.9491974491022
474.9557004464129
474.96220328031535
474.96870595029435
474.97520845583443
474.98171079642015
474.9882129715358
474.99471498066595
475.0012168232949
475.00771849890697
475.0142200069867
475.0207213470189
475.02722251848826
475.0337235208796
475.04022435367773
475.04672501636736
475.0532255084335
475.05972582936096
475.06622597863446
475.0727259557388
475.0792257601592
475.0857253913809
475.0922248488891
475.0987241321688
475.10522324070524
475.11172217398365
475.1182209314895
475.12471951270817
475.1312179171252
475.13771614422575
475.1442141934953
475.1507120644191
475.15720975648236
475.16370726917006
475.1702046019672
475.17670175435904
475.18319872583055
475.18969551586673
475.1961921239526
475.20268854957334
475.2091847922142
475.21568085136045
475.222176726497
475.22867241710895
475.23516792268146
475.2416632427002
475.2481583766509
475.2546533240192
475.2611480842906
475.2676426569503
475.2741370414837
475.2806312373761
475.28712524411293
475.2936190611794
475.30011268806055
475.30660612424157
475.3130993692077
475.3195924224439
475.3260852834355
475.3325779516678
475.3390704266266
475.34556270779757
475.35205479466634
475.3585466867184
475.3650383834392
475.3715298843144
475.37802118882945
475.38451229647006
475.3910032067219
475.39749391907066
475.40398443300177
475.4104747480007
475.4169648635531
475.4234547791447
475.42994449426095
475.4364340083875
475.44292332101
475.44941243161423
475.45590133968557
475.46239004470925
475.4688785461705
475.4753668435546
475.4818549363467
475.48834282403226
475.4948305060968
475.5013179820257
475.50780525130443
475.5142923134187
475.52077916785396
475.52726581409587
475.5337522516301
475.5402384799426
475.54672449851927
475.553210306846
475.5596959044089
475.5661812906946
475.5726664651897
475.57915142738096
475.5856361767555
475.59212071280007
475.5986050350013
475.605089142846
475.61157303582144
475.6180567134151
475.62454017511476
475.6310234204081
475.6375064487831
475.6439892597277
475.6504718527303
475.6569542272795
475.6634363828643
475.66991831897343
475.67640003509604
475.68288153072143
475.6893628053387
475.6958438584374
475.7023246895073
475.7088052980384
475.7152856835209
475.72176584544485
475.7282457833002
475.73472549657725
475.74120498476617
475.747684247357
475.75416328383966
475.76064209370446
475.76712067644183
475.77359903154246
475.780077158497
475.7865550567962
475.7930327259307
475.79951016539115
475.8059873746685
475.8124643532537
475.8189411006376
475.82541761631086
475.831893899764
475.8383699504877
475.844845767973
475.8513213517114
475.8577967011942
475.86427181591324
475.87074669536054
475.87722133902815
475.88369574640814
475.8901699169923
475.8966438502727
475.90311754574185
475.9095910028922
475.9160642212166
475.92253720020807
475.9290099393599
475.93548243816525
475.9419546961173
475.948426712709
475.95489848743335
475.9613700197835
475.96784130925283
475.9743123553348
475.9807831575228
475.9872537153105
475.9937240281917
476.0001940956601
476.0066639172093
476.013133492333
476.019602820525
476.0260719012794
476.0325407340908
476.0390093184539
476.0454776538633
476.05194573981356
476.0584135757994
476.0648811613159
476.07134849585844
476.0778155789223
476.0842824100027
476.0907489885946
476.09721531419285
476.10368138629264
476.1101472043892
476.116612767978
476.12307807655446
476.12954312961386
476.1360079266514
476.14247246716235
476.1489367506419
476.1554007765855
476.16186454448865
476.16832805384655
476.17479130415444
476.1812542949078
476.187717025602
476.19417949573284
476.2006417047964
476.2071036522888
476.2135653377065
476.220026760546
476.2264879203041
476.232948816478
476.2394094485646
476.2458698160612
476.25232991846536
476.25878975527434
476.2652493259854
476.27170863009604
476.2781676671038
476.28462643650636
476.2910849378015
476.2975431704869
476.30400113406034
476.31045882801953
476.3169162518622
476.32337340508633
476.3298302871901
476.3362868976721
476.34274323603125
476.34919930176665
476.35565509437737
476.3621106133625
476.3685658582212
476.37502082845225
476.3814755235548
476.3879299430279
476.39438408637074
476.4008379530823
476.40729154266177
476.4137448546084
476.42019788842157
476.42665064360034
476.4331031196438
476.4395553160513
476.4460072323224
476.45245886795686
476.4589102224542
476.46536129531404
476.47181208603587
476.4782625941195
476.4847128190649
476.49116276037233
476.49761241754203
476.5040617900747
476.5105108774707
476.51695967923087
476.5234081948558
476.52985642384596
476.5363043657023
476.54275201992544
476.5491993860166
476.5556464634769
476.56209325180765
476.5685397505105
476.5749859590871
476.58143187703894
476.5878775038677
476.5943228390751
476.6007678821631
476.60721263263343
476.61365708998795
476.6201012537287
476.62654512335774
476.6329886983771
476.6394319782889
476.6458749625953
476.6523176507989
476.6587600424022
476.6652021369077
476.67164393381785
476.6780854326352
476.6845266328625
476.6909675340027
476.69740813555876
476.70384843703386
476.71028843793164
476.716728137756
476.723167536011
476.7296066322012
476.73604542583115
476.74248391640566
476.7489221034295
476.75535998640765
476.76179756484515
476.7682348382472
476.77467180611933
476.78110846796693
476.7875448232957
476.7939808716116
476.8004166124205
476.8068520452286
476.813287169542
476.8197219848668
476.82615649070925
476.83259068657543
476.8390245719715
476.8454581464036
476.8518914093781
476.85832436040135
476.8647569989798
476.8711893246197
476.87762133682776
476.8840530351105
476.8904844189746
476.89691548792683
476.903346241474
476.90977667912347
476.91620680038267
476.9226366047589
476.9290660917597
476.9354952608923
476.9419241116638
476.94835264358125
476.9547808561521
476.9612087488842
476.9676363212854
476.97406357286394
476.980490503128
476.98691711158557
476.9933433977446
476.99976936111324
477.0061950011995
477.01262031751133
477.01904530955716
477.0254699768456
477.03189431888535
477.03831833518524
477.0447420252544
477.0511653886019
477.05758842473705
477.06401113316946
477.07043351340866
477.0768555649642
477.0832772873454
477.08969868006164
477.0961197426224
477.1025404745373
477.1089608753163
477.11538094446945
477.1218006815067
477.1282200859384
477.1346391572744
477.1410578950251
477.14747629870084
477.15389436781214
477.16031210186947
477.1667295003837
477.1731465628656
477.1795632888258
477.18597967777504
477.19239572922396
477.1988114426833
477.2052268176639
477.211641853677
477.2180565502335
477.2244709068445
477.23088492302116
477.2372985982749
477.24371193211726
477.2501249240601
477.25653757361573
477.26294988029684
477.2693618436164
477.2757734630872
477.28218473822193
477.28859566853333
477.2950062535344
477.30141649273827
477.3078263856584
477.31423593180847
477.3206451307023
477.32705398185357
477.3334624847759
477.3398706389832
477.34627844398955
477.3526858993093
477.3590930044565
477.36549975894553
477.37190616229094
477.3783122140073
477.38471791360934
477.39112326061235
477.3975282545318
477.4039328948831
477.4103371811818
477.4167411129435
477.42314468968397
477.42954791091887
477.4359507761639
477.44235328493477
477.44875543674715
477.4551572311172
477.4615586675615
477.46795974559694
477.4743604647401
477.4807608245075
477.4871608244163
477.49356046398356
477.4999597427263
477.50635866016154
477.5127572158064
477.5191554091777
477.5255532397925
477.5319507071678
477.53834781082054
477.5447445502677
477.5511409250261
477.55753693461264
477.5639325785443
477.5703278563382
477.5767227675114
477.5831173115809
477.5895114880638
477.59590529647716
477.60229873633824
477.6086918071646
477.61508450847367
477.62147683978327
477.62786880061134
477.6342603904761
477.6406516088959
477.6470424553892
477.6534329294745
477.65982303067057
477.6662127584961
477.67260211246975
477.67899109211015
477.6853796969362
477.691767926467
477.69815578022184
477.7045432577201
477.7109303584811
477.7173170820242
477.72370342786866
477.7300893955341
477.73647498454005
477.7428601944061
477.74924502465177
477.75562947479665
477.7620135443605
477.76839723286315
477.77478053982435
477.7811634647641
477.7875460072027
477.79392816666035
477.8003099426575
477.8066913347147
477.81307234235277
477.8194529650929
477.8258332024563
477.83221305396404
477.83859251913753
477.84497159749816
477.8513502885675
477.85772859186767
477.8641065069209
477.8704840332495
477.876861170376
477.8832379178231
477.88961427511407
477.89599024177227
477.9023658173216
477.90874100128593
477.91511579318916
477.92149019255515
477.927864198908
477.9342378117721
477.94061103067173
477.94698385513124
477.9533562846752
477.9597283188281
477.96609995711486
477.9724711990602
477.9788420441891
477.9852124920271
477.9915825420996
477.9979521939321
478.00432144705013
478.0106903009793
478.0170587552454
478.02342680937403
478.02979446289095
478.03616171532207
478.0425285661933
478.04889501503084
478.0552610613608
478.06162670470957
478.06799194460353
478.0743567805691
478.0807212121328
478.0870852388213
478.09344886016146
478.0998120756805
478.1061748849058
478.11253728736455
478.1188992825843
478.12526087009286
478.1316220494179
478.1379828200872
478.14434318162847
478.15070313356927
478.1570626754371
478.1634218067597
478.1697805270648
478.1761388358802
478.18249673273357
478.18885421715294
478.19521128866626
478.20156794680173
478.20792419108756
478.21428002105216
478.2206354362242
478.22699043613255
478.2333450203061
478.23969918827373
478.2460529395643
478.25240627370675
478.25875919023014
478.2651116886636
478.2714637685362
478.2778154293771
478.2841666707156
478.2905174920808
478.2968678930019
478.3032178730081
478.30956743162886
478.3159165683937
478.32226528283235
478.3286135744749
478.33496144285135
478.3413088874922
478.34765590792784
478.35400250368883
478.36034867430584
478.36669441930957
478.37303973823094
478.3793846306011
478.3857290959515
478.39207313381365
478.3984167437192
478.40475992520004
478.41110267778794
478.41744500101476
478.42378689441233
478.4301283575125
478.43646938984733
478.44280999094866
478.4491501603483
478.4554898975784
478.46182920217115
478.4681680736591
478.47450651157504
478.4808445154519
478.4871820848229
478.49351921922147
478.49985591818125
478.50619218123614
478.5125280079198
478.51886339776587
478.525198350308
478.5315328650799
478.5378669416154
478.5442005794484
478.55053377811277
478.5568665371424
478.56319885607144
478.5695307344342
478.575862171765
478.5821931675982
478.58852372146833
478.59485383291025
478.60118350145916
478.6075127266508
478.6138415080208
478.62016984510495
478.62649773743914
478.6328251845593
478.6391521860016
478.6454787413024
478.65180484999786
478.6581305116246
478.6644557257195
478.6707804918196
478.67710480946215
478.6834286781847
478.68975209752483
478.69607506702
478.70239758620795
478.7087196546269
478.7150412718151
478.7213624373109
478.72768315065304
478.7340034113801
478.7403232190308
478.746642573144
478.75296147325884
478.7592799189146
478.7655979096509
478.7719154450078
478.77823252452544
478.78454914774437
478.7908653142053
478.7971810234491
478.80349627501727
478.8098110684513
478.8161254032929
478.8224392790839
478.82875269536606
478.83506565168153
478.8413781475728
478.84769018258265
478.85400175625426
478.8603128681306
478.86662351775493
478.87293370467063
478.87924342842115
478.88555268855015
478.8918614846013
478.89816981611824
478.9044776826449
478.9107850837251
478.917092018903
478.923398487723
478.9297044897293
478.9360100244666
478.94231509147966
478.9486196903135
478.95492382051333
478.96122748162446
478.96753067319236
478.9738333947625
478.9801356458808
478.98643742609323
478.99273873494593
478.9990395719853
479.0053399367577
479.01163982880956
479.01793924768725
479.0242381929376
479.03053666410773
479.0368346607451
479.04313218239776
479.0494292286141
479.05572579894255
479.0620218929318
479.0683175101307
479.0746126500882
479.08090731235365
479.0872014964763
479.09349520200584
479.0997884284922
479.10608117548526
479.112373442535
479.11866522919166
479.12495653500577
479.1312473595278
479.1375377023082
479.1438275628977
479.150116940847
479.15640583570683
479.1626942470281
479.16898217436227
479.17526961726065
479.18155657527467
479.18784304795594
479.1941290348563
479.20041453552784
479.20669954952285
479.21298407639364
479.21926811569296
479.2255516669738
479.2318347297891
479.2381173036924
479.24439938823747
479.2506809829783
479.2569620874687
479.26324270126264
479.26952282391443
479.2758024549784
479.2820815940092
479.28836024056153
479.2946383941907
479.3009160544522
479.30719322090175
479.31346989309526
479.31974607058913
479.32602175294
479.33229693970446
479.33857163043916
479.3448458247007
479.35111952204596
479.357392722032
479.36366542421587
479.3699376281549
479.3762093334066
479.382480539529
479.38875124608006
479.3950214526182
479.40129115870167
479.4075603638889
479.4138290677383
479.4200972698083
479.4263649696572
479.4326321668431
479.43889886092455
479.4451650514599
479.45143073800745
479.4576959201258
479.4639605973736
479.4702247693096
479.4764884354926
479.48275159548206
479.48901424883724
479.49527639511774
479.5015380338834
479.50779916469395
479.51405978710926
479.52031990068934
479.52657950499446
479.5328385995853
479.53909718402286
479.54535525786827
479.5516128206827
479.55786987202754
479.5641264114642
479.5703824385541
479.57663795285856
479.58289295393905
479.58914744135717
479.59540141467477
479.6016548734539
479.60790781725694
479.6141602456459
479.6204121581829
479.6266635544304
479.63291443395127
479.6391647963082
479.64541464106395
479.65166396778176
479.65791277602506
479.6641610653575
479.6704088353428
479.67665608554483
479.6829028155275
479.6891490248549
479.69539471309116
479.70163987980067
479.7078845245482
479.7141286468988
479.720372246418
479.7266153226714
479.73285787522485
479.7390999036442
479.7453414074957
479.75158238634566
479.757822839761
479.76406276730876
479.77030216855627
479.77654104307106
479.7827793904209
479.78901721017354
479.79525450189675
479.8014912651583
479.8077274995264
479.81396320456946
479.82019837985644
479.82643302495643
479.83266713943857
479.83890072287244
479.8451337748276
479.8513662948737
479.85759828258045
479.86382973751773
479.87006065925556
479.87629104736396
479.8825209014132
479.88875022097403
479.8949790056176
479.9012072549155
479.90743496843965
479.91366214576163
479.9198887864531
479.9261148900861
479.93234045623257
479.93856548446473
479.94478997435516
479.9510139254766
479.95723733740186
479.96346020970367
479.96968254195525
479.97590433373006
479.982125584602
479.9883462941452
479.99456646193374
480.00078608754205
480.0070051705447
480.0132237105167
480.0194417070333
480.0256591596703
480.03187606800356
480.0380924316093
480.04430825006415
480.05052352294496
480.0567382498286
480.0629524302919
480.06916606391195
480.07537915026586
480.0815916889307
480.08780367948356
480.0940151215015
480.10022601456166
480.1064363582413
480.112646152118
480.11885539576946
480.1250640887735
480.1312722307079
480.13747982115063
480.1436868596799
480.1498933458742
480.1560992793122
480.1623046595727
480.168509486235
480.1747137588781
480.18091747708144
480.1871206404248
480.19332324848796
480.199525300851
480.2057267970944
480.21192773679917
480.2181281195462
480.22432794491664
480.23052721249195
480.2367259218535
480.24292407258275
480.2491216642613
480.2553186964705
480.2615151687921
480.2677110808078
480.2739064321001
480.2801012222514
480.28629545084453
480.2924891174625
480.2986822216889
480.30487476310776
480.31106674130314
480.31725815585986
480.3234490063632
480.3296392923989
480.33582901355265
480.34201816941066
480.3482067595591
480.3543947835844
480.36058224107313
480.3667691316122
480.3729554547885
480.37914121018883
480.38532639740055
480.3915110160112
480.39769506560873
480.40387854578165
480.4100614561186
480.41624379620833
480.4224255656397
480.42860676400204
480.434787390885
480.44096744587813
480.4471469285715
480.45332583855514
480.4595041754189
480.46568193875277
480.47185912814706
480.47803574319204
480.484211783478
480.49038724859514
480.49656213813404
480.50273645168517
480.5089101888388
480.5150833491852
480.52125593231466
480.52742793781766
480.53359936528494
480.53977021430745
480.5459404844764
480.5521101753829
480.5582792866182
480.5644478177739
480.5706157684419
480.576783138214
480.58294992668215
480.5891161334384
480.5952817580748
480.60144680018374
480.6076112593577
480.61377513518954
480.61993842727196
480.626101135198
480.63226325856084
480.638424796954
480.6445857499713
480.650746117207
480.65690589825493
480.66306509270925
480.6692237001643
480.6753817202145
480.6815391524544
480.68769599647857
480.69385225188165
480.7000079182582
480.7061629952031
480.7123174823111
480.7184713791775
480.7246246853978
480.73077740056755
480.7369295242822
480.74308105613744
480.7492319957293
480.7553823426537
480.76153209650687
480.76768125688517
480.77382982338503
480.7799777956031
480.786125173136
480.7922719555806
480.79841814253376
480.8045637335924
480.8107087283535
480.81685312641474
480.82299692737405
480.82914013082967
480.83528273638007
480.8414247436239
480.8475661521606
480.85370696158947
480.85984717151035
480.8659867815231
480.8721257912277
480.8782642002247
480.8844020081148
480.89053921449926
480.8966758189792
480.90281182115604
480.90894722063143
480.91508201700725
480.92121620988536
480.9273497988676
480.93348278355614
480.93961516355324
480.94574693846147
480.9518781078834
480.9580086714215
480.96413862867865
480.9702679792576
480.97639672276154
480.98252485879397
480.98865238695834
480.99477930685833
481.0009056180979
481.0070313202811
481.0131564130124
481.0192808958963
481.0254047685377
481.0315280305419
481.0376506815143
481.04377272106075
481.0498941487869
481.056014964299
481.0621351672034
481.068254757107
481.07437373361694
481.08049209634027
481.0866098448841
481.09272697885575
481.09884349786256
481.1049594015121
481.11107468941185
481.11718936116966
481.1233034163933
481.12941685469076
481.1355296756705
481.14164187894124
481.1477534641123
481.1538644307936
481.1599747785953
481.166084507128
481.1721936160022
481.17830210482856
481.1844099732181
481.1905172207823
481.19662384713246
481.2027298518803
481.2088352346379
481.2149399950178
481.2210441326326
481.22714764709525
481.23325053801904
481.2393528050174
481.2454544477038
481.25155546569175
481.2576558585949
481.2637556260274
481.26985476760336
481.2759532829372
481.28205117164356
481.28814843333697
481.29424506763206
481.30034107414343
481.3064364524859
481.31253120227433
481.3186253231235
481.3247188146485
481.33081167646463
481.33690390818737
481.3429955094322
481.34908647981473
481.3551768189504
481.3612665264549
481.36735560194455
481.37344404503546
481.37953185534406
481.385619032487
481.39170557608116
481.3977914857439
481.4038767610925
481.4099614017445
481.41604540731777
481.42212877743003
481.4282115116991
481.4342936097432
481.44037507118077
481.44645589563055
481.45253608271145
481.4586156320426
481.4646945432434
481.4707728159339
481.4768504497344
481.4829274442654
481.48900379914784
481.49507951400295
481.5011545884519
481.5072290221164
481.5133028146185
481.51937596558054
481.5254484746251
481.5315203413749
481.53759156545306
481.543662146483
481.54973208408836
481.55580137789315
481.5618700275215
481.5679380325975
481.5740053927456
481.58007210759064
481.58613817675786
481.592203599873
481.5982683765621
481.6043325064515
481.61039598916744
481.61645882433635
481.62252101158487
481.62858255054033
481.6346434408303
481.6407036820826
481.6467632739254
481.6528222159872
481.65888050789675
481.6649381492827
481.6709951397742
481.6770514790007
481.6831071665917
481.68916220217665
481.69521658538514
481.701270315847
481.7073233931923
481.71337581705114
481.71942758705353
481.7254787028298
481.7315291640104
481.73757897022637
481.7436281211089
481.74967661628915
481.75572445539837
481.7617716380682
481.7678181639305
481.7738640326174
481.77990924376167
481.7859537969961
481.791997691954
481.798040928269
481.8040835055753
481.81012542350703
481.8161666816986
481.8222072797848
481.8282472174007
481.83428649418164
481.8403251097629
481.84636306377973
481.8524003558679
481.8584369856637
481.86447295280317
481.8705082569226
481.87654289765845
481.8825768746473
481.88861018752635
481.89464283593264
481.90067481950354
481.9067061378766
481.9127367906894
481.9187667775795
481.92479609818446
481.9308247521421
481.9368527390906
481.94288005866855
481.94890671051434
481.9549326942669
481.96095800956545
481.9669826560493
481.9730066333581
481.9790299411315
481.98505257900905
481.9910745466306
481.9970958436365
482.0031164696672
482.00913642436325
482.0151557073654
482.02117431831465
482.0271922568522
482.0332095226194
482.03922611525803
482.0452420344099
482.05125727971716
482.05727185082213
482.06328574736693
482.0692989689939
482.0753115153456
482.08132338606487
482.08733458079445
482.0933450991774
482.0993549408569
482.1053641054763
482.11137259267906
482.11738040210884
482.1233875334096
482.12939398622547
482.1353997602011
482.1414048549811
482.1474092702103
482.15341300553376
482.1594160605966
482.1654184350443
482.1714201285228
482.1774211406782
482.1834214711568
482.18942111960513
482.19542008567004
482.20141836899865
482.2074159692383
482.21341288603634
482.2194091190401
482.2254046678972
482.23139953225535
482.23739371176265
482.2433872060673
482.24938001481786
482.25537213766296
482.26136357425156
482.2673543242328
482.2733443872559
482.2793337629702
482.2853224510256
482.29131045107187
482.2972977627591
482.3032843857374
482.3092703196573
482.3152555641697
482.3212401189259
482.3272239835773
482.3332071577756
482.3391896411728
482.34517143342185
482.3511525341757
482.3571329430876
482.3631126598113
482.36909168400115
482.37507001531156
482.38104765339716
482.38702459791324
482.3930008485151
482.3989764048583
482.4049512665985
482.4109254333916
482.41689890489323
482.4228716807592
482.4288437606455
482.43481514420813
482.44078583110326
482.44675582098733
482.45272511351703
482.4586937083495
482.46466160514177
482.4706288035513
482.47659530323557
482.4825611038522
482.48852620505903
482.49449060651426
482.5004543078764
482.5064173088039
482.51237960895554
482.51834120799043
482.524302105568
482.5302623013478
482.5362217949898
482.54218058615396
482.54813867450065
482.5540960596904
482.5600527413839
482.566008719242
482.57196399292565
482.5779185620963
482.5838724264153
482.58982558554425
482.59577803914493
482.6017297868795
482.60768082841054
482.61363116340084
482.619580791513
482.6255297124098
482.63147792575427
482.63742543120946
482.64337222843886
482.6493183171062
482.65526369687535
482.66120836741055
482.6671523283762
482.67309557943685
482.6790381202574
482.6849799505032
482.6909210698397
482.6968614779327
482.7028011744482
482.7087401590524
482.7146784314115
482.720615991192
482.7265528380603
482.73248897168327
482.7384243917281
482.74435909786206
482.7502930897528
482.75622636706834
482.7621589294767
482.7680907766464
482.7740219082463
482.7799523239457
482.7858820234139
482.79181100632053
482.79773927233526
482.80366682112793
482.8095936523686
482.81551976572763
482.82144516087527
482.8273698374821
482.8332937952186
482.8392170337558
482.8451395527649
482.8510613519174
482.8569824308849
482.86290278933933
482.86882242695305
482.8747413433986
482.8806595383489
482.8865770114766
482.8924937624549
482.8984097909567
482.9043250966553
482.9102396792243
482.916153538337
482.9220666736671
482.92797908488814
482.93389077167416
482.9398017336993
482.94571197063823
482.95162148216554
482.95753026795586
482.96343832768383
482.9693456610243
482.97525226765237
482.9811581472431
482.9870632994718
482.99296772401425
482.99887142054644
483.0047743887448
483.0106766282858
483.0165781388461
483.0224789201024
483.02837897173134
483.03427829340984
483.0401768848148
483.04607474562334
483.0519718755126
483.0578682741604
483.0637639412443
483.06965887644213
483.0755530794319
483.0814465498922
483.0873392875016
483.09323129193893
483.0991225628831
483.10501310001354
483.11090290300984
483.1167919715519
483.12268030532
483.1285679039947
483.1344547672565
483.1403408947862
483.1462262862646
483.1521109413729
483.1579948597925
483.1638780412051
483.16976048529267
483.1756421917375
483.18152316022196
483.1874033904284
483.19328288203945
483.1991616347381
483.2050396482079
483.21091692213275
483.2167934561966
483.2226692500839
483.2285443034795
483.2344186160687
483.24029218753725
483.24616501757095
483.2520371058558
483.25790845207774
483.26377905592307
483.2696489170784
483.27551803523073
483.2813864100671
483.2872540412747
483.29312092854065
483.29898707155206
483.3048524699963
483.31071712356055
483.3165810319321
483.3224441947986
483.32830661184806
483.334168282769
483.3400292072501
483.3458893849806
483.3517488156496
483.3576074989464
483.36346543456006
483.3693226221803
483.3751790614969
483.3810347521998
483.38688969397884
483.3927438865241
483.3985973295261
483.4044500226757
483.4103019656638
483.41615315818166
483.42200359992097
483.42785329057364
483.43370222983157
483.4395504173869
483.4453978529322
483.45124453616035
483.4570904667643
483.46293564443766
483.4687800688743
483.4746237397687
483.4804666568154
483.48630881970956
483.4921502281465
483.4979908818213
483.50383078042927
483.50966992366597
483.5155083112274
483.5213459428098
483.52718281810934
483.53301893682277
483.538854298647
483.5446889032791
483.5505227504165
483.5563558397568
483.5621881709978
483.5680197438375
483.57385055797425
483.5796806131065
483.58550990893326
483.59133844515344
483.59716622146624
483.60299323757084
483.60881949316666
483.61464498795334
483.62046972163074
483.62629369389896
483.6321169044583
483.63793935300936
483.6437610392531
483.6495819628905
483.6554021236231
483.6612215211525
483.6670401551805
483.67285802540886
483.6786751315398
483.68449147327595
483.6903070503203
483.6961218623764
483.70193590914795
483.70774919033914
483.71356170565394
483.71937345479654
483.72518443747157
483.73099465338413
483.7368041022398
483.7426127837445
483.74842069760456
483.7542278435266
483.76003422121784
483.7658398303858
483.77164467073834
483.7774487419833
483.78325204382844
483.7890545759819
483.79485633815165
483.80065733004625
483.8064575513742
483.8122570018442
483.81805568116505
483.8238535890454
483.8296507251943
483.8354470893211
483.8412426811355
483.8470375003471
483.852831546666
483.8586248198025
483.864417319467
483.87020904537
483.87599999722255
483.88179017473584
483.8875795776216
483.8933682055917
483.8991560583581
483.9049431356329
483.9107294371283
483.9165149625564
483.9222997116296
483.9280836840605
483.9338668795619
483.93964929784687
483.94543093862893
483.9512118016216
483.95699188653856
483.96277119309383
483.96854972100135
483.9743274699751
483.98010443972925
483.98588062997845
483.9916560404378
483.99743067082267
484.0032045208483
484.0089775902306
484.014749878685
484.02052138592734
484.0262921116736
484.0320620556403
484.0378312175441
484.04359959710195
484.04936719403094
484.05513400804824
484.06090003887147
484.0666652862182
484.0724297498061
484.0781934293529
484.08395632457695
484.0897184351965
484.0954797609301
484.10124030149626
484.10700005661346
484.1127590260007
484.1185172093769
484.12427460646126
484.13003121697324
484.13578704063247
484.1415420771586
484.1472963262715
484.15304978769103
484.1588024611371
484.1645543463298
484.1703054429897
484.1760557508373
484.18180526959344
484.18755399897935
484.1933019387165
484.19904908852635
484.2047954481308
484.21054101725207
484.216285795612
484.22202978293257
484.22777297893566
484.23351538334344
484.2392569958783
484.2449978162628
484.2507378442196
484.2564770794715
484.2622155217413
484.26795317075215
484.27369002622726
484.27942608789016
484.2851613554648
484.29089582867545
484.2966295072467
484.3023623909034
484.3080944793707
484.3138257723742
484.3195562696396
484.32528597089293
484.3310148758605
484.33674298426894
484.342470295845
484.3481968103151
484.3539225274057
484.3596474468438
484.36537156835647
484.37109489167113
484.3768174165154
484.3825391426173
484.38826006970515
484.39398019750723
484.39969952575206
484.4054180541686
484.41113578248604
484.41685271043406
484.42256883774274
484.42828416414244
484.4339986893637
484.43971241313733
484.44542533519433
484.45113745526595
484.45684877308366
484.4625592883794
484.4682690008853
484.4739779103342
484.4796860164594
484.4853933189942
484.49109981767236
484.49680551222826
484.5025104023968
484.5082144879129
484.5139177685118
484.51962024392896
484.52532191389963
484.53102277815964
484.536722836445
484.54242208849195
484.54812053403697
484.55381817281676
484.559515004568
484.56521102902747
484.57090624593224
484.5766006550197
484.5822942560275
484.5879870486937
484.5936790327566
484.5993702079549
484.6050605740274
484.6107501307128
484.61643887775034
484.6221268148792
484.62781394183884
484.6335002583689
484.63918576420923
484.6448704591
484.65055434278196
484.65623741499616
484.66191967548406
484.66760112398737
484.6732817602478
484.6789615840068
484.6846405950061
484.6903187929876
484.69599617769376
484.70167274886734
484.70734850625144
484.71302344958934
484.7186975786248
484.7243708931016
484.73004339276366
484.7357150773552
484.7413859466205
484.7470560003041
484.7527252381512
484.75839365990686
484.7640612653167
484.76972805412623
484.7753940260813
484.7810591809279
484.7867235184123
484.792387038281
484.79804974028065
484.8037116241582
484.8093726896611
484.81503293653685
484.82069236453316
484.82635097339784
484.83200876287873
484.83766573272413
484.8433218826826
484.8489772125028
484.854631721934
484.8602854107257
484.8659382786274
484.87159032538915
484.87724155076074
484.8828919544921
484.8885415363331
484.8941902960341
484.8998382333454
484.9054853480174
484.91113163980043
484.9167771084448
484.92242175370114
484.9280655753202
484.93370857305325
484.93935074665177
484.94499209586746
484.95063262045227
484.9562723201579
484.9619111947363
484.9675492439396
484.97318646751995
484.97882286523003
484.9844584368229
484.9900931820518
484.9957271006703
485.0013601924324
485.0069924570923
485.0126238944046
485.0182545041245
485.02388428600733
485.0295132398084
485.0351413652831
485.04076866218674
485.0463951302749
485.0520207693034
485.057645579028
485.06326955920457
485.0688927095891
485.074515029938
485.0801365200079
485.0857571795552
485.0913770083368
485.0969960061099
485.1026141726317
485.1082315076598
485.11384801095204
485.1194636822665
485.1250785213617
485.13069252799613
485.1363057019286
485.1419180429181
485.14752955072385
485.15314022510546
485.15875006582263
485.16435907263525
485.16996724530367
485.1755745835887
485.18118108725156
485.1867867560538
485.1923915897568
485.19799558812264
485.2035987509134
485.20920107789124
485.2148025688188
485.22040322345896
485.2260030415743
485.2316020229277
485.2372001672822
485.24279747440113
485.2483939440478
485.25398957598594
485.25958436997956
485.2651783257931
485.2707714431912
485.27636372193905
485.28195516180216
485.2875457625466
485.29313552393836
485.29872444574397
485.30431252773013
485.3098997696638
485.3154861713119
485.32107173244157
485.32665645282003
485.3322403322149
485.337823370394
485.34340556712567
485.3489869221782
485.3545674353199
485.36014710631906
485.36572593494446
485.3713039209651
485.3768810641499
485.3824573642682
485.38803282108955
485.3936074343839
485.3991812039214
485.40475412947234
485.41032621080734
485.4158974476972
485.4214678399132
485.4270373872268
485.4326060894097
485.4381739462339
485.44374095747133
485.44930712289414
485.4548724422745
485.46043691538483
485.46600054199797
485.471563321887
485.47712525482547
485.4826863405869
485.48824657894505
485.49380596967393
485.49936451254797
485.5049222073423
485.51047905383206
485.51603505179236
485.5215902009988
485.5271445012267
485.5326979522517
485.53825055384954
485.5438023057961
485.54935320786734
485.55490325983936
485.5604524614884
485.5660008125912
485.5715483129247
485.577094962266
485.5826407603924
485.58818570708144
485.5937298021108
485.5992730452585
485.6048154363029
485.61035697502274
485.61589766119704
485.6214374946048
485.6269764750252
485.63251460223745
485.63805187602105
485.64358829615566
485.64912386242094
485.65465857459657
485.66019243246245
485.66572543579895
485.67125758438664
485.6767888780059
485.68231931643703
485.68784889946045
485.6933776268567
485.6989054984069
485.7044325138922
485.70995867309415
485.71548397579426
485.72100842177446
485.72653201081715
485.732054742705
485.737576617221
485.74309763414857
485.7486177932714
485.75413709437356
485.7596555372392
485.7651731216526
485.77068984739816
485.7762057142608
485.7817207220257
485.78723487047836
485.79274815940465
485.7982605885906
485.8037721578225
485.80928286688703
485.8147927155712
485.82030170366187
485.82580983094584
485.83131709721005
485.83682350224143
485.84232904582694
485.8478337277533
485.8533375478077
485.8588405057778
485.86434260145114
485.86984383461566
485.87534420505966
485.8808437125717
485.8863423569405
485.89184013795506
485.8973370554049
485.9028331090794
485.908328298768
485.91382262426026
485.919316085346
485.92480868181514
485.93030041345804
485.93579128006553
485.94128128142864
485.9467704173384
485.95225868758615
485.9577460919631
485.96323263026073
485.9687183022706
485.9742031077844
485.9796870465936
485.98517011848975
485.99065232326456
485.99613366070975
486.00161413061704
486.0070937327782
486.0125724669851
486.01805033303
486.02352733070524
486.0290034598033
486.03447872011674
486.0399531114385
486.04542663356204
486.050899286281
486.05637106938906
486.0618419826803
486.0673120259491
486.0727811989904
486.0782495015994
486.08371693357157
486.0891834947026
486.09464918478824
486.1001140036248
486.1055779510088
486.11104102673715
486.1165032306073
486.1219645624164
486.1274250219621
486.1328846090425
486.1383433234559
486.1438011650011
486.14925813347685
486.1547142286824
486.1601694504174
486.1656237984818
486.171077272676
486.1765298728005
486.18198159865614
486.1874324500438
486.19288242676424
486.1983315286183
486.2037797554071
486.209227106932
486.21467358299486
486.2201191833978
486.225563907943
486.2310077564329
486.23645072867015
486.2418928244576
486.2473340435983
486.2527743858954
486.258213851152
486.26365243917115
486.2690901497562
486.27452698271094
486.27996293783934
486.28539801494566
486.29083221383434
486.29626553431007
486.30169797617776
486.30712953924257
486.31256022330984
486.3179900281852
486.3234189536742
486.3288469995825
486.33427416571584
486.3397004518801
486.34512585788156
486.3505503835267
486.3559740286225
486.3613967929759
486.36681867639385
486.37223967868334
486.3776597996513
486.383079039105
486.3884973968515
486.3939148726981
486.3993314664519
486.40474717792034
486.4101620069111
486.415575953232
486.42098901669095
486.42640119709625
486.43181249425623
486.43722290797945
486.44263243807444
486.44804108434954
486.4534488466133
486.4588557246747
486.4642617183428
486.4696668274266
486.47507105173526
486.4804743910783
486.4858768452654
486.49127841410626
486.49667909741055
486.5020788949882
486.5074778066491
486.5128758322034
486.5182729714615
486.52366922423374
486.5290645903305
486.53445906956216
486.5398526617391
486.54524536667185
486.5506371841713
486.5560281140483
486.5614181561136
486.56680731017804
486.5721955760525
486.57758295354796
486.58296944247576
486.5883550426476
486.59373975387524
486.5991235759704
486.60450650874526
486.609888552012
486.61526970558333
486.62064996927205
486.6260293428913
486.63140782625413
486.6367854191739
486.6421621214644
486.64753793293966
486.6529128534136
486.6582868827008
486.6636600206156
486.6690322669726
486.67440362158635
486.67977408427186
486.685143654844
486.69051233311774
486.6958801189082
486.7012470120305
486.7066130123
486.7119781195324
486.7173423335432
486.72270565414846
486.72806808116405
486.73342961440557
486.7387902536888
486.7441499988301
486.7495088496457
486.7548668059523
486.7602238675667
486.76558003430586
486.77093530598717
486.77628968242783
486.78164316344504
486.7869957488562
486.79234743847877
486.79769823213013
486.80304812962817
486.80839713079075
486.81374523543576
486.8190924433813
486.8244387544459
486.8297841684484
486.83512868520774
486.84047230454297
486.8458150262729
486.85115685021646
486.8564977761927
486.8618378040209
486.8671769335205
486.8725151645112
486.87785249681264
486.88318893024456
486.88852446462687
486.89385909977995
486.8991928355244
486.9045256716808
486.90985760807
486.9151886445131
486.92051878083106
486.925848016845
486.9311763523762
486.93650378724595
486.9418303212755
486.9471559542864
486.9524806861004
486.9578045165394
486.96312744542564
486.96844947258154
486.97377059782997
486.97909082099403
486.98441014189683
486.9897285603619
486.9950460762129
487.00036268927323
487.0056783993668
487.01099320631755
487.01630710994976
487.0216201100879
487.02693220655664
487.0322433991809
487.03755368778565
487.04286307219576
487.04817155223617
487.05347912773226
487.0587857985092
487.0640915643923
487.069396425207
487.07470038077844
487.080003430932
487.08530557549324
487.09060681428804
487.095907147142
487.1012065738809
487.10650509433066
487.11180270831727
487.1170994156668
487.12239521620535
487.12769010975916
487.13298409615453
487.1382771752182
487.14356934677716
487.14886061065835
487.15415096668875
487.1594404146953
487.1647289545053
487.17001658594603
487.175303308845
487.1805891230296
487.1858740283271
487.1911580245646
487.1964411115695
487.2017232891696
487.2070045571924
487.2122849154659
487.2175643638181
487.22284290207716
487.2281205300712
487.23339724762826
487.23867305457674
487.24394795074494
487.24922193596143
487.254495010055
487.2597671728544
487.2650384241885
487.270308763886
487.27557819177576
487.2808467076865
487.2861143114471
487.2913810028862
487.29664678183275
487.30191164811566
487.3071756015642
487.3124386420081
487.317700769277
487.32296198320086
487.3282222836096
487.33348167033336
487.33874014320253
487.3439977020477
487.34925434669975
487.3545100769897
487.3597648927484
487.3650187938071
487.37027177999715
487.3755238511496
487.38077500709545
487.3860252476658
487.39127457269177
487.39652298200434
487.40177047543483
487.4070170528145
487.41226271397494
487.4175074587478
487.4227512869649
487.42799419845795
487.4332361930589
487.4384772705998
487.4437174309123
487.4489566738284
487.45419499917983
487.45943240679816
487.46466889651487
487.4699044681615
487.4751391215695
487.48037285657045
487.4856056729961
487.49083757067837
487.4960685494495
487.50129860914166
487.50652774958706
487.51175597061837
487.51698327206844
487.52220965376995
487.52743511555576
487.532659657259
487.53788327871274
487.5431059797501
487.5483277602045
487.5535486199091
487.5587685586974
487.5639875764029
487.5692056728596
487.574422847902
487.5796391013643
487.5848544330808
487.5900688428857
487.59528233061354
487.6004948960987
487.60570653917597
487.6109172596802
487.61612705744636
487.62133593230936
487.62654388410436
487.63175091266675
487.6369570178321
487.64216219943654
487.6473664573163
487.65256979130794
487.65777220124795
487.66297368697263
487.66817424831805
487.67337388512027
487.6785725972156
487.6837703844405
487.68896724663176
487.6941631836259
487.69935819525966
487.70455228137
487.7097454417944
487.7149376763702
487.7201289849351
487.7253193673268
487.7305088233831
487.73569735294217
487.7408849558423
487.7460716319219
487.751257381019
487.75644220297175
487.76162609761826
487.76680906479663
487.771991104345
487.77717221610163
487.78235239990516
487.78753165559436
487.79270998300825
487.79788738198584
487.80306385236617
487.8082393939887
487.81341400669265
487.8185876903173
487.8237604447019
487.82893226968594
487.83410316510884
487.8392731308101
487.844442166629
487.84961027240496
487.8547774479777
487.8599436931872
487.8651090078735
487.8702733918771
487.87543684503834
487.8805993671976
487.88576095819525
487.8909216178719
487.89608134606823
487.9012401426248
487.9063980073824
487.91155494018193
487.9167109408642
487.9218660092701
487.9270201452404
487.932173348616
487.9373256192377
487.94247695694656
487.9476273615839
487.9527768329912
487.9579253710103
487.9630729754828
487.9682196462506
487.97336538315557
487.9785101860397
487.98365405474505
487.9887969891135
487.9939389889875
487.9990800542093
488.00422018462126
488.0093593800661
488.0144976403864
488.0196349654247
488.02477135502335
488.02990680902457
488.03504132727056
488.04017490960354
488.0453075558659
488.05043926590014
488.0555700395486
488.0606998766538
488.06582877705813
488.070956740604
488.0760837671341
488.0812098564913
488.0863350085189
488.0914592230608
488.0965824999609
488.10170483906353
488.1068262402129
488.1119467032533
488.1170662280287
488.1221848143836
488.1273024621623
488.13241917120894
488.1375349413681
488.1426497724844
488.1477636644028
488.1528766169683
488.15798863002595
488.16309970342144
488.1682098370006
488.173319030609
488.17842728409227
488.18353459729605
488.18864097006616
488.1937464022487
488.19885089368967
488.2039544442354
488.20905705373247
488.2141587220273
488.21925944896674
488.22435923439747
488.22945807816626
488.2345559801201
488.23965294010594
488.2447489579708
488.2498440335616
488.25493816672537
488.2600313573093
488.26512360516057
488.27021491012664
488.27530527205516
488.280394690794
488.2854831661911
488.2905706980943
488.2956572863513
488.3007429308099
488.3058276313183
488.31091138772484
488.3159941998776
488.3210760676247
488.32615699081447
488.3312369692953
488.3363160029157
488.341394091524
488.34647123496865
488.3515474330979
488.3566226857601
488.3616969928034
488.36677035407587
488.37184276942565
488.37691423870064
488.3819847617487
488.38705433841795
488.3921229685565
488.3971906520123
488.40225738863313
488.40732317826695
488.41238802076185
488.4174519159664
488.4225148637294
488.42757686389945
488.43263791632506
488.43769802085507
488.4427571773385
488.44781538562455
488.45287264556276
488.4579289570026
488.4629843197935
488.468038733785
488.4730921988268
488.4781447147686
488.48319628146027
488.48824689875204
488.49329656649405
488.4983452845367
488.50339305273036
488.50843987092543
488.5134857389725
488.51853065672225
488.52357462402546
488.5286176407332
488.5336597066968
488.5387008217678
488.5437409857977
488.5487801986382
488.55381846014114
488.55885577015846
488.5638921285419
488.5689275351437
488.5739619898165
488.57899549241296
488.58402804278575
488.58905964078775
488.5940902862721
488.5991199790919
488.60414871910024
488.6091765061505
488.6142033400965
488.6192292207922
488.62425414809167
488.6292781218489
488.63430114191823
488.6393232081538
488.6443443204102
488.64936447854205
488.6543836824041
488.6594019318508
488.6644192267367
488.6694355669162
488.67445095224406
488.6794653825752
488.68447885776476
488.68949137766793
488.6945029421401
488.6995135510369
488.7045232042141
488.70953190152767
488.71453964283336
488.71954642798704
488.7245522568448
488.7295571292629
488.7345610450977
488.7395640042054
488.7445660064424
488.749567051665
488.75456713972966
488.7595662704927
488.7645644438107
488.7695616595399
488.7745579175366
488.77955321765734
488.7845475597589
488.7895409436978
488.79453336933074
488.799524836515
488.8045153451075
488.8095048949653
488.8144934859451
488.8194811179039
488.82446779069863
488.8294535041861
488.8344382582231
488.8394220526663
488.84440488737226
488.8493867621975
488.8543676769984
488.8593476316309
488.86432662595115
488.8693046598152
488.87428173307916
488.87925784559906
488.88423299723075
488.8892071878301
488.89418041725315
488.899152685356
488.9041239919947
488.9090943370256
488.9140637203049
488.91903214168923
488.9239996010353
488.92896609819985
488.9339316330399
488.93889620541216
488.9438598151734
488.94882246218066
488.9537841462906
488.95874486736005
488.9637046252457
488.9686634198044
488.9736212508928
488.9785781183677
488.98353402208585
488.9884889619038
488.9934429376778
488.99839594926397
489.0033479965188
489.00829907929887
489.01324919746065
489.0181983508607
489.02314653935554
489.02809376280146
489.0330400210548
489.03798531397155
489.0429296414081
489.0478730032209
489.05281539926654
489.0577568294013
489.06269729348145
489.0676367913638
489.07257532290504
489.077512887962
489.08244948639134
489.0873851180501
489.0923197827951
489.09725348048295
489.1021862109705
489.1071179741147
489.11204876977234
489.11697859780014
489.12190745805486
489.1268353503935
489.13176227467324
489.1366882307513
489.1416132184847
489.14653723773034
489.15146028834573
489.15638237018874
489.16130348311725
489.16622362698917
489.1711428016626
489.1760610069961
489.1809782428483
489.18589450907797
489.1908098055439
489.1957241321049
489.20063748861975
489.2055498749473
489.2104612909465
489.2153717364767
489.2202812113971
489.22518971556696
489.23009724884577
489.235003811093
489.23990940216794
489.24481402193004
489.249717670239
489.2546203469548
489.2595220519376
489.26442278504754
489.2693225461448
489.27422133508975
489.2791191517428
489.28401599596435
489.288911867615
489.2938067665552
489.29870069264524
489.3035936457458
489.3084856257173
489.3133766324201
489.3182666657146
489.32315572546116
489.32804381152
489.3329309237517
489.3378170620171
489.3427022261771
489.3475864160927
489.35246963162507
489.35735187263543
489.36223313898535
489.36711343053634
489.3719927471497
489.376871088687
489.3817484550099
489.38662484597984
489.391500261458
489.3963747013058
489.4012481653842
489.4061206535545
489.4109921656781
489.4158627016163
489.4207322612305
489.42560084438236
489.43046845093335
489.435335080745
489.4402007336791
489.44506540959713
489.44992910836044
489.4547918298305
489.45965357386916
489.46451434033787
489.4693741290982
489.47423294001186
489.4790907729404
489.4839476277454
489.4888035042881
489.49365840242984
489.4985123220319
489.5033652629556
489.5082172250622
489.5130682082128
489.5179182122685
489.52276723709036
489.5276152825392
489.53246234847614
489.537308434762
489.5421535412574
489.5469976678232
489.5518408143202
489.55668298060954
489.56152416655226
489.5663643720097
489.5712035968431
489.576041840914
489.5808791040842
489.58571538621544
489.59055068716947
489.59538500680827
489.6002183449936
489.60505070158723
489.60988207645113
489.6147124694473
489.6195418804377
489.6243703092843
489.6291977558489
489.63402421999325
489.63884970157955
489.64367420047
489.6484977165266
489.6533202496111
489.6581417995855
489.662962366312
489.66778194965303
489.6726005494708
489.67741816562756
489.6822347979857
489.68705044640745
489.69186511075503
489.69667879089064
489.7014914866765
489.7063031979746
489.71111392464644
489.71592366655335
489.7207324235564
489.72554019551643
489.7303469822945
489.7351527837515
489.73995759974804
489.74476143014493
489.7495642748026
489.75436613358164
489.75916700634247
489.7639668929457
489.76876579325193
489.77356370712204
489.77836063441663
489.7831565749961
489.78795152872107
489.79274549545215
489.79753847505
489.80233046737493
489.8071214722874
489.81191148964757
489.8167005193156
489.8214885611516
489.8262756150154
489.8310616807666
489.8358467582647
489.8406308473695
489.8454139479406
489.8501960598375
489.85497718291975
489.859757317047
489.8645364620788
489.8693146178745
489.87409178429374
489.8788679611959
489.8836431484405
489.88841734588726
489.89319055339564
489.89796277082513
489.902733998035
489.90750423488447
489.9122734812326
489.9170417369382
489.92180900186
489.9265752758567
489.93134055878653
489.93610485050766
489.940868150878
489.94563045975514
489.9503917769966
489.95515210245975
489.9599114360021
489.964669777481
489.96942712675394
489.97418348367836
489.9789388481117
489.9836932199111
489.98844659893365
489.99319898503626
489.9979503780759
490.00270077790964
490.0074501843944
490.0121985973869
490.01694601674416
490.0216924423232
490.02643787398046
490.03118231157276
490.0359257549564
490.0406682039874
490.04540965852215
490.05015011841664
490.054889583527
490.0596280537092
490.0643655288192
490.0691020087124
490.07383749324384
490.0785719822688
490.08330547564236
490.08803797321974
490.0927694748561
490.0974999804061
490.1022294897245
490.106958002666
490.11168551908503
490.1164120388359
490.12113756177285
490.12586208775014
490.130585616622
490.13530814824225
490.1400296824647
490.14475021914285
490.14946975813035
490.15418829928075
490.1589058424476
490.1636223874843
490.1683379342441
490.17305248258066
490.1777660323475
490.1824785833982
490.1871901355864
490.19190068876554
490.19661024278906
490.20131879751005
490.2060263527814
490.2107329084558
490.2154384643856
490.22014302042356
490.2248465764225
490.2295491322354
490.234250687715
490.2389512427141
490.2436507970851
490.24834935068037
490.2530469033522
490.2577434549525
490.2624390053331
490.26713355434566
490.2718271018418
490.27651964767296
490.2812111916907
490.2859017337466
490.29059127369186
490.2952798113776
490.2999673466549
490.30465387937505
490.30933940938934
490.31402393654906
490.31870746070575
490.32338998171093
490.3280714994161
490.33275201367286
490.3374315243329
490.3421100312482
490.3467875342705
490.3514640332516
490.35613952804323
490.36081401849714
490.36548750446485
490.37015998579744
490.374831462346
490.37950193396154
490.38417140049495
490.38883986179707
490.3935073177185
490.3981737681094
490.4028392128195
490.4075036516985
490.4121670845963
490.41682951136266
490.421490931847
490.42615134589863
490.43081075336676
490.43546915410064
490.4401265479491
490.4447829347611
490.44943831438553
490.4540926866711
490.45874605146645
490.46339840861987
490.4680497579795
490.4727000993932
490.47734943270865
490.4819977577733
490.4866450744341
490.4912913825378
490.49593668193114
490.5005809724607
490.5052242539729
490.5098665263144
490.5145077893314
490.51914804287
490.523787286776
490.52842552089504
490.5330627450725
490.5376989591534
490.54233416298274
490.54696835640533
490.5516015392656
490.55623371140786
490.56086487267606
490.56549502291404
490.5701241619658
490.57475228967513
490.5793794058856
490.5840055104406
490.58863060318316
490.59325468395645
490.5978777526033
490.6024998089667
490.6071208528894
490.61174088421416
490.6163599027836
490.62097790844035
490.6255949010271
490.6302108803863
490.6348258463604
490.6394397987917
490.64405273752254
490.6486646623955
490.6532755732535
490.65788546993963
490.66249435229724
490.6671022201699
490.6717090734012
490.67631491183465
490.68091973531386
490.6855235436824
490.69012633678403
490.6947281144628
490.69932887656296
490.70392862292874
490.70852735340463
490.71312506783534
490.7177217660658
490.7223174479409
490.72691211330607
490.73150576200715
490.7360983938902
490.74069000880127
490.7452806065867
490.74987018709294
490.75445875016703
490.7590462956557
490.76363282340594
490.7682183332647
490.772802825079
490.777386298696
490.7819687539634
490.78655019072903
490.79113060884083
490.79571000814667
490.8002883884949
490.80486574973384
490.8094420917123
490.8140174142793
490.8185917172841
490.8231650005764
490.8277372640059
490.83230850742234
490.83687873067515
490.8414479336143
490.8460161160897
490.8505832779515
490.85514941904967
490.8597145392341
490.8642786383548
490.86884171626184
490.87340377280566
490.87796480783686
490.88252482120606
490.88708381276433
490.8916417823632
490.8961987298544
490.90075465508994
490.9053095579218
490.90986343820214
490.91441629578367
490.91896813051926
490.92351894226204
490.92806873086556
490.93261749618387
490.9371652380712
490.94171195638205
490.94625765097135
490.95080232169425
490.9553459684064
490.9598885909634
490.96443018922105
490.9689707630357
490.9735103122639
490.97804883676235
490.98258633638807
490.98712281099847
490.99165826045123
490.996192684604
491.0007260833145
491.0052584564405
491.00978980384025
491.01432012537225
491.0188494208953
491.0233776902685
491.0279049333508
491.03243115000146
491.03695634008
491.0414805034459
491.0460036399588
491.05052574947854
491.05504683186496
491.059566886978
491.06408591467766
491.0686039148238
491.07312088727645
491.07763683189546
491.0821517485408
491.0866656370731
491.0911784973532
491.0956903292422
491.10020113260134
491.104710907292
491.10921965317584
491.11372737011493
491.118234057971
491.122739716606
491.1272443458822
491.131747945662
491.1362505158079
491.14075205618224
491.14525256664774
491.14975204706684
491.154250497302
491.15874791721603
491.16324430667214
491.16773966553365
491.1722339936641
491.1767272909274
491.1812195571872
491.18571079230765
491.19020099615295
491.1946901685876
491.19917830947657
491.203665418685
491.20815149607824
491.212636541522
491.21712055488183
491.2216035360236
491.22608548481344
491.2305664011176
491.23504628480237
491.2395251357341
491.24400295377905
491.24847973880355
491.25295549067414
491.25743020925756
491.2619038944208
491.2663765460313
491.270848163957
491.27531874806596
491.2797882982263
491.2842568143062
491.28872429617377
491.2931907436973
491.2976561567457
491.30212053518767
491.30658387889184
491.311046187727
491.315507461562
491.3199677002656
491.3244269037068
491.32888507175494
491.33334220427946
491.3377983011503
491.3422533622372
491.3467073874101
491.35116037653916
491.35561232949476
491.36006324614755
491.36451312636837
491.36896197002807
491.37340977699796
491.3778565471496
491.3823022803547
491.38674697648526
491.3911906354133
491.395633257011
491.40007484115085
491.40451538770503
491.40895489654577
491.41339336754527
491.41783080057553
491.42226719550854
491.42670255221674
491.4311368705726
491.4355701504485
491.4400023917169
491.44443359425054
491.448863757922
491.45329288260405
491.4577209681695
491.46214801449173
491.4665740214439
491.47099898889905
491.4754229167304
491.47984580481125
491.4842676530154
491.48868846121695
491.4931082292901
491.49752695710913
491.50194464454853
491.5063612914828
491.5107768977864
491.5151914633343
491.5196049880017
491.52401747166414
491.52842891419755
491.532839315478
491.53724867538153
491.5416569937845
491.5460642705634
491.55047050559483
491.5548756987557
491.5592798499233
491.56368295897505
491.5680850257886
491.5724860502421
491.5768860322137
491.58128497158145
491.585682868224
491.59007972202016
491.59447553284895
491.5988703005894
491.60326402512055
491.60765670632145
491.6120483440709
491.61643893824794
491.6208284887316
491.62521699540093
491.62960445813474
491.63399087681205
491.6383762513119
491.6427605815138
491.6471438672977
491.65152610854375
491.65590730513213
491.66028745694325
491.66466656385774
491.6690446257562
491.67342164251977
491.6777976140297
491.68217254016736
491.68654642081424
491.6909192558521
491.695291045163
491.6996617886293
491.704031486134
491.70840013756015
491.7127677427909
491.7171343017094
491.7214998141992
491.7258642801439
491.73022769942736
491.7345900719333
491.73895139754563
491.7433116761481
491.74767090762475
491.7520290918601
491.7563862287386
491.76074231814505
491.7650973599641
491.7694513540803
491.7738043003785
491.778156198744
491.7825070490619
491.78685685121764
491.7912056050968
491.7955533105851
491.79989996756785
491.8042455759305
491.80859013555846
491.81293364633734
491.817276108153
491.82161752089155
491.8259578844393
491.83029719868273
491.83463546350845
491.83897267880343
491.84330884445467
491.84764396034916
491.8519780263741
491.8563110424168
491.8606430083646
491.86497392410524
491.8693037895266
491.8736326045166
491.87796036896316
491.8822870827546
491.8866127457793
491.89093735792585
491.89526091908306
491.89958342913997
491.90390488798585
491.9082252955104
491.91254465160387
491.91686295615636
491.9211802090581
491.92549641019946
491.9298115594711
491.9341256567636
491.9384387019679
491.94275069497485
491.94706163567525
491.95137152396
491.95568035971996
491.9599881428462
491.96429487322985
491.9686005507622
491.9729051753345
491.9772087468384
491.98151126516564
491.9858127302082
491.9901131418578
491.9944125000063
491.9987108045457
492.0030080553679
492.0073042523652
492.0115993954298
492.01589348445395
492.0201865193301
492.0244784999509
492.028769426209
492.0330592979974
492.03734811520917
492.0416358777377
492.0459225854763
492.05020823831865
492.05449283615803
492.0587763788876
492.06305886640075
492.06734029859103
492.07162067535205
492.0758999965776
492.0801782621618
492.0844554719988
492.088731625983
492.09300672400855
492.0972807659698
492.10155375176123
492.10582568127757
492.11009655441376
492.11436637106476
492.11863513112576
492.1229028344919
492.1271694810582
492.1314350707198
492.13569960337213
492.1399630789108
492.14422549723145
492.14848685822994
492.1527471618026
492.15700640784576
492.16126459625593
492.1655217269297
492.1697777997633
492.1740328146532
492.1782867714958
492.1825396701879
492.18679151062656
492.1910422927085
492.19529201633077
492.19954068139054
492.20378828778485
492.2080348354107
492.2122803241648
492.216524753944
492.220768124645
492.22501043616467
492.2292516883997
492.2334918812469
492.23773101460347
492.2419690883669
492.2462061024346
492.25044205670406
492.25467695107295
492.2589107854394
492.2631435597018
492.2673752737585
492.27160592750806
492.2758355208491
492.28006405368046
492.28429152590115
492.28851793741023
492.292743288107
492.2969675778909
492.3011908066617
492.3054129743191
492.3096340807631
492.3138541258936
492.3180731096106
492.3222910318143
492.3265078924046
492.33072369128126
492.33493842834423
492.33915210349346
492.3433647166289
492.347576267651
492.35178675646034
492.3559961829578
492.36020454704476
492.36441184862224
492.3686180875916
492.37282326385434
492.37702737731206
492.3812304278665
492.3854324154195
492.3896333398725
492.3938332011271
492.3980319990851
492.40222973364826
492.40642640471856
492.41062201219825
492.41481655598955
492.41901003599446
492.423202452115
492.42739380425314
492.4315840923107
492.4357733161896
492.4399614757922
492.44414857102083
492.4483346017778
492.45251956796574
492.4567034694878
492.4608863062472
492.46506807814694
492.4692487850905
492.4734284269816
492.47760700372464
492.4817845152238
492.4859609613836
492.49013634210837
492.4943106573021
492.49848390686907
492.5026560907136
492.50682720874033
492.5109972608543
492.51516624696046
492.51933416696374
492.5235010207691
492.52766680828177
492.5318315294071
492.53599518405053
492.5401577721175
492.5443192935136
492.5484797481445
492.5526391359158
492.5567974567334
492.5609547105032
492.56511089713104
492.56926601652276
492.5734200685845
492.57757305322275
492.5817249703441
492.5858758198551
492.5900256016623
492.5941743156725
492.59832196179264
492.60246853993
492.6066140499918
492.61075849188524
492.61490186551805
492.6190441707977
492.62318540763135
492.6273255759263
492.63146467559
492.63560270652965
492.6397396686525
492.643875561866
492.6480103860779
492.6521441411958
492.6562768271274
492.6604084437806
492.6645389910634
492.6686684688839
492.67279687715063
492.6769242157727
492.68105048465964
492.6851756837211
492.68929981286715
492.69342287200766
492.69754486105285
492.7016657799131
492.70578562849937
492.70990440672267
492.7140221144946
492.7181387517271
492.7222543183327
492.72636881422454
492.7304822393162
492.7345945935215
492.73870587675424
492.742816088929
492.74692522996065
492.75103329976446
492.7551402982558
492.75924622535035
492.7633510809642
492.7674548650141
492.7715575774173
492.7756592180913
492.77975978695395
492.78385928392345
492.78795770891816
492.79205506185644
492.7961513426569
492.8002465512386
492.80434068752083
492.8084337514231
492.8125257428653
492.81661666176797
492.82070650805144
492.8247952816366
492.82888298244484
492.83296961039787
492.83705516541795
492.8411396474273
492.84522305634823
492.84930539210313
492.8533866546147
492.85746684380615
492.8615459596008
492.86562400192247
492.86970097069525
492.8737768658432
492.8778516872908
492.8819254349628
492.8859981087844
492.89006970868127
492.8941402345795
492.8982096864054
492.9022780640855
492.9063453675467
492.9104115967157
492.9144767515195
492.9185408318856
492.92260383774214
492.9266657690173
492.93072662563964
492.934786407538
492.9388451146417
492.94290274688024
492.9469593041829
492.95101478647916
492.95506919369905
492.9591225257727
492.96317478263063
492.9672259642034
492.97127607042194
492.9753251012171
492.9793730565202
492.98341993626286
492.9874657403766
492.9915104687934
492.99555412144605
492.9995966982676
493.00363819919176
493.0076786241523
493.011717973083
493.01575624591806
493.01979344259144
493.02382956303745
493.0278646071906
493.0318985749857
493.0359314663574
493.03996328124094
493.04399401957176
493.0480236812855
493.05205226631824
493.0560797746066
493.0601062060873
493.06413156069766
493.0681558383751
493.0721790390576
493.0762011626832
493.0802222091904
493.084242178518
493.0882610706053
493.09227888539203
493.09629562281816
493.1003112828239
493.1043258653499
493.10833937033726
493.11235179772757
493.1163631474626
493.1203734194846
493.1243826137361
493.1283907301597
493.1323977686982
493.13640372929444
493.14040861189164
493.1444124164334
493.14841514286354
493.15241679112637
493.1564173611664
493.16041685292817
493.16441526635685
493.1684126013979
493.17240885799697
493.17640403610017
493.1803981356543
493.1843911566059
493.1883830989018
493.192373962489
493.19636374731476
493.20035245332656
493.2043400804721
493.2083266286993
493.21231209795656
493.2162964881927
493.22027979935683
493.2242620313982
493.2282431842666
493.2322232579122
493.2362022522857
493.24018016733794
493.24415700302006
493.24813275928386
493.25210743608136
493.2560810333646
493.2600535510858
493.2640249891972
493.2679953476513
493.27196462640063
493.27593282539783
493.27989994459585
493.2838659839481
493.2878309434084
493.2917948229308
493.29575762246964
493.29971934197965
493.3036799814158
493.3076395407336
493.3115980198886
493.31555541883654
493.3195117375333
493.32346697593493
493.3274211339981
493.33137421167953
493.3353262089363
493.33927712572586
493.34322696200616
493.3471757177356
493.351123392873
493.3550699873772
493.3590155012075
493.3629599343237
493.3669032866858
493.3708455582539
493.3747867489883
493.3787268588494
493.38266588779766
493.38660383579395
493.3905407027996
493.3944764887765
493.3984111936868
493.40234481749326
493.4062773601586
493.4102088216455
493.4141392019171
493.4180685009371
493.42199671866956
493.42592385507874
493.4298499101294
493.433774883787
493.437698776017
493.44162158678523
493.4455433160581
493.4494639638024
493.4533835299851
493.45730201457354
493.4612194175354
493.46513573883885
493.4690509784523
493.4729651363443
493.4768782124836
493.48079020683895
493.4847011193797
493.4886109500753
493.4925196988959
493.49642736581177
493.5003339507937
493.5042394538125
493.50814387483933
493.5120472138458
493.51594947080366
493.519850645685
493.52375073846224
493.5276497491086
493.5315476775977
493.5354445239036
493.53934028800063
493.54323496986353
493.5471285694673
493.55102108678693
493.55491252179763
493.5588028744751
493.56269214479516
493.566580332734
493.570467438268
493.57435346137345
493.57823840202695
493.5821222602051
493.5860050358847
493.58988672904275
493.59376733965655
493.5976468677036
493.60152531316135
493.6054026760073
493.60927895621967
493.6131541537768
493.6170282686571
493.6209013008395
493.6247732503032
493.62864411702776
493.6325139009932
493.6363826021793
493.64025022056603
493.6441167561338
493.64798220886337
493.6518465787358
493.65570986573243
493.6595720698349
493.663433191025
493.66729322928495
493.67115218459753
493.67501005694567
493.6788668463123
493.68272255268084
493.6865771760349
493.6904307163586
493.6942831736367
493.6981345478541
493.7019848389964
493.70583404704917
493.7096821719981
493.71352921382913
493.7173751725288
493.72122004808375
493.72506384048074
493.7289065497066
493.7327481757484
493.73658871859334
493.7404281782292
493.7442665546439
493.74810384782563
493.751940057763
493.75577518444493
493.7596092278609
493.7634421880007
493.7672740648543
493.7711048584117
493.77493456866296
493.77876319559823
493.7825907392082
493.7864171994838
493.7902425764162
493.79406686999664
493.79789008021703
493.8017122070696
493.8055332505469
493.8093532106416
493.8131720873464
493.81698988065455
493.82080659055987
493.82462221705646
493.82843676013863
493.83225021980115
493.836062596039
493.8398738888475
493.8436840982222
493.84749322415905
493.8513012666542
493.85510822570404
493.8589141013049
493.86271889345335
493.866522602146
493.87032522737945
493.8741267691505
493.8779272274562
493.88172660229384
493.8855248936609
493.8893221015551
493.89311822597415
493.8969132669163
493.9007072243801
493.9045000983647
493.90829188886914
493.9120825958928
493.91587221943473
493.91966075949404
493.92344821607026
493.92723458916316
493.931019878773
493.9348040849002
493.93858720754565
493.9423692467103
493.9461502023951
493.94993007460107
493.95370886332967
493.95748656858245
493.9612631903615
493.96503872866924
493.96881318350825
493.9725865548812
493.9763588427911
493.9801300472411
493.98390016823464
493.98766920577486
493.9914371598654
493.9952040305102
493.99896981771303
494.00273452147826
494.0064981418104
494.01026067871453
494.0140221321958
494.0177825022597
494.0215417889119
494.02529999215835
494.0290571120049
494.03281314845776
494.036568101523
494.0403219712073
494.0440747575176
494.047826460461
494.05157708004504
494.0553266162776
494.05907506916697
494.06282243872147
494.06656872495
494.07031392786166
494.074058047466
494.0778010837728
494.081543036792
494.0852839065342
494.0890236930102
494.0927623962316
494.09650001621026
494.10023655295845
494.1039720064882
494.1077063768116
494.1114396639407
494.11517186788797
494.1189029886659
494.12263302628753
494.126361980766
494.1300898521147
494.1338166403473
494.13754234547764
494.14126696751987
494.1449905064883
494.14871296239767
494.15243433526325
494.15615462510027
494.15987383192464
494.1635919557525
494.1673089966
494.1710249544833
494.17473982941897
494.17845362142384
494.1821663305152
494.1858779567108
494.18958850002855
494.1932979604867
494.19700633810385
494.2007136328991
494.2044198448921
494.20812497410225
494.2118290205492
494.2155319842525
494.2192338652319
494.22293466350766
494.22663437910023
494.23033301203054
494.23403056231996
494.2377270299903
494.2414224150639
494.2451167175634
494.2488099375116
494.2525020749315
494.2561931298462
494.2598831022792
494.2635719922541
494.26725979979483
494.2709465249252
494.2746321676691
494.27831672805087
494.28200020609506
494.2856826018267
494.2893639152712
494.2930441464541
494.2967232954013
494.30040136213916
494.30407834669427
494.3077542490935
494.3114290693636
494.31510280753196
494.31877546362625
494.32244703767446
494.3261175297048
494.3297869397459
494.3334552678266
494.33712251397606
494.3407886782236
494.3444537605985
494.34811776113065
494.35178067985
494.3554425167865
494.3591032719705
494.3627629454322
494.3664215372021
494.3700790473108
494.3737354757893
494.37739082266876
494.3810450879805
494.3846982717562
494.3883503740276
494.3920013948266
494.39565133418523
494.399300192136
494.4029479687117
494.40659466394527
494.4102402778699
494.41388481051877
494.4175282619253
494.4211706321232
494.42481192114633
494.4284521290285
494.4320912558039
494.43572930150685
494.43936626617165
494.44300214983286
494.44663695252507
494.4502706742833
494.45390331514295
494.4575348751396
494.4611653543086
494.464794752686
494.46842307030806
494.4720503072115
494.4756764634333
494.4793015390105
494.4829255339805
494.486548448381
494.4901702822501
494.4937910356266
494.4974107085495
494.50102930105845
494.50464681319363
494.5082632449953
494.51187859650395
494.5154928677605
494.5191060588061
494.5227181696823
494.52632920043106
494.52993915109414
494.53354802171384
494.5371558123327
494.5407625229934
494.544368153739
494.5479727046127
494.55157617565783
494.55517856691836
494.5587798784384
494.56238011026244
494.5659792624356
494.56957733500326
494.5731743280114
494.576770241506
494.5803650755329
494.5839588301383
494.58755150536854
494.5911431012705
494.59473361789105
494.598323055277
494.60191141347536
494.6054986925335
494.6090848924989
494.6126700134196
494.6162540553437
494.6198370183197
494.62341890239645
494.6269997076229
494.63057943404806
494.63415808172135
494.6377356506923
494.64131214101076
494.6448875527267
494.64846188589013
494.65203514055156
494.6556073167619
494.65917841457235
494.66274843403426
494.666317375199
494.66988523811824
494.67345202284355
494.677017729427
494.6805823579209
494.6841459083778
494.6877083808504
494.6912697753919
494.6948300920558
494.6983893308957
494.7019474919655
494.7055045753193
494.7090605810115
494.7126155090966
494.7161693596297
494.71972213266577
494.72327382826006
494.7268244464683
494.73037398734664
494.7339224509517
494.73746983734054
494.7410161465707
494.7445613786999
494.74810553378666
494.75164861188955
494.7551906130675
494.75873153737984
494.7622713848866
494.76581015564807
494.76934784972445
494.77288446717625
494.7764200080642
494.7799544724494
494.7834878603935
494.7870201719584
494.79055140720607
494.7940815661991
494.7976106490005
494.8011386556734
494.8046655862813
494.80819144088787
494.8117162195572
494.8152399223536
494.8187625493415
494.8222841005852
494.82580457614904
494.82932397609784
494.83284230049685
494.83635954941155
494.83987572290766
494.8433908210511
494.84690484390785
494.85041779154403
494.85392966402605
494.85744046142077
494.860950183795
494.86445883121587
494.86796640375064
494.87147290146686
494.8749783244325
494.8784826727158
494.8819859463856
494.88548814551086
494.88898927016066
494.89248932040414
494.8959882963104
494.89948619794905
494.90298302538963
494.90647877870174
494.9099734579552
494.91346706321997
494.9169595945666
494.9204510520658
494.9239414357885
494.9274307458056
494.93091898218836
494.9344061450081
494.9378922343367
494.9413772502462
494.9448611928092
494.9483440620984
494.9518258581868
494.9553065811474
494.9587862310534
494.9622648079783
494.96574231199565
494.9692187431792
494.9726941016029
494.97616838734075
494.9796416004672
494.9831137410565
494.98658480918334
494.9900548049227
494.9935237283498
494.99699157954024
495.00045835856963
495.0039240655142
495.0073887004503
495.01085226345435
495.01431475460276
495.01777617397215
495.02123652163914
495.0246957976806
495.02815400217355
495.0316111351956
495.0350671968247
495.03852218713905
495.0419761062169
495.0454289541367
495.04888073097686
495.05233143681585
495.0557810717321
495.0592296358043
495.06267712911153
495.0661235517334
495.06956890375
495.0730131852415
495.0764563962882
495.07989853697063
495.08333960736945
495.08677960756586
495.090218537641
495.09365639767657
495.0970931877541
495.10052890795555
495.10396355836315
495.1073971390597
495.11082965012815
495.11426109165177
495.11769146371375
495.1211207663973
495.12454899978616
495.12797616396415
495.13140225901543
495.1348272850246
495.1382512420764
495.141674130256
495.1450959496483
495.14851670033863
495.15193638241226
495.15535499595467
495.1587725410516
495.16218901778893
495.16560442625314
495.1690187665308
495.1724320387086
495.1758442428736
495.17925537911333
495.1826654475158
495.18607444816894
495.18948238116104
495.19288924658053
495.1962950445161
495.19969977505684
495.20310343829215
495.20650603431136
495.20990756320384
495.21330802505895
495.21670741996627
495.2201057480154
495.2235030092961
495.22689920389826
495.23029433191164
495.2336883934263
495.23708138853226
495.2404733173198
495.2438641798792
495.24725397630095
495.25064270667554
495.25403037109345
495.2574169696454
495.26080250242217
495.2641869695144
495.2675703710129
495.2709527070083
495.27433397759137
495.2777141828533
495.28109332288545
495.2844713977795
495.28784840762705
495.2912243525202
495.29459923255104
495.29797304781187
495.30134579839523
495.3047174843937
495.30808810589997
495.3114576630071
495.31482615580853
495.31819358439816
495.32155994887034
495.3249252493197
495.32828948584097
495.3316526585295
495.33501476748074
495.3383758127907
495.34173579455546
495.3450947128715
495.3484525678357
495.35180935954486
495.3551650880961
495.35851975358673
495.3618733561143
495.3652258957766
495.3685773726713
495.3719277868963
495.3752771385498
495.3786254277302
495.38197265453596
495.3853188190658
495.3886639214186
495.3920079616935
495.39535093998984
495.39869285640725
495.4020337110453
495.40537350400336
495.408712235381
495.4120499052781
495.4153865137946
495.4187220610304
495.4220565470853
495.4253899720593
495.4287223360527
495.43205363916604
495.4353838815
495.43871306315555
495.4420411842341
495.44536824483725
495.4486942450669
495.45201918502494
495.45534306481363
495.45866588453555
495.46198764429323
495.4653083441892
495.4686279843261
495.471946564807
495.4752640857355
495.4785805472152
495.4818959493498
495.48521029224344
495.4885235760005
495.49183580072577
495.4951469665241
495.49845707350073
495.5017661217612
495.505074111411
495.5083810425556
495.5116869153005
495.5149917297515
495.5182954860145
495.52159818419545
495.52489982440034
495.5282004067353
495.5314999313068
495.53479839822126
495.538095807585
495.54139215950477
495.5446874540871
495.5479816914392
495.55127487166806
495.5545669948808
495.55785806118456
495.5611480706864
495.5644370234936
495.5677249197138
495.5710117594547
495.5742975428243
495.5775822699309
495.5808659408831
495.58414855578985
495.5874301147603
495.5907106179036
495.59399006532885
495.5972684571457
495.6005457934641
495.60382207439443
495.60709730004714
495.61037147053275
495.61364458596154
495.61691664644354
495.6201876520888
495.62345760300764
495.6267264993103
495.629994341107
495.63326112850837
495.6365268616248
495.6397915405671
495.64305516544596
495.64631773637234
495.64957925345766
495.65283971681333
495.656099126551
495.65935748278207
495.6626147856182
495.6658710351712
495.66912623155326
495.67238037487687
495.6756334652546
495.67888550279895
495.68213648762276
495.685386419839
495.68863529956093
495.691883126902
495.69512990197586
495.69837562489624
495.7016202957766
495.7048639147308
495.70810648187285
495.71134799731703
495.71458846117775
495.7178278735694
495.72106623460604
495.7243035444021
495.7275398030722
495.7307750107311
495.7340091674939
495.73724227347566
495.7404743287914
495.74370533355636
495.7469352878859
495.75016419189546
495.75339204570105
495.7566188494186
495.7598446031641
495.7630693070537
495.7662929612038
495.7695155657311
495.77273712075225
495.77595762638384
495.7791770827423
495.78239548994407
495.78561284810553
495.7888291573431
495.79204441777324
495.7952586295121
495.7984717926763
495.80168390738277
495.80489497374833
495.80810499188965
495.81131396192336
495.8145218839661
495.81772875813476
495.8209345845462
495.8241393633175
495.8273430945658
495.8305457784086
495.8337474149637
495.83694800434887
495.8401475466819
495.84334604208084
495.84654349066363
495.8497398925483
495.8529352478531
495.85612955669626
495.859322819196
495.86251503547055
495.8657062056384
495.86889632981797
495.87208540812776
495.875273440686
495.8784604276109
495.8816463690209
495.88483126503456
495.8880151157705
495.8911979213476
495.8943796818851
495.8975603975023
495.90074006831856
495.9039186944533
495.90709627602587
495.91027281315564
495.9134483059622
495.9166227545652
495.9197961590844
495.92296851963965
495.9261398363508
495.9293101093376
495.9324793387202
495.93564752461884
495.938814667154
495.94198076644625
495.9451458226158
495.94830983578277
495.95147280606716
495.9546347335893
495.9577956184696
495.9609554608289
495.96411426078794
495.9672720184674
495.9704287339878
495.97358440746984
495.9767390390341
495.9798926288008
495.9830451768905
495.98619668342394
495.9893471485216
495.99249657230393
495.99564495489176
495.99879229640555
496.00193859696583
496.0050838566933
496.00822807570876
496.01137125413334
496.0145133920885
496.01765448969536
496.0207945470754
496.0239335643498
496.02707154163977
496.03020847906646
496.0333443767511
496.0364792348148
496.03961305337907
496.0427458325655
496.0458775724958
496.0490082732913
496.05213793507346
496.0552665579637
496.05839414208367
496.0615206875548
496.06464619449866
496.0677706630372
496.0708940932925
496.07401648538644
496.0771378394411
496.08025815557835
496.0833774339201
496.08649567458815
496.08961287770467
496.0927290433917
496.0958441717712
496.09895826296497
496.1020713170949
496.10518333428286
496.1082943146507
496.1114042583206
496.1145131654148
496.1176210360559
496.1207278703664
496.12383366846893
496.12693843048623
496.1300421565413
496.1331448467572
496.1362465012569
496.1393471201634
496.14244670359994
496.1455452516898
496.14864276455614
496.1517392423225
496.1548346851123
496.157929093049
496.1610224662563
496.1641148048582
496.1672061089787
496.17029637874225
496.17338561427346
496.17647381569714
496.1795609831386
496.18264711672305
496.18573221657584
496.1888162828225
496.19189931558844
496.19498131499904
496.19806228117955
496.20114221425547
496.2042211143521
496.20729898159493
496.2103758161095
496.21345161802105
496.21652638745536
496.2196001245384
496.22267282939606
496.2257445021546
496.22881514294045
496.2318847518802
496.2349533291008
496.23802087472905
496.2410873888921
496.244152871717
496.2472173233309
496.2502807438609
496.2533431334341
496.2564044921776
496.25946482021845
496.2625241176838
496.26558238470034
496.26863962139464
496.2716958278936
496.2747510043239
496.2778051508121
496.28085826748475
496.2839103544684
496.28696141188993
496.2900114398765
496.29306043855513
496.2961084080532
496.29915534849783
496.3022012600163
496.3052461427362
496.3082899967851
496.3113328222905
496.31437461938003
496.3174153881814
496.32045512882223
496.32349384143004
496.3265315261324
496.32956818305684
496.3326038123312
496.33563841408295
496.3386719884397
496.3417045355293
496.34473605547964
496.3477665484188
496.3507960144748
496.3538244537758
496.3568518664499
496.35987825262487
496.3629036124289
496.3659279459903
496.3689512534372
496.37197353489796
496.37499479050075
496.3780150203738
496.38103422464565
496.3840524034449
496.3870695569003
496.3900856851408
496.3931007882952
496.39611486649255
496.3991279198617
496.4021399485316
496.4051509526314
496.40816093229
496.41116988763633
496.41417781879954
496.4171847259088
496.4201906090932
496.4231954684817
496.42619930420324
496.4292021163867
496.43220390516126
496.4352046706558
496.4382044129993
496.44120313232065
496.444200828749
496.4471975024137
496.45019315344393
496.4531877819686
496.4561813881169
496.4591739720179
496.46216553380054
496.4651560735938
496.46814559152654
496.47113408772793
496.47412156232735
496.4771080154542
496.480093447238
496.48307785780867
496.48606124729577
496.4890436158289
496.49202496353746
496.4950052905508
496.4979845969983
496.5009628830094
496.50394014871335
496.5069163942396
496.50989161971734
496.51286582527564
496.5158390110439
496.5188111771515
496.52178232372785
496.5247524509025
496.5277215588053
496.5306896475661
496.53365671731467
496.5366227681809
496.5395878002946
496.54255181378585
496.54551480878445
496.54847678542023
496.55143774382327
496.5543976841236
496.55735660645155
496.56031451093736
496.56327139771133
496.566227266904
496.5691821186458
496.57213595306735
496.57508877029886
496.5780405704709
496.5809913537141
496.5839411201596
496.5868898699382
496.58983760318097
496.5927843200186
496.59573002058187
496.5986747050015
496.6016183734082
496.60456102593275
496.60750266270566
496.6104432838574
496.6133828895188
496.6163214798207
496.6192590548942
496.62219561486995
496.6251311598787
496.62806569005124
496.6309992055185
496.63393170641143
496.63686319286126
496.6397936649994
496.64272312295725
496.64565156686604
496.6485789968567
496.65150541306
496.6544308156067
496.65735520462727
496.6602785802522
496.66320094261187
496.6661222918365
496.6690426280561
496.6719619514006
496.67488026199953
496.67779755998254
496.6807138454792
496.68362911861914
496.6865433795317
496.6894566283463
496.6923688651925
496.69528009019973
496.6981903034973
496.7010995052144
496.7040076954804
496.7069148744247
496.7098210421766
496.71272619886554
496.7156303446209
496.71853347957176
496.72143560384734
496.72433671757653
496.72723682088827
496.73013591391145
496.733033996775
496.7359310696079
496.738827132539
496.7417221856972
496.7446162292117
496.74750926321167
496.75040128782643
496.75329230318516
496.7561823094172
496.7590713066518
496.76195929501773
496.7648462746438
496.76773224565864
496.77061720819097
496.7735011623695
496.7763841083229
496.7792660461798
496.7821469760688
496.7850268981183
496.78790581245676
496.7907837192122
496.7936606185124
496.7965365104851
496.7994113952582
496.80228527295935
496.8051581437162
496.80803000765604
496.8109008649062
496.8137707155938
496.8166395598462
496.8195073977904
496.8223742295538
496.8252400552633
496.82810487504526
496.8309686890261
496.8338314973323
496.83669330009
496.83955409742543
496.8424138894645
496.845272676333
496.8481304581567
496.8509872350612
496.8538430071724
496.8566977746159
496.8595515375173
496.86240429600207
496.86525605019574
496.8681068002238
496.8709565462116
496.8738052882843
496.87665302656706
496.8794997611849
496.88234549226263
496.8851902199251
496.8880339442969
496.89087666550245
496.89371838366606
496.8965590989121
496.8993988113648
496.90223752114844
496.9050752283872
496.907911933205
496.9107476357258
496.91358233607366
496.9164160343728
496.9192487307473
496.92208042532116
496.924911118218
496.92774080956156
496.9305694994755
496.9333971880835
496.9362238755093
496.93904956187635
496.94187424730785
496.94469793192684
496.94752061585655
496.9503422992202
496.95316298214084
496.9559826647412
496.9588013471439
496.9616190294714
496.96443571184636
496.96725139439127
496.9700660772289
496.9728797604821
496.97569244427336
496.97850412872504
496.9813148139592
496.98412450009823
496.9869331872642
496.98974087557895
496.9925475651646
496.9953532561433
496.99815794863684
497.00096164276715
497.00376433865586
497.0065660364244
497.0093667361941
497.01216643808675
497.0149651422237
497.0177628487263
497.02055955771584
497.02335526931324
497.02614998363947
497.02894370081526
497.03173642096135
497.03452814419825
497.03731887064623
497.0401086004256
497.0428973336566
497.04568507045974
497.0484718109551
497.0512575552625
497.05404230350155
497.0568260557918
497.0596088122529
497.0623905730047
497.0651713381669
497.06795110785924
497.070729882201
497.0735076613114
497.0762844453093
497.0790602343134
497.08183502844236
497.0846088278147
497.0873816325484
497.090153442761
497.09292425856984
497.0956940800918
497.0984629074435
497.10123074074136
497.1039975801016
497.1067634256401
497.1095282774727
497.11229213571505
497.1150550004829
497.1178168718918
497.120577750057
497.1233376350938
497.12609652711717
497.1288544262418
497.131611332582
497.13436724625194
497.13712216736553
497.13987609603646
497.14262903237795
497.145380976503
497.14813192852444
497.15088188855475
497.1536308567065
497.15637883309205
497.15912581782345
497.1618718110128
497.164616812772
497.1673608232127
497.17010384244645
497.1728458705852
497.1755869077408
497.1783269540251
497.18106600955025
497.1838040744283
497.18654114877154
497.18927723269235
497.1920123263028
497.19474642971477
497.1974795430399
497.20021166639003
497.20294279987706
497.2056729436126
497.2084020977086
497.2111302622768
497.21385743742894
497.2165836232766
497.2193088199315
497.2220330275052
497.22475624610934
497.2274784758556
497.2301997168556
497.2329199692208
497.23563923306256
497.2383575084925
497.2410747956221
497.24379109456277
497.24650640542586
497.2492207283226
497.25193406336416
497.25464641066173
497.2573577703265
497.26006814246944
497.26277752720125
497.26548592463314
497.26819333487606
497.27089975804074
497.27360519423814
497.27630964357945
497.2790131061761
497.28171558213944
497.2844170715812
497.2871175746129
497.2898170913463
497.29251562189324
497.2952131663658
497.29790972487626
497.30060529753723
497.30329988446147
497.30599348576175
497.3086861015504
497.31137773193973
497.31406837704185
497.31675803696885
497.3194467118326
497.32213440174473
497.3248211068171
497.3275068271614
497.330191562889
497.33287531411133
497.33555808093956
497.3382398634849
497.34092066185826
497.34360047617065
497.3462793065328
497.34895715305515
497.35163401584805
497.35430989502174
497.3569847906865
497.3596587029524
497.36233163192946
497.36500357772775
497.3676745404571
497.37034452022726
497.37301351714814
497.37568153132975
497.37834856288214
497.38101461191536
497.3836796785397
497.3863437628652
497.3890068650021
497.3916689850605
497.39433012315044
497.39699027938195
497.3996494538651
497.4023076467099
497.40496485802646
497.40762108792455
497.410276336514
497.4129306039049
497.4155838902075
497.4182361955318
497.4208875199879
497.42353786368585
497.4261872267357
497.42883560924747
497.43148301133124
497.43412943309727
497.43677487465607
497.4394193361179
497.44206281759307
497.4447053191918
497.44734684102445
497.44998738320146
497.45262694583334
497.4552655290306
497.45790313290377
497.4605397575633
497.4631754031193
497.46581006968177
497.46844375736055
497.47107646626546
497.4737081965063
497.4763389481932
497.4789687214359
497.481597516344
497.4842253330273
497.48685217159573
497.48947803215924
497.49210291482814
497.4947268197129
497.4973497469241
497.4999716965722
497.5025926687679
497.50521266362216
497.507831681246
497.51044972175055
497.513066785247
497.51568287184637
497.51829798165954
497.52091211479774
497.52352527137214
497.5261374514937
497.52874865527315
497.5313588828212
497.53396813424865
497.5365764096657
497.5391837091827
497.5417900329096
497.5443953809563
497.5469997534326
497.5496031504483
497.5522055721135
497.55480701853844
497.5574074898334
497.56000698610865
497.5626055074745
497.56520305404115
497.56779962591895
497.57039522321793
497.57298984604813
497.5755834945196
497.57817616874263
497.5807678688275
497.5833585948842
497.5859483470226
497.58853712535256
497.5911249299836
497.59371176102536
497.5962976185872
497.59888250277845
497.60146641370807
497.60404935148495
497.6066313162178
497.60921230801546
497.6117923269869
497.61437137324106
497.616949446887
497.61952654803395
497.62210267679075
497.6246778332661
497.6272520175685
497.62982522980633
497.6323974700881
497.63496873852205
497.6375390352164
497.64010836027956
497.64267671382004
497.6452440959465
497.6478105067679
497.6503759463933
497.65294041493166
497.6555039124919
497.6580664391829
497.6606279951136
497.6631885803931
497.6657481951306
497.6683068394352
497.6708645134163
497.67342121718343
497.6759769508458
497.6785317145127
497.68108550829334
497.6836383322968
497.6861901866323
497.68874107140914
497.69129098673693
497.69383993272504
497.69638790948284
497.69893491711923
497.70148095574314
497.70402602546346
497.7065701263891
497.70911325862903
497.7116554222921
497.71419661748723
497.7167368443231
497.71927610290845
497.72181439335213
497.72435171576285
497.72688807024883
497.7294234569183
497.7319578758795
497.73449132724045
497.7370238111091
497.73955532759373
497.7420858768023
497.7446154588429
497.74714407382294
497.74967172184984
497.7521984030309
497.7547241174732
497.7572488652838
497.7597726465697
497.76229546143713
497.7648173099924
497.76733819234164
497.7698581085908
497.7723770588459
497.77489504321306
497.7774120617985
497.7799281147079
497.7824432020466
497.7849573239198
497.7874704804326
497.78998267169004
497.79249389779716
497.795004158859
497.79751345498016
497.800021786265
497.80252915281767
497.8050355547425
497.8075409921437
497.8100454651251
497.8125489737904
497.8150515182431
497.81755309858636
497.82005371492323
497.8225533673567
497.8250520559898
497.82754978092544
497.8300465422665
497.8325423401154
497.83503717457484
497.837531045747
497.8400239537343
497.8425158986388
497.8450068805623
497.84749689960654
497.8499859558726
497.85247404946153
497.8549611804742
497.85744734901164
497.85993255517496
497.86241679906516
497.86490008078295
497.8673824004286
497.86986375810216
497.87234415390367
497.8748235879334
497.8773020602914
497.87977957107773
497.88225612039196
497.8847317083332
497.88720633500066
497.8896800004932
497.8921527049095
497.89462444834845
497.8970952309083
497.8995650526875
497.90203391378446
497.90450181429816
497.9069687543277
497.9094347339722
497.91189975333106
497.91436381250384
497.91682691159036
497.9192890506907
497.92175022990506
497.92421044933377
497.9266697090773
497.9291280092364
497.93158534991204
497.9340417312056
497.9364971532187
497.938951616053
497.9414051198101
497.94385766459214
497.94630925050143
497.94875987764004
497.95120954611053
497.9536582560157
497.95610600745846
497.9585528005421
497.9609986353699
497.9634435120452
497.96588743067156
497.9683303913528
497.97077239419315
497.9732134392969
497.97565352676867
497.9780926567133
497.98053082923576
497.9829680444412
497.98540430243503
497.9878396033228
497.9902739472107
497.9927073342047
497.9951397644109
497.99757123793603
498.0000017548869
498.0024313153704
498.0048599194934
498.00728756736277
498.00971425908534
498.01213999476823
498.014564774519
498.01698859844515
498.01941146665473
498.0218333792562
498.0242543363582
498.0266743380694
498.02909338449905
498.0315114757562
498.03392861195044
498.03634479319163
498.0387600195898
498.041174291255
498.0435876082975
498.04599997082806
498.0484113789574
498.05082183279643
498.0532313324566
498.05563987804936
498.0580474696863
498.0604541074793
498.06285979154046
498.06526452198233
498.0676682989179
498.07007112246
498.07247299272154
498.07487390981584
498.0772738738563
498.0796728849569
498.0820709432317
498.0844680487949
498.0868642017609
498.0892594022442
498.09165365035966
498.0940469462226
498.0964392899485
498.09883068165306
498.1012211214523
498.10361060946235
498.1059991457997
498.10838673058066
498.1107733639222
498.11315904594136
498.11554377675594
498.11792755648395
498.1203103852434
498.1226922631525
498.1250731903297
498.12745316689353
498.1298321929624
498.132210268655
498.13458739409003
498.1369635693864
498.1393387946633
498.14171307003977
498.14408639563527
498.14645877156937
498.1488301979619
498.1512006749327
498.15357020260177
498.15593878108945
498.1583064105162
498.1606730910026
498.1630388226691
498.1654036056364
498.16776744002533
498.1701303259568
498.172492263552
498.17485325293234
498.1772132942195
498.1795723875351
498.1819305330012
498.1842877307402
498.18664398087463
498.1889992835275
498.191353638822
498.19370704688146
498.19605950782926
498.1984110217889
498.20076158888384
498.20311120923753
498.2054598829737
498.2078076102162
498.21015439108925
498.2125002257172
498.2148451142246
498.21718905673634
498.2195320533777
498.22187410427415
498.22421520955123
498.2265553693347
498.22889458375045
498.23123285292496
498.23357017698487
498.2359065560573
498.2382419902693
498.2405764797482
498.24291002462184
498.2452426250184
498.2475742810664
498.2499049928943
498.25223476063053
498.2545635844038
498.25689146434325
498.2592184005783
498.2615443932387
498.2638694424548
498.26619354835685
498.26851671107494
498.27083893073956
498.2731602074817
498.2754805414325
498.27779993272344
498.28011838148615
498.2824358878523
498.28475245195347
498.2870680739216
498.28938275388856
498.29169649198667
498.29400928834826
498.2963211431059
498.29863205639236
498.30094202834067
498.30325105908383
498.3055591487551
498.3078662974879
498.310172505416
498.3124777726733
498.31478209939365
498.3170854857115
498.31938793176124
498.32168943767743
498.3239900035945
498.32628962964674
498.32858831596883
498.3308860626956
498.33318286996206
498.3354787379033
498.33777366665464
498.34006765635155
498.34236070712956
498.3446528191244
498.34694399247184
498.3492342273076
498.35152352376764
498.3538118819884
498.35609930210654
498.3583857842587
498.36067132858176
498.36295593521305
498.36523960429014
498.3675223359506
498.36980413033217
498.3720849875727
498.3743649078104
498.37664389118373
498.37892193783165
498.3811990478933
498.3834752215078
498.3857504588146
498.3880247599532
498.39029812506357
498.39257055428567
498.3948420477598
498.3971126056268
498.3993822280275
498.4016509151032
498.403918666995
498.40618548384447
498.40845136579316
498.41071631298274
498.4129803255551
498.4152434036526
498.41750554741776
498.4197667569934
498.4220270325225
498.4242863741484
498.426544782014
498.4288022562626
498.4310587970379
498.4333144044836
498.43556907874364
498.4378228199619
498.44007562828284
498.4423275038508
498.4445784468101
498.44682845730546
498.44907753548165
498.451325681484
498.45357289545797
498.45581917754913
498.4580645279032
498.4603089466662
498.4625524339843
498.4647949900041
498.4670366148728
498.4692773087375
498.4715170717455
498.4737559040446
498.4759938057828
498.4782307771084
498.4804668181699
498.48270192911565
498.4849361100942
498.4871693612541
498.48940168274413
498.49163307471355
498.4938635373115
498.4960930706873
498.4983216749909
498.5005493503723
498.50277609698156
498.505001914969
498.50722680448513
498.5094507656807
498.51167379870645
498.5138959037129
498.5161170808511
498.51833733027235
498.5205566521286
498.522775046572
498.5249925137546
498.5272090538288
498.52942466694714
498.5316393532624
498.5338531129276
498.53606594609624
498.538277852922
498.5404888335591
498.5426988881621
498.5449080168858
498.5471162198856
498.5493234973167
498.5515298493345
498.55373527609464
498.55593977775294
498.55814335446536
498.56034600638833
498.5625477336785
498.5647485364928
498.5669484149881
498.56914736932146
498.5713453996505
498.57354250613304
498.5757386889266
498.5779339481888
498.5801282840774
498.58232169675017
498.58451418636497
498.5867057530798
498.5888963970529
498.5910861184428
498.5932749174079
498.59546279410694
498.59764974869887
498.59983578134285
498.60202089219825
498.6042050814245
498.6063883491809
498.6085706956274
498.6107521209238
498.6129326252299
498.61511220870585
498.6172908715121
498.6194686138095
498.6216454357589
498.62382133752186
498.62599631925974
498.6281703811342
498.630343523307
498.63251574593966
498.6346870491944
498.6368574332333
498.6390268982187
498.64119544431315
498.6433630716793
498.64552978047965
498.64769557087703
498.64986044303447
498.6520243971152
498.65418743328297
498.65634955170145
498.6585107525346
498.66067103594656
498.66283040210175
498.66498885116454
498.6671463832993
498.66930299867073
498.6714586974436
498.6736134797832
498.6757673458549
498.677920295824
498.68007232985593
498.68222344811653
498.68437365077153
498.6865229379867
498.6886713099282
498.69081876676233
498.69296530865546
498.69511093577427
498.69725564828565
498.6993994463567
498.7015423301546
498.70368429984666
498.70582535560044
498.7079654975833
498.7101047259628
498.7122430409068
498.71438044258304
498.71651693115956
498.71865250680486
498.7207871696872
498.72292091997457
498.7250537578355
498.7271856834382
498.72931669695123
498.731446798543
498.73357598838203
498.735704266637
498.7378316334769
498.73995808907085
498.74208363358804
498.7442082671976
498.746331990069
498.7484548023718
498.75057670427583
498.7526976959512
498.75481777756823
498.75693694929765
498.75905521131045
498.76117256377785
498.7632890068708
498.7654045407606
498.7675191656181
498.7696328816149
498.7717456889225
498.77385758771317
498.77596857815917
498.7780786604331
498.78018783470753
498.7822961011553
498.78440345994915
498.78650991126216
498.7886154552676
498.7907200921389
498.7928238220498
498.7949266451745
498.79702856168757
498.7991295717637
498.8012296755779
498.80332887330525
498.8054271651209
498.80752455119983
498.8096210317174
498.8117166068492
498.8138112767709
498.8159050416585
498.817997901688
498.8200898570354
498.82218090787666
498.8242710543878
498.8263602967448
498.82844863512383
498.83053606970117
498.8326226006532
498.83470822815667
498.8367929523882
498.83887677352465
498.84095969174297
498.8430417072198
498.8451228201321
498.8472030306569
498.8492823389718
498.8513607452547
498.8534382496833
498.8555148524354
498.85759055368914
498.85966535362246
498.86173925241366
498.8638122502412
498.8658843472836
498.8679555437191
498.870025839726
498.87209523548273
498.87416373116804
498.87623132696086
498.87829802304014
498.88036381958483
498.8824287167741
498.8844927147873
498.88655581380414
498.8886180140042
498.89067931556707
498.89273971867243
498.8947992234999
498.8968578302293
498.89891553904073
498.9009723501143
498.90302826363023
498.9050832797689
498.90713739871086
498.9091906206368
498.91124294572757
498.91329437416385
498.91534490612645
498.9173945417961
498.9194432813536
498.92149112497947
498.92353807285446
498.92558412515956
498.92762928207554
498.9296735437834
498.93171691046433
498.9337593822998
498.93580095947146
498.937841642161
498.9398814305503
498.9419203248213
498.9439583251561
498.94599543173723
498.9480316447476
498.9500669643699
498.9521013907873
498.95413492418294
498.9561675647404
498.95819931264333
498.9602301680757
498.9622601312215
498.96428920226487
498.96631738138973
498.9683446687803
498.9703710646209
498.97239656909625
498.9744211823909
498.97644490468934
498.9784677361761
498.9804896770359
498.9825107274531
498.98453088761204
498.9865501576972
498.9885685378927
498.9905860283828
498.9926026293518
498.9946183409846
498.9966331634658
498.9986470969798
499.0006601417111
499.00267229784396
499.00468356556286
499.0066939450522
499.0087034364963
499.0107120400797
499.01271975598644
499.01472658440076
499.0167325255068
499.0187375794888
499.02074174653086
499.0227450268174
499.02474742053306
499.0267489278627
499.02874954899136
499.03074928410416
499.0327481333862
499.0347460970227
499.0367431751991
499.03873936810083
499.0407346759135
499.0427290988228
499.04472263701456
499.0467152906745
499.04870705998843
499.0506979451423
499.0526879463226
499.0546770637157
499.0566652975086
499.0586526478883
499.0606391150423
499.0626246991579
499.06460940042217
499.06659321902254
499.06857615514633
499.0705582089807
499.07253938071295
499.0745196705305
499.0764990786209
499.07847760517194
499.0804552503715
499.0824320144075
499.08440789746834
499.08638289974243
499.0883570214185
499.0903302626853
499.09230262373154
499.0942741047459
499.0962447059174
499.0982144274349
499.1001832694872
499.102151232263
499.1041183159512
499.10608452074104
499.1080498468214
499.1100142943813
499.11197786360964
499.1139405546956
499.11590236782837
499.1178633031971
499.1198233609908
499.1217825413983
499.1237408446089
499.12569827081194
499.1276548201968
499.12961049295296
499.13156528926953
499.13351920933593
499.13547225334133
499.13742442147515
499.13937571392677
499.1413261308856
499.1432756725413
499.1452243390839
499.1471721307037
499.1491190475911
499.15106508993637
499.15301025793
499.1549545517624
499.156897971624
499.15884051770564
499.16078219019784
499.1627229892911
499.16466291517605
499.1666019680429
499.1685401480823
499.17047745548444
499.1724138904397
499.1743494531382
499.1762841437697
499.17821796252434
499.18015090959267
499.1820829851652
499.18401418943273
499.1859445225862
499.1878739848167
499.18980257631534
499.1917302972732
499.19365714788097
499.1955831283295
499.1975082388097
499.1994324795126
499.20135585062945
499.20327835235145
499.2051999848698
499.20712074837576
499.2090406430603
499.2109596691144
499.2128778267293
499.21479511609624
499.21671153740664
499.2186270908522
499.22054177662454
499.22245559491563
499.2243685459171
499.22628062982045
499.2281918468171
499.2301021970987
499.2320116808567
499.2339202982826
499.23582804956783
499.2377349349038
499.239640954482
499.2415461084939
499.2434503971311
499.2453538205853
499.24725637904845
499.24915807271265
499.2510589017705
499.25295886641453
499.2548579668376
499.25675620323256
499.2586535757917
499.2605500847072
499.2624457301711
499.26434051237544
499.26623443151226
499.2681274877735
499.270019681351
499.27191101243676
499.2738014812226
499.2756910879005
499.2775798326625
499.27946771570083
499.28135473720755
499.2832408973748
499.28512619639474
499.2870106344595
499.28889421176115
499.29077692849165
499.2926587848429
499.2945397810068
499.296419917175
499.298299193539
499.3001776102902
499.30205516762027
499.3039318657209
499.30580770478406
499.30768268500134
499.30955680656444
499.31143006966505
499.31330247449483
499.31517402124547
499.31704471010863
499.31891454127623
499.3207835149404
499.322651631293
499.32451889052624
499.3263852928324
499.3282508384037
499.33011552743216
499.33197936011044
499.33384233663134
499.33570445718766
499.33756572197245
499.33942613117875
499.3412856849996
499.34314438362804
499.34500222725734
499.34685921608076
499.34871535029157
499.35057063008327
499.35242505564935
499.3542786271831
499.3561313448777
499.3579832089268
499.35983421952375
499.3616843768621
499.3635336811354
499.36538213253726
499.3672297312615
499.3690764775018
499.3709223714521
499.37276741330635
499.3746116032583
499.37645494150144
499.37829742822925
499.3801390636352
499.3819798479129
499.3838197812557
499.3856588638574
499.3874970959119
499.3893344776132
499.391171009155
499.39300669073106
499.3948415225348
499.3966755047598
499.3985086375997
499.4003409212483
499.4021723558995
499.40400294174725
499.4058326789855
499.40766156780825
499.4094896084094
499.41131680098266
499.41314314572134
499.4149686428187
499.4167932924682
499.4186170948636
499.4204400501988
499.4222621586678
499.42408342046457
499.425903835783
499.4277234048171
499.4295421277605
499.431360004807
499.43317703615054
499.4349932219848
499.4368085625036
499.4386230579003
499.4404367083685
499.4422495141019
499.44406147529395
499.4458725921382
499.4476828648281
499.4494922935574
499.4513008785198
499.4531086199091
499.4549155179189
499.456721572743
499.4585267845751
499.46033115360893
499.4621346800382
499.46393736405645
499.46573920585735
499.46754020563463
499.4693403635818
499.47113967989213
499.4729381547591
499.4747357883762
499.476532580937
499.47832853263463
499.48012364366224
499.48191791421283
499.4837113444797
499.4855039346558
499.4872956849343
499.4890865955081
499.49087666657016
499.4926658983132
499.4944542909298
499.4962418446126
499.49802855955437
499.49981443594794
499.5015994739861
499.5033836738617
499.5051670357678
499.5069495598976
499.50873124644414
499.5105120956003
499.5122921075586
499.51407128251145
499.51584962065095
499.51762712216924
499.51940378725845
499.5211796161107
499.5229546089179
499.524728765872
499.52650208716483
499.5282745729881
499.5300462235335
499.5318170389924
499.53358701955614
499.53535616541586
499.5371244767628
499.5388919537882
499.5406585966833
499.54242440563945
499.5441893808482
499.5459535225012
499.5477168307901
499.54947930590635
499.5512409480414
499.553001757387
499.55476173413473
499.5565208784761
499.5582791906027
499.5600366707061
499.56179331897744
499.56354913560773
499.56530412078797
499.5670582747094
499.56881159756296
499.5705640895397
499.5723157508308
499.57406658162773
499.57581658212194
499.57756575250465
499.5793140929671
499.5810616037002
499.58280828489507
499.5845541367424
499.58629915943317
499.5880433531584
499.5897867181091
499.5915292544765
499.59327096245175
499.59501184222614
499.59675189399064
499.598491117936
499.60022951425304
499.6019670831325
499.60370382476486
499.60543973934074
499.60717482705064
499.6089090880851
499.6106425226349
499.61237513089105
499.61410691304496
499.6158378692881
499.6175679998119
499.6192973048081
499.6210257844685
499.62275343898506
499.6244802685499
499.6262062733552
499.62793145359325
499.62965580945666
499.63137934113803
499.6331020488297
499.63482393272426
499.6365449930145
499.6382652298933
499.63998464355365
499.6417032341888
499.64342100199207
499.6451379471567
499.64685406987616
499.6485693703442
499.6502838487548
499.65199750530184
499.65371034017954
499.6554223535823
499.65713354570477
499.6588439167418
499.66055346688864
499.6622621963407
499.66397010529346
499.66567719394294
499.66738346248513
499.66908891111626
499.6707935400328
499.6724973494311
499.674200339508
499.6759025104603
499.6776038624849
499.67930439577896
499.6810041105401
499.6827030069658
499.68440108525425
499.6860983456034
499.6877947882113
499.68949041327625
499.69118522099694
499.69287921157235
499.69457238520164
499.696264742084
499.69795628241883
499.699647006406
499.70133691424536
499.703026006137
499.70471428228103
499.70640174287774
499.70808838812746
499.7097742182305
499.7114592333872
499.71314343379805
499.71482681966364
499.7165093911845
499.7181911485612
499.71987209199466
499.7215522216862
499.72323153783697
499.72491004064847
499.72658773032236
499.72826460706034
499.7299406710643
499.73161592253615
499.7332903616778
499.73496398869116
499.73663680377814
499.73830880714087
499.7399799989817
499.74165037950326
499.74331994890855
499.74498870740064
499.7466566551828
499.7483237924585
499.7499901194313
499.75165563630463
499.7533203432825
499.75498424056906
499.75664732836873
499.75830960688614
499.75997107632617
499.76163173689366
499.7632915887935
499.7649506322303
499.76660886740893
499.7682662945347
499.769922913813
499.77157872544905
499.77323372964867
499.77488792661785
499.7765413165628
499.7781938996898
499.7798456762055
499.7814966463164
499.7831468102291
499.78479616815076
499.78644472028856
499.7880924668496
499.7897394080408
499.7913855440689
499.7930308751407
499.79467540146317
499.79631912324345
499.7979620406887
499.7996041540062
499.8012454634034
499.8028859690881
499.8045256712683
499.80616457015213
499.8078026659476
499.8094399588629
499.81107644910645
499.8127121368862
499.81434702241023
499.8159811058868
499.81761438752443
499.81924686753206
499.8208785461189
499.8225094234943
499.82413949986795
499.8257687754497
499.8273972504499
499.82902492507884
499.83065179954684
499.832277874064
499.83390314884065
499.8355276240873
499.83715130001457
499.83877417683294
499.840396254753
499.84201753398526
499.84363801474007
499.8452576972282
499.8468765816604
499.8484946682477
499.85011195720114
499.85172844873165
499.85334414305026
499.854959040368
499.85657314089605
499.85818644484567
499.8597989524283
499.86141066385545
499.8630215793385
499.864631699089
499.8662410233183
499.86784955223817
499.86945728606025
499.8710642249965
499.87267036925874
499.87427571905897
499.87588027460885
499.8774840361198
499.87908700380336
499.8806891778709
499.8822905585342
499.8838911460048
499.88549094049455
499.88708994221525
499.8886881513791
499.8902855681982
499.8918821928849
499.89347802565186
499.8950730667114
499.89666731627614
499.8982607745589
499.89985344177245
499.9014453181299
499.9030364038443
499.90462669912887
499.9062162041967
499.90780491926085
499.90939284453435
499.91097998023025
499.91256632656183
499.9141518837426
499.91573665198604
499.9173206315059
499.9189038225159
499.9204862252298
499.9220678398613
499.9236486666244
499.9252287057332
499.9268079574022
499.9283864218458
499.9299640992786
499.9315409899153
499.9331170939702
499.93469241165764
499.93626694319215
499.9378406887884
499.9394136486613
499.9409858230254
499.94255721209566
499.94412781608713
499.9456976352149
499.9472666696939
499.94883491973934
499.95040238556663
499.9519690673913
499.9535349654289
499.955100079895
499.9566644110051
499.958227958975
499.95979072402093
499.9613527063594
499.9629139062068
499.9644743237796
499.9660339592943
499.9675928129673
499.96915088501515
499.97070817565424
499.97226468510104
499.973820413572
499.97537536128385
499.97692952845324
499.9784829152971
499.9800355220323
499.9815873488761
499.9831383960457
499.9846886637586
499.9862381522324
499.9877868616848
499.989334792334
499.9908819443979
499.99242831809494
499.9939739136433
499.99551873126126
499.9970627711671
499.9986060335794
500.00014851871657
500.00169022679717
500.0032311580397
500.0047713126631
500.0063106908863
500.00784929292837
500.0093871190082
500.0109241693447
500.01246044415694
500.01399594366404
500.0155306680852
500.0170646176396
500.0185977925467
500.02013019302586
500.021661819297
500.0231926715799
500.024722750095
500.0262520550628
500.02778058670407
500.0293083452396
500.03083533089017
500.0323615438768
500.0338869844207
500.03541165274333
500.0369355490664
500.0384586736114
500.0399810265997
500.0415026082531
500.043023418793
500.04454345844084
500.04606272741813
500.04758122594654
500.049098954248
500.0506159125444
500.0521321010579
500.05364752001066
500.0551621696248
500.05667605012223
500.0581891617251
500.0597015046556
500.06121307913605
500.06272388538883
500.06423392363655
500.0657431941016
500.06725169700627
500.0687594325728
500.0702664010233
500.0717726025801
500.07327803746585
500.07478270590315
500.0762866081148
500.07778974432387
500.0792921147534
500.0807937196267
500.082294559167
500.0837946335981
500.08529394314365
500.0867924880277
500.0882902684746
500.0897872847086
500.09128353695365
500.0927790254337
500.09427375037245
500.0957677119937
500.09726091052136
500.0987533461794
500.1002450191921
500.10173592978373
500.10322607817903
500.10471546460263
500.1062040892792
500.1076919524333
500.1091790542894
500.1106653950722
500.1121509750065
500.1136357943172
500.11511985322915
500.11660315196724
500.11808569075635
500.11956746982133
500.1210484893873
500.12252874967913
500.1240082509219
500.125486993341
500.1269649771619
500.1284422026102
500.12991866991166
500.1313943792921
500.13286933097726
500.1343435251932
500.1358169621663
500.1372896421231
500.13876156529005
500.1402327318934
500.1417031421593
500.14317279631433
500.1446416945849
500.14610983719746
500.1475772243787
500.1490438563554
500.1505097333541
500.1519748556016
500.1534392233246
500.1549028367497
500.15636569610393
500.15782780161413
500.15928915350725
500.1607497520104
500.1622095973508
500.16366868975575
500.16512702945266
500.1665846166689
500.16804145163184
500.1694975345691
500.1709528657082
500.17240744527686
500.1738612735024
500.1753143506124
500.1767666768347
500.1782182523969
500.1796690775266
500.18111915245123
500.18256847739787
500.1840170525939
500.1854648782667
500.1869119546437
500.18835828195216
500.1898038604198
500.1912486902739
500.19269277174163
500.1941361050502
500.19557869042666
500.19702052809845
500.1984616182929
500.19990196123746
500.2013415571594
500.2027804062862
500.2042185088449
500.20565586506274
500.2070924751668
500.20852833938426
500.209963457942
500.211397831067
500.21283145898616
500.21426434192637
500.21569648011456
500.21712787377766
500.2185585231426
500.21998842843624
500.2214175898858
500.2228460077184
500.22427368216137
500.22570061344237
500.22712680178876
500.2285522474279
500.2299769505874
500.2314009114951
500.2328241303788
500.23424660746633
500.2356683429853
500.2370893371631
500.2385095902271
500.23992910240446
500.2413478739225
500.24276590500887
500.24418319589114
500.2455997467969
500.2470155579536
500.24843062958854
500.2498449619291
500.25125855520247
500.25267140963575
500.2540835254561
500.2554949028907
500.25690554216686
500.2583154435118
500.25972460715235
500.2611330333153
500.262540722227
500.26394767411404
500.265353889203
500.2667593677207
500.2681641098937
500.2695681159483
500.2709713861107
500.272373920607
500.2737757196631
500.27517678350506
500.27657711235867
500.27797670644946
500.27937556600324
500.28077369124554
500.28217108240193
500.28356773969796
500.2849636633592
500.2863588536109
500.2877533106783
500.28914703478614
500.29054002615936
500.2919322850228
500.29332381160117
500.29471460611904
500.2961046688011
500.29749399987173
500.29888259955516
500.30027046807555
500.3016576056571
500.30304401252425
500.3044296889014
500.30581463501295
500.30719885108334
500.308582337337
500.3099650939983
500.31134712129193
500.3127284194425
500.3141089886745
500.31548882921226
500.31686794128
500.31824632510194
500.319623980902
500.3210009089044
500.32237710933356
500.3237525824139
500.3251273283698
500.3265013474257
500.327874639806
500.32924720573493
500.33061904543666
500.33199015913516
500.33336054705416
500.3347302094174
500.3360991464486
500.3374673583715
500.33883484540985
500.34020160778715
500.3415676457269
500.34293295945264
500.34429754918784
500.34566141515626
500.3470245575816
500.34838697668766
500.3497486726979
500.35110964583606
500.35246989632566
500.35382942438997
500.35518823025205
500.35654631413473
500.35790367626106
500.3592603168541
500.3606162361369
500.3619714343325
500.3633259116637
500.3646796683534
500.36603270462416
500.3673850206986
500.3687366167995
500.3700874931499
500.37143764997273
500.37278708749096
500.37413580592744
500.375483805505
500.37683108644643
500.3781776489746
500.3795234933121
500.3808686196815
500.38221302830544
500.3835567194065
500.38489969320705
500.38624194992946
500.3875834897961
500.3889243130291
500.39026441985067
500.3916038104829
500.39294248514767
500.3942804440665
500.39561768746063
500.39695421555126
500.39829002855964
500.3996251267068
500.4009595102137
500.4022931793016
500.40362613419194
500.40495837510576
500.40628990226384
500.40762071588694
500.40895081619584
500.41028020341156
500.41160887775465
500.41293683944565
500.4142640887049
500.4155906257527
500.41691645080897
500.41824156409376
500.41956596582696
500.42088965622844
500.42221263551806
500.4235349039157
500.424856461641
500.4261773089136
500.42749744595295
500.4288168729784
500.43013559020943
500.43145359786564
500.4327708961667
500.434087485332
500.4354033655807
500.4367185371321
500.4380330002053
500.43934675501947
500.44065980179363
500.4419721407465
500.44328377209655
500.44459469606255
500.4459049128632
500.44721442271754
500.448523225844
500.4498313224611
500.45113871278687
500.45244539703964
500.45375137543743
500.4550566481981
500.4563612155392
500.4576650776781
500.45896823483196
500.4602706872179
500.4615724350527
500.4628734785527
500.4641738179342
500.46547345341315
500.4667723852054
500.46807061352666
500.46936813859276
500.4706649606192
500.4719610798216
500.4732564964152
500.4745512106154
500.4758452226375
500.47713853269653
500.47843114100743
500.47972304778506
500.48101425324404
500.4823047575988
500.4835945610633
500.48488366385124
500.48617206617615
500.48745976825177
500.4887467702918
500.4900330725098
500.4913186751192
500.49260357833333
500.4938877823652
500.4951712874277
500.4964540937331
500.49773620149364
500.4990176109214
500.5002983222283
500.501578335626
500.5028576513262
500.50413626954065
500.50541419048096
500.50669141435884
500.50796794138574
500.50924377177313
500.51051890573245
500.5117933434752
500.5130670852125
500.5143401311555
500.5156124815151
500.5168841365019
500.5181550963262
500.5194253611981
500.5206949313277
500.52196380692504
500.52323198820005
500.5244994753626
500.52576626862225
500.52703236818826
500.5282977742698
500.5295624870758
500.530826506815
500.5320898336959
500.53335246792705
500.53461440971665
500.5358756592728
500.5371362168033
500.53839608251593
500.5396552566186
500.5409137393188
500.54217153082396
500.5434286313412
500.54468504107746
500.54594076023983
500.547195789035
500.5484501276697
500.5497037763508
500.55095673528496
500.5522090046789
500.55346058473907
500.5547114756719
500.5559616776837
500.5572111909806
500.55846001576884
500.5597081522545
500.56095560064324
500.5622023611409
500.56344843395306
500.56469381928497
500.5659385173415
500.56718252832735
500.5684258524471
500.56966848990515
500.57091044090595
500.57215170565365
500.57339228435245
500.5746321772063
500.5758713844189
500.57710990619404
500.57834774273516
500.57958489424533
500.58082136092736
500.58205714298384
500.58329224061714
500.5845266540296
500.58576038342386
500.58699342900246
500.588225790968
500.58945746952287
500.5906884648694
500.59191877720974
500.5931484067458
500.5943773536795
500.5956056182127
500.5968332005471
500.5980601008842
500.59928631942495
500.6005118563699
500.6017367119194
500.6029608862735
500.60418437963204
500.6054071921947
500.60662932416113
500.6078507757307
500.6090715471028
500.6102916384769
500.61151105005234
500.61272978202857
500.61394783460474
500.6151652079798
500.6163819023523
500.6175979179207
500.61881325488326
500.6200279134378
500.6212418937819
500.622455196113
500.6236678206281
500.6248797675244
500.62609103699884
500.6273016292478
500.6285115444678
500.62972078285503
500.6309293446055
500.6321372299147
500.633344438978
500.63455097199045
500.6357568291467
500.6369620106414
500.6381665166694
500.63937034742554
500.64057350310446
500.64177598390035
500.64297779000714
500.64417892161856
500.6453793789281
500.6465791621295
500.64777827141603
500.6489767069805
500.65017446901544
500.6513715577133
500.6525679732661
500.6537637158661
500.65495878570533
500.6561531829755
500.6573469078681
500.6585399605743
500.65973234128506
500.6609240501912
500.6621150874833
500.66330545335137
500.66449514798506
500.66568417157356
500.6668725243056
500.6680602063696
500.66924721795414
500.67043355924744
500.67161923043733
500.6728042317114
500.67398856325696
500.6751722252614
500.67635521791186
500.67753754139545
500.67871919589885
500.6799001816085
500.6810804987106
500.6822601473912
500.68343912783604
500.68461744023085
500.6857950847612
500.6869720616126
500.6881483709706
500.68932401302055
500.6904989879475
500.691673295936
500.6928469371704
500.6940199118347
500.6951922201127
500.69636386218787
500.6975348382437
500.69870514846326
500.69987479302955
500.7010437721256
500.70221208593426
500.70337973463785
500.7045467184185
500.70571303745834
500.70687869193927
500.70804368204296
500.7092080079511
500.71037166984485
500.71153466790525
500.71269700231284
500.7138586732481
500.71501968089143
500.71618002542283
500.71733970702195
500.7184987258684
500.7196570821414
500.72081477601984
500.7219718076822
500.72312817730705
500.72428388507257
500.72543893115704
500.7265933157385
500.7277470389948
500.72890010110365
500.7300525022427
500.7312042425893
500.73235532232053
500.7335057416133
500.7346555006441
500.73580459958913
500.73695303862434
500.7381008179257
500.73924793766906
500.7403943980299
500.7415401991835
500.74268534130516
500.74382982457024
500.7449736491538
500.74611681523066
500.7472593229757
500.7484011725633
500.74954236416767
500.7506828979627
500.7518227741219
500.7529619928187
500.7541005542262
500.7552384585172
500.7563757058645
500.7575122964409
500.75864823041894
500.759783507971
500.760918129269
500.7620520944843
500.7631854037882
500.76431805735143
500.7654500553445
500.7665813979375
500.76771208530005
500.76884211760154
500.7699714950109
500.7711002176971
500.77222828582865
500.7733556995739
500.77448245910125
500.7756085645791
500.77673401617596
500.77785881406055
