486.9999999999998
487.2409024450556
487.4821742962962
487.7241835934916
487.96729564661655
488.21187167858443
488.4582674772259
488.70683205967026
488.9579063522573
489.21182188899735
489.4688995315356
489.72944821361807
489.9937637131616
490.2621274551339
490.53480534845244
490.812046660017
491.0940829289444
491.381126924044
491.6733716475668
491.9709893882635
492.2741308267238
492.58292419582875
492.89747449897266
493.21786278859156
493.54414550743604
493.87635389492715
494.2144934607941
494.55854352808456
494.9084568475567
495.2641592853546
495.6255495857797
495.99249921083975
496.3648522580741
496.74242545790867
497.12500825163636
497.51236295096453
497.90422497980904
498.30030319876454
498.70028031252036
499.10381336027996
499.5105342888583
499.9200506077065
500.33194612472624
500.7457817614277
501.16109644577824
501.5774080809079
501.9942145875027
502.41099501737443
502.82721073545133
503.2423066672232
503.6557126084254
504.0668445934842
504.47510631905254
504.87989061888953
505.2805809862116
505.67655313946267
506.06717662723594
506.4518164678714
506.8298348191298
507.200592673355
507.5634515736594
507.9177753468235
508.2629318486308
508.59829471719036
508.92324512958794
509.23717355709675
509.539481514032
509.82958329519477
510.1069076967564
510.37089971540286
510.62102222056075
510.8567575945428
511.0776093354869
511.28310361805836
511.4727908070291
511.646246919109
511.80307502866305
511.9429066131978
512.0654028348557
512.1702557545557
512.2571894757879
512.3259612153715
512.3763622987462
512.4082190776044
512.4213937678547
512.4157852061271
512.3913295232784
512.3480007336633
512.2858112392641
512.2048122480197
512.105094105885
511.9867865423544
511.850058829368
511.695119853659
511.5222181027431
511.3316415648496
511.12371754320645
510.8988123852952
510.6573311278966
510.39971705885864
510.1264511965795
509.83805168818645
509.53507312730756
509.2181057923134
508.8877748060006
508.5447392178382
508.1896910100055
507.82335402849134
507.4464828405603
507.0598615199451
506.6643023610568
506.26064452335527
505.84975260704397
505.432515161479
505.0098431278668
504.58266821783434
504.15194122943007
503.71863030215064
503.2837191125913
502.84820501233946
502.4130971097963
501.97941429763137
501.54818322761037
501.120436234715
500.69720921261336
500.27953944264164
499.868463378602
499.465014389966
499.07022046642396
498.6851018870352
498.31066885753387
497.9479191196145
497.5978355361977
497.26138365693515
496.93950926851386
496.63313593459725
496.343162530498
496.0704607780105
495.8158727862179
495.5802086044852
495.3642437942302
495.16871702637036
494.9943277115864
494.84173367079103
494.7115488534982
494.6043411121647
494.5206300409515
494.46088488756624
494.4255225468519
494.4149056447291
494.429340721186
494.4690765211913
494.5343024025982
494.62514687018347
494.74167624495374
494.8838934778044
495.0517371165486
495.2450804351633
495.4637307338327
495.7074288180472
495.9758486645513
496.26859728136054
496.5852147683975
496.9251745845591
497.28788402641277
497.6726849231212
498.0788545513998
498.5056067734244
498.95209339970637
499.4174057780204
499.90057660859804
500.4005819849448
500.9163436587091
501.4467315259803
501.99056633132795
502.54662258476947
503.1136316856842
503.6902852465561
504.27523860833713
504.8671145381534
505.46450709899085
506.0659856798989
506.6700991742179
507.27538029238025
507.8803499948912
508.4835220302031
509.08340756140046
509.6785198649044
510.26737908365624
510.8485170165402
511.4204819253876
511.9818433406953
512.5311968469446
513.0671688281878
513.5884211544125
514.0936557891298
514.5816192987553
515.0511072445022
515.5009684377218
515.9301090399956
516.3374964898131
516.7221632382906
517.083210277042
517.4198104419211
517.7312114770709
518.0167388445449
518.2757982657216
518.5078779817795
518.7125507215828
518.8894753663677
519.0383983015995
519.1591544473079
519.2516679594415
519.3159525965326
519.3521117477922
519.3603381205135
519.3409130864645
519.2942056888689
519.2206713134552
519.1208500287848
518.9953646027803
518.844918204107
518.6702917988197
518.4723412542634
518.2519941636098
518.0102464056035
517.748158455181
517.4668514616642
517.167503112107
516.8513432981491
516.5196496054697
516.1737426456097
515.8149812505942
515.4447575513658
515.0644919616027
514.6756280889642
514.2796275960716
513.8779650335823
513.4721226675831
513.0635853233678
512.6538352674751
512.2443471495186
511.83658302487
511.4319874787958
511.03198287210506
510.63796472771236
510.25129727670645
509.8733091815037
509.5052894526177
509.1484835745043
508.8040898547118
508.47325600929406
508.15707599619174
507.8565871069519
507.57276732573354
507.306532963061
507.05873657028656
506.83016513927413
506.621538590412
506.43350855061107
506.26665742155075
506.12149773711826
505.9984718075417
505.89795164618414
505.82023917349466
505.76556669129866
505.7340976193868
505.72592748515154
505.74108515588466
505.7795343022868
505.8411750808244
505.9258460217698
506.03332610902675
506.16333703717044
506.31554563059785
506.48956640923194
506.68496428479864
506.90125737138624
507.13791989375767
507.3943851767841
507.6700486993354
507.96427119599537
508.27638179017765
508.60568114249895
508.9514445986337
509.31292532136104
509.6893573920697
510.07995886756487
510.4839347786311
510.9004800574935
511.32878238205745
511.768024925577
512.2173890012814
512.6760565924162
513.143212759086
513.618047914175
514.0997599614913
514.5875562902949
515.0806556215124
515.5782897020807
516.0797048448969
516.5841633128103
517.090944546019
517.5993462331628
518.1086852272894
518.6182983086238
519.127542796769
519.635797015727
520.1424606159196
520.6469547580884
521.1487221645976
521.6472270442708
522.1419548975159
522.632412209041
523.118126035808
523.5986434980763
524.0735311817015
524.5423744602205
525.0047767455198
525.460358676074
525.9087572517969
526.3496249245206
526.7826286531146
527.2074489322864
527.6237788039397
528.0313228597571
528.4297962434607
528.818923660887
529.1984384056592
529.5680814079074
529.9276003131941
530.2767485984709
530.615284731489
530.9429713795697
531.2595746730605
531.5648635282322
531.8586090337612
532.1405839042911
532.4105620039625
532.6683179422811
532.9136267442296
533.1462635960938
533.3660036680137
533.5726220137567
533.7658935476537
533.9455930980939
534.1114955363922
534.2633759793147
534.401010063037
534.5241742858543
534.632646416534
534.726205964839
534.8046347103669
534.8677172856214
534.9152418090655
534.9470005637307
534.9627907168042
534.9624150754532
534.9456828740913
534.9124105882746
534.8624227705403
534.7955529036609
534.7116442668801
534.6105508105368
534.4921380343654
534.3562838647247
534.2028795259477
534.0318304009039
533.843056875761
533.6364951640397
533.4120981052345
533.1698359333957
532.9096970111094
532.6316885244207
532.3358371344975
532.0221895821489
531.6908132416797
531.3417966209441
530.9752498048587
530.591304840082
530.190116058982
529.7718603413499
529.3367373126397
528.884969477888
528.4168022907437
527.9325041572937
527.4323663747176
526.9167030051672
526.3858506855903
525.8401683745112
525.2800370370857
524.7058592699983
524.1180588679748
523.5170803337622
522.9033883335068
522.2774670996088
521.6398197833619
520.9909677598954
520.3314498880917
519.6618217283251
518.9826547210753
518.294535329604
517.5980641499715
516.8938549917852
516.1825339331357
515.4647383532142
514.7411159461315
514.0123237194391
513.2790269807823
512.5418983160301
511.801616562131
511.05886577776425
510.31433421472246
509.5687132928114
508.8226965809392
508.0769787869503
507.33225475867494
506.58921849858444
505.8485621943625
505.1109752676168
504.37714344279397
503.6477478381916
502.92346408081767
502.20496144663326
501.4929020274145
500.78793992524504
500.0907204755019
499.40187949892857
498.72204258306016
498.0518243929719
497.3918280111463
496.7426443061748
496.1048513298892
495.47901374232305
494.86568226367154
494.26539315223846
493.67866770724436
493.1060117952737
492.54791539903874
492.0048521870209
491.47727910250245
490.9656359705486
490.4703451215397
489.99181102985654
489.53041996633885
489.086539663199
488.66051899012336
488.25268764028317
487.8633558249254
487.49281397522395
487.14133245014887
486.80916124919884
486.49652972887833
486.20364632187125
485.93069825801695
485.67785128643516
485.44524939840034
485.23301455075017
485.0412463897352
484.87002197536617
484.7193955065426
484.5893980474971
484.4800372562772
484.39129711618665
484.3231376714078
484.27549476831985
484.24827980422606
484.24137948533445
484.25465559598473
484.2879447812303
484.34105834501327
484.41378206628565
484.50587603548604
484.6170745137842
484.74708581762127
484.89559223119585
485.0622499496472
485.24668905586043
485.4485135339127
485.66730132211177
485.90260440847555
486.1539489713965
486.4208355680887
486.70273937330006
486.9991104707165
487.30937419942137
487.63293155769924
487.96915966638977
488.31741229387467
488.6770204445965
489.0472930126133
489.4275175011728
489.816960808833
490.21487008227695
490.6204736356264
491.0329819358167
491.451588653396
491.8754717779318
492.303794796944
492.73570793696695
493.1703494649937
493.60684704824035
494.0443191698919
494.48187659820667
494.9186239060577
495.353661037679
495.7860849190951
496.21499110851056
496.6394754827053
497.0586359552881
497.47157422249467
497.87739753208166
498.27522047084176
498.6641667663667
499.0433710986974
499.41198091738295
499.7691582592666
500.114081562169
500.4459474695423
500.7639726210594
501.06739542399845
501.35547780027974
501.62750690407927
501.88279680497493
502.1206901316136
502.3405596709248
502.54180991794266
502.7238785714236
502.8862379706328
503.0283964688462
503.1498997393518
503.2503320101152
503.3293172236445
503.3865201189164
503.4216472325848
503.4344478169983
503.4247146727597
503.3922848938269
503.33704052349015
503.25890911984976
503.1578642296268
503.03392576942633
502.887160313899
502.7176812905731
502.5256490814041
502.3112710312553
502.07480136366337
501.8165410043806
501.5368373132925
501.23608372532755
500.91471930102705
500.57322818759417
500.2121389914143
499.8320240631448
499.4334986965407
499.017220242199
498.58388713739504
498.13423785317474
497.6690497598789
497.18913791232484
496.695353755952
496.188583755312
495.6697479463771
495.13979841423304
494.59971769783186
494.05051712350365
493.4932350688928
492.92893515897026
492.3587043958038
491.78365122382587
491.2049035323754
490.6236065972907
490.040920963289
489.4580202688933
488.87608901584116
488.29632028509127
487.719913401652
487.1480715506874
486.5819993476814
486.02290036575744
485.4719746234796
484.93041603661436
484.3994098375117
483.8801299660525
483.37373643648186
482.88137268477385
482.4041629014083
481.94320935466993
481.4995897099073
481.0743543505623
480.66852370713207
480.28308560045093
479.9189926059054
479.57715944544975
479.25846041452803
478.96372685122714
478.69374465525635
478.4492518646535
478.23093629842197
478.03943327359787
477.8753234054344
477.73913049953325
477.63131954488813
477.5522948169042
477.50239809945896
477.4819070350622
477.4910336121236
477.52992279822206
477.59865132812354
477.6972266551095
477.8255860738966
477.9835960230823
478.17105157468933
478.3876761179382
478.6331212438424
478.90696683661935
479.2087213772706
479.5378224639913
479.8936375533278
480.2754649252227
480.6825348742583
481.11401112850217
481.56899249644556
482.0465147415986
482.54555268333513
483.06502252156525
483.60378438173956
484.16064507552716
484.734361071388
485.3236416682402
485.92715236438556
486.54351841280265
487.17132855294994
487.80913890829976
488.455477037856
489.10884612893557
489.76772931755613
490.43059412192906
491.09589697374594
491.76208783121814
492.4276148572319
493.0909291455209
493.7504894773745
494.4047670911296
495.05225044649114
495.69144996552575
496.3209027319082
496.9391771298277
497.54487740399446
498.13664812234816
498.71317852329645
499.2732067295638
499.8155238111199
500.3389776801038
500.8424768012306
501.32499370190624
501.7855682670999
502.22331080478705
502.6374048686097
503.0271098252912
503.39176315533155
503.7307824765509
504.0436672810127
504.3300003766961
504.58944902629287
504.82176577690115
505.0267889760786
505.20444297142603
505.354737992575
505.47776971610347
505.5737185154801
505.64284839961346
505.68550564508627
505.7021171287644
505.6931883690539
505.659301285648
505.6011116890895
505.51934651277514
505.41480080116884
505.28833446903053
505.14086884733564
504.97338303227093
504.78691005434166
504.582532885179
504.36138030009823
504.1246226149229
503.8734673160395
503.60915460298634
503.33295286305093
503.04615409748743
502.75006931905136
502.44602394045836
502.1353531731912
501.81939745579064
501.4994979303949
501.17699198585063
500.8532088851934
500.529465494707
500.2070621310972
499.88727854258434
499.57137003892393
499.2605637844413
498.9560552671259
498.659004955764
498.37053515598456
498.09172707500136
497.82361810366206
497.56719932322665
497.3234132430914
497.09315177444387
496.8772544435722
496.67650684725186
496.4916393513163
496.3233260322104
496.1721838600204
496.0387721202801
495.9235920707242
495.82708682808953
495.74964147899067
495.6915834078658
495.6531828340589
495.634653549284
495.6361538460096
495.65778762664115
495.6996056826878
495.7616071324664
495.84374100539435
495.94590796047885
496.06796212619565
496.20971304867635
496.37092773495493
496.55133277795846
496.7506165499437
496.9684314511546
497.20439620058147
497.45809815587694
497.72909564981444
498.01692033107435
498.3210794975753
498.641058411007
498.9763225817384
499.326320013888
499.69048340098976
500.06823226334143
500.4589750188491
500.8621109799264
501.27703226972193
501.7031256516897
502.1397742672667
502.5863592771464
503.0422614023703
503.50686236220423
503.97954620654156
504.45970054136757
504.9467176465689
505.4399954860149
505.9389386104673
506.4429589545254
506.9514765294272
507.4639200141011
507.9797272473894
508.4983456248724
509.01923240416744
509.5418549229697
510.0656907344547
510.5902276650074
511.1149637995398
511.63940739993006
512.1630767623184
512.6855000191327
513.2062148918442
513.7247684005456
514.2407165365096
514.753623903886
515.2630633366109
515.7686154964986
516.2698684583237
516.7664172875718
517.2578636163262
517.7438152225059
518.2238856174328
518.697693646491
519.1648631073579
519.6250223899593
520.0778041419852
520.5228449634996
520.9597851338152
521.3882683734498
521.8079416436212
522.2184549853843
522.6194614001254
523.0106167727785
523.3915798387341
523.7620121950264
524.121578355988
524.4699458531538
524.8067853789105
525.1317709730914
525.44458025141
525.7448946743112
526.0323998545615
526.3067859017066
526.5677478013383
526.8149858269645
527.0482059821188
527.2671204701495
527.4714481889895
527.6609152481639
527.8352555052971
527.9942111193957
528.1375331181861
528.2649819767804
528.3763282050028
528.4713529409015
528.5498485481437
528.6116192150007
528.6564815525262
528.684265189442
528.6948133612278
528.6879834909054
528.663647759059
528.6216936607145
528.5620245467366
528.4845601473661
528.389237075486
528.2760093071494
528.1448486369442
527.9957451058664
527.8287073995277
527.6437632146911
527.4409595923115
527.2203632154888
526.9820606709502
526.7261586729715
526.4527842489107
526.1620848857144
525.8542286369052
525.5294041897314
525.1878208923293
524.8297087408437
524.4553183264983
524.0649207426881
523.6588074522479
523.2372901151612
522.8007003771363
522.3493896195912
521.8837286716717
521.4041074849724
520.9109347717418
520.4046376074581
519.8856609986835
519.3544674171334
518.8115363009247
518.257363524009
517.692460834797
517.1173552650351
516.5325885100768
515.9387162817675
515.3363076351685
514.7259442703199
514.1082198102093
513.4837390562027
512.853117222327
512.2169791499205
511.57595850426026
510.93069695481347
510.2818433408078
509.6300528238198
508.97598602905873
508.320308176994
507.66368820689956
507.00679789383844
506.35031096059345
505.69490218605796
505.0412465116101
504.39001814697383
503.74188967705174
503.09753117122625
502.4576092966886
501.8227864372969
501.193719819406
500.57106064606864
499.95545324097037
499.3475342034005
498.7479315754826
498.1572640227563
497.5761400291054
497.00515710694964
496.44490102353006
495.8959450440648
495.3588491924829
494.8341595303988
494.32240745496046
493.8241090162059
493.33976425449987
492.8698565585821
492.4148520446785
491.97519895703147
491.5513270901242
491.1436472328038
490.7525506344878
490.37840849362726
490.0215714685373
489.6823692106077
489.3611099198698
489.05807992289004
488.7735432729664
488.5077413725725
488.26089261800433
488.0331920662084
487.8248111237701
487.6358972580323
487.4665737303166
487.31693935124287
487.1870682581831
487.0770097149066
486.9867879335141
486.91640191880157
486.8658253352302
486.8350063966997
486.823867779381
486.8323065579087
486.8601941652515
486.9073763765813
486.97367331751406
487.05887949721216
487.16276386696654
487.2850699049767
487.42551572811783
487.58379423155014
487.75957325706344
487.9524957910223
488.16218019276715
488.38822045434785
488.630186492468
488.8876244735299
489.16005717266773
489.4469843676368
489.7478832684067
490.0622089833028
490.38939502249656
490.72885383957225
491.07997741179713
491.4421378596374
491.8146881059933
492.19696257557007
492.58827793473216
492.9879338721346
493.39521392035186
493.8093863186047
494.2297049165394
494.65541011885426
495.0857298704111
495.51988068129043
495.9570686910573
496.3964907713388
496.83733566561483
497.278785164904
497.7200153178476
498.16019767349087
498.5985005548844
499.03409036151595
499.46613289853644
499.8937947307464
500.3162445592884
500.7326546189124
501.1422020935567
501.5440705478641
501.93745137214694
502.321545238315
502.69556356432486
503.05872998465463
503.41028182418734
503.7494715726775
504.07556835682476
504.3878594068715
504.685651514562
504.96827247925734
505.2350725389274
505.48542578268217
505.7187315414439
505.93441575324977
506.131932299557
506.31076430883786
506.47042542382746
506.61046102895017
506.73044943457325
506.83000301489636
506.90876929645964
506.96643199445526
507.002711994218
507.01736827539395
507.0101987764374
506.9810411972101
506.9297737375714
506.85631576999214
506.7606284443505
506.6427152231884
506.502622345812
506.34043921971056
506.1562987378972
505.9503775208746
505.72289608199003
505.47411891496733
505.20435450247265
504.9139552446674
504.60331730676364
504.27288038464945
503.9231273877353
503.55458403828686
503.1678183866674
502.76344024200824
502.3421005178262
501.9044904921043
501.4513409813723
500.9834214284032
500.50153890317995
500.00653701686167
499.4992947486023
498.9807251852841
498.4517741744619
497.913418891003
497.36666631797715
496.8125516424109
496.2521365666756
495.6865075364793
495.11677388663924
494.5440659059274
493.9695328223824
493.3943407106803
492.8196703233716
492.24671484798415
491.6766775922381
491.1107695998653
490.55020719986464
489.99620949249237
489.4499957756825
488.91278291593125
488.38578266804586
487.87019894850096
487.3672250674642
486.878040924897
486.4038101764603
485.9456773752663
485.5047650958469
485.0821710470552
484.6789651810066
484.29618680556837
483.93484170828066
483.595899299957
483.28028978652145
482.98890137791153
482.72257754316195
482.48211432103096
482.2682576957823
482.08170104793896
481.9230826899602
481.79298349693573
481.6919246424416
481.6203654497048
481.57870136823146
481.56726208601197
481.586309787318
481.6360375659154
481.7165680032846
481.8279519211705
481.97016731741417
482.14311849358313
482.34663538247975
482.58047308309847
482.84431161001544
483.1377558635443
483.46033582631503
483.8115069912156
484.1906510248432
484.59707666974197
485.03002088772314
485.48865024557267
485.97206254349874
486.47928868566123
487.00929479107083
487.56098454209
488.1332017667103
488.7247332496758
489.33431176642375
489.9606193326905
490.6022906615638
491.25791681872323
491.9260490655567
492.6052028787838
493.2938621342105
493.99048344129847
494.6935006143359
495.4013292651121
496.11237150119143
496.82502071312916
497.53766643329385
498.248699248319
498.95651574668744
499.6595234825936
500.35614593696704
501.04482745633635
501.7240381500695
502.392278726493
503.0480852484986
503.6900337894105
504.3167449701805
504.92688835936445
505.5191867177646
506.09242007018486
506.64542958739753
507.17712126211
507.6864693634151
508.17251965491727
508.6343923625168
509.07128487880686
509.48247419212885
509.86731902947656
510.2252617035417
510.5558296551852
510.85863668362987
511.1333838579726
511.3798601052453
511.59794247207736
511.78759605880305
511.94887362655516
512.0819148794778
512.1869454256899
512.2642754221848
512.314297910446
512.3374868511671
512.3343948681123
512.30565071277
512.25195646288
512.1740844690049
512.0728740642628
511.9492280532511
511.8041089969317
511.6385353109178
511.453577195257
511.250352414399
511.03002194659985
510.793785522464
510.5428770726514
510.2785601049716
510.0021230311805
509.7148744638371
509.41813850350064
509.11325003630657
508.80155006163415
508.4843810691619
508.1630824841322
507.8389861991786
507.51341221057146
507.1876643760964
506.86302631092883
506.54075743698445
506.22208920028555
505.9082214699046
505.6003191309598
505.2995088829496
505.00687625342795
504.7234628357732
504.4502637586193
504.18822539326374
503.93824330405994
503.7011604455017
503.4777656084036
503.26879211627664
503.0749167716582
502.8967590508163
502.73488054398507
502.5897846371628
502.4619164304498
502.35166288686617
502.25935320452214
502.18525940400866
502.12959712197835
502.0925266010406
502.0741538652571
502.0745320697967
502.09366301273104
502.13149879647807
502.18794362607275
502.26285573115956
502.3560493982968
502.4672970999722
502.596331706663
502.7428487682563
502.9065088511867
503.0869399177605
503.28373973425767
503.4964782946783
503.72470024738124
503.9679273123073
504.2256606769972
504.49738336019436
504.78256253243234
505.08065178365496
505.39109332859226
505.713320141347
506.04675801138046
506.39082751385547
506.7449458880696
507.1085288184613
507.48099211342145
507.86175327792944
508.250232976799
508.64585638605456
509.04805443073434
509.4562649081388
509.8699334962417
510.28851464767587
510.7114723704235
511.1382808969908
511.5684252444119
512.0014016680233
512.436718012497
512.87389396408
513.3124612084143
513.7519634987233
514.1919566394658
514.6320083908302
515.0716982996911
515.5106174628736
515.9483682287206
516.3845638431146
516.8188280462159
517.2507946261711
517.6801069360222
518.1064173800512
518.5293868757137
518.9486842972019
519.3639859065283
519.774974777847
520.1813402205331
520.5827772063237
520.978985805555
521.3696706372446
521.7545403375032
522.1333070504669
522.5056859456344
522.8713947652025
523.2301534046806
523.5816835296907
523.9257082315071
524.2619517235531
524.5901390807725
524.9099960234366
525.2212487465661
525.5236237957237
525.8168479895813
526.1006483893794
526.3747523150915
526.6388874078152
526.8927817376253
527.13616395587
527.3687634906648
527.5903107841783
527.8005375701206
527.9991771896658
528.1859649439244
528.3606384809401
528.522938215089
528.6726077766763
528.809394489482
528.9330498740134
529.0433301742021
529.1399969053343
529.2228174211583
529.2915654982869
529.3460219361006
529.3859751702158
529.4112218973694
529.4215677093376
529.4168277333686
529.396827276587
529.3614024718873
529.3104009228289
529.2436823450407
529.1611192016048
529.0625973298045
528.9480165565138
528.8172912994546
528.6703511516642
528.5071414466877
528.3276238021714
528.1317766397178
527.9195956790104
527.6910944043801
527.4463045020975
527.1852762667944
526.9080789755257
526.6148012281136
526.3055512525192
525.9804571740466
525.6396672472664
525.2833500496389
524.9116946359585
524.5249106528801
524.1232284129462
523.7068989276365
523.2761938989869
522.8314056693505
522.3728471289031
521.9008515806163
521.4157725625587
520.9179836274714
520.4078780796539
519.885868669282
519.3523872443753
518.8078843607801
518.2528288506654
517.687707350053
517.1130237859616
516.5292988238822
515.9370692764332
515.336887474188
514.729320599764
514.1149499863682
513.494370382129
512.8681891816808
512.2370256265303
511.6015099757837
510.96228264881137
510.3199933415153
509.6753001179499
509.0288684791681
508.3813704113305
507.7334834153525
507.08588952054066
506.4392742847513
505.7943257835909
505.15173359106325
504.5121877539684
503.8763777622744
503.2449915176126
502.6187143019641
501.9982277485692
501.38420881709135
500.77732877510783
500.1782521880547
499.58763591971234
499.00612814521725
498.4343673785295
497.87298151622963
497.32258689940977
496.7837873953067
496.25717350017567
495.7433214647611
495.2427924435426
494.75613166877116
494.2838676502056
493.8265114013685
493.384555693055
492.95847433474626
492.5487214845111
492.1557309878931
491.7799157462333
491.4216671148165
491.0813543311621
490.75932397371696
490.45589945113215
490.1713805221902
489.90604284638516
489.6601375651321
489.43389091346353
489.227503861968
489.041151788704
488.87498418079844
488.7291243653931
488.6036692696554
488.4986892096293
488.4142277077406
488.3503013388028
488.3068996043951
488.2839848355602
488.2814921238303
488.29932928067245
488.33737682546064
488.39548800205034
488.473488824069
488.5711781491071
488.6883277820411
488.82468260779575
488.9799607539504
489.1538537836381
489.3460269192161
489.55611929721897
489.78374425512715
490.02848965049975
490.28991821306965
490.5675679303959
490.8609524676753
491.1695616223705
491.49286181433763
491.8302966120915
492.18128729576375
492.54523345724147
492.9215136379789
493.30948600504047
493.70848906591345
494.11784242255305
494.53684756503685
494.9647887051221
495.4009336498721
495.8445347153753
496.294829680343
496.7510427790902
497.2123857332347
497.67805882132166
498.1472519854011
498.619145973436
499.0929135163155
499.56772053810505
500.0427273979434
500.51709016173874
500.9899619016107
501.4604940208589
501.9278376020754
502.39114477585593
502.8495701074143
503.30227199829454
503.74841410033514
504.1871667390997
504.6177083440779
505.03922688306113
505.450921298258
505.8520029418215
506.2416970084227
506.6192439623227
506.9839009561746
507.33494323863204
507.6716655477395
507.9933834869978
508.2994348809532
508.5891811071423
508.8620084012339
509.1173291321877
509.3545830441928
509.5732384621236
509.7727934573538
509.95277697091916
510.11274989115464
510.25230608322016
510.37107336825164
510.46871445010476
510.54492778788017
510.5994484126266
510.63204868675905
510.64253900482896
510.6307684344627
510.59662529641975
510.540037682824
510.460973912746
510.3594429244225
510.23549460346464
510.08922004649395
509.92075175973747
509.7302637921527
509.517971802762
509.28413306196114
509.0290463866034
508.753052008764
508.45653137817976
508.13990689833406
507.803641596072
507.44823872459534
507.0742412996871
506.6822315690036
506.272830414217
505.8466966857579
505.40452646994123
504.94705228833885
504.47504222925664
503.9892990110839
503.4906589771865
502.97999102188305
502.45819544689414
501.92620274756524
501.3849723281747
500.83549114566495
500.2787722812523
499.7158534394681
499.14779537429706
498.5756802422175
498.0006098821066
497.42370402210264
496.84609841366915
496.26894289328027
495.6933993723413
495.1206397561775
494.55184379320053
493.9881968557497
493.43088765442326
492.88110588797656
492.3400398312043
491.80887386363025
491.2887859422328
490.78094502181847
490.28650842711903
489.80661918119716
489.34240329521737
488.8949670250859
488.46539410091555
488.05474293572166
487.6640438202142
487.29429611099476
486.9464654199166
486.6214808127847
486.3202320259934
486.0435667101081
485.7922877098003
485.5671503899252
485.36886001783614
485.19806921229895
485.0553754696939
484.9413187784608
484.8563793328732
484.8009753573467
484.77546105256766
484.7801246747016
484.8151867588317
484.88079849758117
484.9770402855973
485.10392044027043
485.26137410863055
485.44926236984503
485.66737154224444
485.91541270331624
486.1930214305812
486.4997577705816
486.835106442455
487.19847728179786
487.5892059296284
488.0065547702459
488.44971412074193
488.9178036738794
489.4098741949892
489.9249094724428
490.4618285201028
491.01948802893526
491.59668506376295
492.19215999989535
492.8045996930951
493.43264087511017
494.0748737658325
494.72984589205225
495.3960661016933
496.0720087612446
496.7561181229432
497.44681284721
498.14249066486843
498.8415331626986
499.5423106750331
500.24318726332854
500.94252576496604
501.63869289202273
502.33006436037476
503.0150300290948
503.6919990296906
504.3594048644939
505.0157104534416
505.6594131085221
506.28904941530084
506.9032000011947
507.50049417054214
508.0796143870015
508.6393005843169
509.17835428710595
509.69564252402216
510.1901015164028
510.6607401264278
511.1066430497828
511.52697373880335
511.9209770430395
512.2879815550357
512.6274016499218
512.9387392084428
513.2215850144446
513.4756198195431
513.7006150696074
513.896433289564
514.0630281249117
514.2004440401429
514.3088156759866
514.388366869101
514.4394093395591
514.4623410532382
514.4576442679678
514.4258832739231
514.3677018401626
514.2838203804409
514.1750328525552
514.0422034064471
513.886262797133
513.7082045794205
513.5090811021928
513.2899993207209
513.0521164462393
512.7966354526458
512.5248004607035
512.2378920205521
511.93722231369543
511.62413029582547
511.29997680188603
510.9661396346974
510.6240086582566
510.27498091653933
509.92045579828465
509.5618302677909
509.20049418115383
508.83782570673714
508.4751868678939
508.1139192250811
507.75533971363024
507.40073665253396
507.05136593854826
506.70844743876233
506.37316159361046
506.04664624108614
505.7299936715901
505.42424792136944
505.1304023109795
504.8493972338419
504.58211819874526
504.32939412893364
504.0919959192768
503.87063525186437
503.6659636690677
503.4785719017331
503.30898944885075
503.15768440378235
503.0250635209724
502.91147251601126
502.8171965908824
502.7424611753404
502.687432874539
502.65222061226245
502.6368769584066
502.64139962873776
502.6657331444657
502.7097706387034
502.7733557964055
502.8562849140172
502.9583090648918
503.07913635639596
503.2184342645606
503.375832032235
503.550923116923
503.7432676747898
503.9523950676315
504.177806379959
504.4189769337991
504.6753587893486
504.94638322019915
505.23146315246254
505.5299955577834
505.8413637909079
506.1649398631554
506.5000866438223
506.8461599822199
507.20251074374556
507.5684867541275
507.94343464678064
508.3267016090201
508.7176370236108
509.11559400289553
509.5199308135787
509.93001219097965
510.34521054225183
510.7649070387266
511.18849259818836
511.6153687585528
512.0449484450336
512.476656633409
512.9099309125088
513.3442219495543
513.778993862438
514.2137245033562
514.6479056585465
515.0810431691494
515.5126569784615
515.9422811109652
516.3694635886582
516.7937662903568
517.2147647597303
517.6320479677886
518.0452180354192
518.4538899214517
518.857691081667
519.2562611040605
519.6492513255375
520.0363244350752
520.4171540682518
520.7914243978272
521.1588297247947
521.5190740739571
521.8718707977305
522.2169421915823
522.5540191241922
522.8828406850478
523.2031538518213
523.5147131795521
523.8172805133092
524.1106247256877
524.3945214802249
524.6687530215378
524.9331079926673
525.1873812798133
525.4313738844813
525.6648928228238
525.887751051669
526.0997674204305
526.3007666478252
526.4905793221187
526.6690419234009
526.8359968662497
526.9912925610905
527.1347834925275
527.2663303129108
527.3857999494011
527.4930657227411
527.5880074759284
527.6705117109827
527.7404717320477
527.7977877933091
527.8423672505638
527.874124715499
527.892982211846
527.8988693325704
527.8917233972246
527.8714896085459
527.8381212073314
527.7915796245771
527.7318346298521
527.6588644749248
527.5726560316929
527.4732049234332
527.3605156484256
527.2346016950379
527.0954856474999
526.9431992818049
526.7777836514173
526.5992891626541
526.4077756397717
526.2033123799163
525.9859781983043
525.7558614641301
525.5130601277424
525.2576817396026
524.98984346155
524.7096720708887
524.4173039577937
524.1128851165291
523.7965711310198
523.468527155395
523.1289278901356
522.7779575544363
522.4158098553232
522.0426879539943
521.6588044297906
521.2643812421059
520.8596496904732
520.4448503730083
520.0202331432703
519.5860570654828
519.1425903679625
518.690110394546
518.2289035536924
517.7592652648642
517.2814999017392
516.7959207318379
516.3028498521954
515.8026181206626
515.2955650823181
514.7820388903181
514.2623962203523
513.7370021777123
513.2062301959099
512.6704619258127
512.1300871142987
511.5855034714365
511.0371165252482
510.48533946316354
509.9305929592774
509.3733049864795
508.8139106125266
508.25285177917385
507.69057706348684
507.12754142043985
506.5642059058954
506.00103737909814
505.4385081839392
504.87709580835383
504.3172825213437
503.7595549872396
503.204403856896
502.65232333555133
502.1038107271643
501.55936595508757
501.0194910590168
500.4846896682172
499.955466451091
499.43232654118395
498.9157749397425
498.4063158949719
497.9044522582498
497.4106848176682
496.92551160939973
496.4494272075656
495.98292199349214
495.5264814054637
495.0805851702433
494.6457065177338
494.22231138025165
493.8108575780133
493.4117939924939
493.0255597293087
492.6525832723184
492.2932816307739
491.9480594813922
491.61730830730585
491.30140553585795
491.0007136772911
490.71557946650046
490.4463330101542
490.1932869415632
489.95673558569314
489.73695413671527
489.5341978504946
489.3487012544089
489.18067737688745
489.0303169990642
488.89778793090926
488.78323431415885
488.6867759543706
488.6085076845152
488.5484987626408
488.50679230617305
488.4834047653565
488.47832543824154
488.49151602954373
488.5229102556326
488.57241349778013
488.63990250566826
488.7252251530665
488.8282002475095
488.9486173957322
489.0862369264896
489.24078987225715
489.4119780112056
489.599473970753
489.80292139388087
490.0219351692749
490.25610172616734
490.50497939451355
490.76809883088015
491.0449635102405
491.3350502836898
491.6378100018614
491.9526682036054
492.27902586931395
492.61626023812414
492.9637256880589
493.32075467798865
493.6866587501314
494.06072959160025
494.4422401532444
494.8304458237733
495.22458565687157
495.62388364877285
496.0275500635574
496.4347828032412
496.8447688195779
497.25668556440803
497.6697024752406
498.0829824925672
498.49568360530174
498.90696042067077
499.315965754729
499.7218522395462
500.12377394302774
500.5208879973173
500.9123562317702
501.29734680659294
501.6750358433185
502.0446090483571
502.40526332599876
502.7562083775129
503.0966682832573
503.42588306479144
503.74311022385876
504.04762625496875
504.33872812828895
504.6157347395896
504.877988324031
505.1248558306547
505.3557302545372
505.5700319236998
505.76720973799763
505.9467423573012
506.1081393363694
506.25094220396386
506.37472548396886
506.47909765649837
506.563702057201
506.62821771329027
506.67236011516593
506.69588192276535
506.6985736059939
506.6802640187823
506.64082090648
506.5801513464176
506.49820212160245
506.3949600276978
506.27045211362196
506.1247458562227
505.9579492695848
505.7702109496038
505.56172005449577
505.3327062219581
505.08343942373045
504.8142297582624
504.5254271821125
504.2174211806474
503.8906403786087
503.54555209111214
503.182661815638
502.80251266553086
502.40568474544415
501.9927944690827
501.5644938194869
501.12146955194487
500.6644423394639
500.19416586063045
499.7114258296111
499.21703896797317
498.7118519179055
498.1967400964015
497.6726064899899
497.140380389583
496.60101606498665
496.0554913786251
495.504806338058
494.9499815868185
494.39205683307085
493.83208921566853
493.27115160732444
492.7103308547214
492.15072595547736
491.5934461720251
491.0396090827044
490.4903385706462
489.9467627513381
489.4100118401296
488.8812159613117
488.3615029006992
487.85199580398097
487.3538108234618
486.86805471618914
486.39582239682363
485.93819444899236
485.4962345992902
485.07098715855096
484.66347443547994
484.2746941282095
483.905616699859
483.55718274472366
483.2303003522098
482.92584247605595
482.64464431682495
482.38750072614357
482.15516364158924
481.9483395614831
481.76768706919154
481.61381441681704
481.487277178394
481.3885759829518
481.31815433802035
481.27639655428624
481.26362578222836
481.28010217158584
481.32602116448714
481.4015119329986
481.5066359717185
481.641385855802
481.80568417446386
481.9993826495754
482.2222614484961
482.47402869974843
482.75432021960944
483.0626994570268
483.3986576634929
483.7616142937346
484.15091764227736
484.56584572003385
485.00560737412445
485.4693436531224
485.9561294188428
486.46497520472593
486.99482931971113
487.5445801953064
488.1130589723278
488.69904232256323
489.3012554994245
489.91837561050266
490.54903510378386
491.1918254580964
491.84530106719814
492.5079833057911
493.17836476463947
493.85491364090717
494.5360782688112
495.22029177473433
495.90597684005735
496.5915505541321
497.27542933905517
497.95603392725053
498.6317943723662
499.3011550736536
499.96257979374815
500.6145566495628
501.255603055849
501.8842706009146
502.49914983403994
503.09887494430785
503.68212831087294
504.24764490505976
504.7942165251217
505.32069584511385
505.82600026007435
506.30911551045665
506.76909906956985
507.2050832786905
507.61627821544624
508.00197428205024
508.3615445010775
508.69444650760084
509.0002242274549
509.2785092323952
509.5290217643404
509.75157142273
509.94605751096583
510.11246903983283
510.2508843877207
510.3614706192214
510.4444824652961
510.5002609698442
510.52923180919913
510.53190329282415
510.5088640552331
510.4607804508569
510.3883936650619
510.2925165558417
510.174030241833
510.03388045328836
509.873073663442
509.6926730184687
509.4937940849943
509.2776004348155
509.04529908709793
508.798135828906
508.53739043537917
508.264371811181
507.98041307499363
507.68686660885373
507.3850990940818
507.07648655537525
506.76240943437676
506.4442477136893
506.12337611183915
505.801159369116
505.47894764360666
505.15807203606914
504.8398402614739
504.52553248407327
504.21639733178205
503.91364810453064
503.6184591900782
503.3319626995548
503.0552453337508
502.7893454898897
502.5352506172969
502.2938948289992
502.06615677490277
501.85285778081357
501.65476025611116
501.47256637150673
501.3069170068994
501.1583909678952
501.02750446820454
500.91471087383843
500.8204007037302
500.7449018801988
500.6884802215902
500.65134016843143
500.63362573344847
500.6354216648409
500.65675481133894
500.69759567685054
500.7578601518652
500.8374114081492
500.9360619427647
501.0535757570356
501.1896706557521
501.3440206516881
501.5162584604141
501.7059780703843
501.912737373346
502.1360608402775
502.37544222830894
502.63034730440444
502.9002165719322
503.18446798670806
503.4824996496413
503.7936924636823
504.11741274339363
504.45301476611013
504.79984325435896
505.15723578005156
505.52452508178385
505.90104128736675
506.2861140345394
506.67907448371585
507.07925721745005
507.4860020221458
507.8986555483902
508.3165728471429
508.7391187798543
509.165669301401
509.5956126155128
510.0283502031183
510.46329772476156
510.89988579893765
511.3375606588545
511.77578469074655
512.214036857414
512.6518130111833
513.0886261009542
513.5240062784072
513.9575009088071
514.3886744921989
514.8171085011105
515.2424011410701
515.6641670403834
516.0820368757348
516.4956569402251
516.9046886604792
517.3088080694442
517.7077052414655
518.101083696123
518.4886597772283
518.8701620132479
519.2453304652123
519.6139160679467
519.9756799701713
520.3303928787557
520.6778344120536
521.0177924668965
521.3500626034541
521.6744474518346
521.9907561439477
522.298803773775
522.5984108888147
522.8894030150987
523.1716102178272
523.444866699349
523.7090104358772
523.9638828539565
524.209328547279
524.4451950340512
524.6713325547956
524.8875939102414
525.0938343386972
525.2899114320011
525.4756850888693
525.6510175042292
525.8157731929621
525.9698190463596
526.113024419437
526.245261247098
526.3664041870942
526.4763307876939
526.574921677942
526.6620607784376
526.7376355306326
526.8015371427165
526.8536608502249
526.8939061897316
526.9221772842321
526.9383831389254
526.9424379460417
526.9342613972502
526.9137790020461
526.8809224103823
526.8356297378806
526.7778458920701
526.7075228982017
526.6246202231999
526.5291050962797
526.4209528246962
526.3001471030441
526.1666803145733
526.0205538230841
525.8617782541163
525.6903737643878
525.5063702986552
525.3098078333563
525.1007366064706
524.8792173331401
524.6453214067071
524.3991310848455
524.1407396605312
523.8702516176302
523.5877827709418
523.2934603905645
522.9874233104531
522.6698220210965
522.3408187462768
522.0005875038494
521.6493141505198
521.2871964105946
520.9144438886183
520.5312780657656
520.1379322798066
519.7346516884552
519.3216932159082
518.8993254823708
518.4678287163682
518.0274946496277
517.5786263942572
517.1215383019392
516.6565558048964
516.1840152384129
515.7042636446795
515.2176585577547
514.7245677694833
514.2253690761822
513.7204500059272
513.2102075263642
512.6950477330308
512.1753855182254
511.65164422051197
511.124255254968
510.59365772429607
510.0602980109397
509.5246293504084
508.98711138609804
508.44820970599164
507.90839536168494
507.36814437024395
506.82793719948825
506.2882582373364
505.7495952458976
505.21243880104896
504.6772817182886
504.14461846568037
503.61494456473736
503.0887559801363
502.5665484992232
502.0488171022957
501.53605532467486
501.02875461166656
500.5274036675455
500.03248779968135
499.54448825894457
499.06388157753094
498.5911389053671
498.1267253462538
497.6710992948078
497.2247117752024
496.7880057827215
496.3614156291573
495.94536629307254
495.54027277595554
495.1465394653394
494.764559505954
494.39471417993934
494.03737229708133
493.69288959599925
493.3616081571518
493.04385582852785
492.73994566486175
492.4501753811788
492.17482682142656
491.91416544291394
491.66843981727135
491.437881148605
491.22270280950494
491.0230998955473
490.83924879891384
490.6713068016947
490.5194116894183
490.38368138538465
490.2642136064081
490.161085540554
490.07435354746053
490.0040528818543
489.95019744088387
489.91277953587996
489.8917696891429
489.88711645632503
489.8987462749606
489.92656333974014
489.9704495051249
490.03026421586446
490.1058444659675
490.1970047867059
490.3035372642925
490.42521158789225
490.5617751286517
490.7129530504443
490.8784484530373
491.0579425483663
491.2510948705863
491.45754352055866
491.6769054454032
491.9087767537332
492.1527330671545
492.4083299086098
492.6751031281242
492.952569366404
493.24022655659076
493.5375544643981
493.8440152668177
494.1590541695403
494.4821000631852
494.81256621830823
495.149851019034
495.49333873507976
495.8424003318476
496.19639431812084
496.5546676307454
496.91655655550153
497.2813876831654
497.6484788995678
498.0171404083111
498.38667578467783
498.7563830591365
499.12555582870505
499.4934843942719
499.8594569217871
500.2227606251271
500.5826829683734
500.938512885115
501.2895420122413
501.6350659356065
501.97438544490495
502.3068077950893
502.6316479717096
502.94822995757374
503.25588799814494
503.5539678631316
503.84182810189475
504.1188412905278
504.38439526847486
504.63789436240376
504.8787605948599
505.10643487513784
505.32037816972445
505.5200726495849
505.70502281159514
505.8747565715151
506.02882632592593
506.1668099805434
506.2883119423652
506.39296407319307
506.48042660210825
506.5503889946033
506.6025707762831
506.63672230921475
506.65262551919415
506.6500945724821
506.6289765008189
506.58915177374087
506.53053481736583
506.45307447891935
506.3567544363916
506.24159355283047
506.1076461749005
505.95500237552045
505.78378814047414
505.59416549890057
505.38633259764435
505.160523719522
504.9170092456018
504.6560955616175
504.378124908647
504.08347517816395
503.7725596515455
503.44582668405366
503.10375933326276
502.7468749318691
502.37572460482113
501.9908927306986
501.5929963471954
501.1826845004792
500.7606375380953
500.327566344986
499.88421152212777
499.4313425072435
498.96975663699493
498.50027815003114
498.02375713023025
497.5410683894348
497.0531102889528
496.56080349910843
496.0650896961566
495.5669301959291
495.06730452362325
494.56720891919144
494.067654777884
493.5696670255807
493.07428242867263
492.5825478384359
492.09551837002414
491.6142555164062
491.1398251978449
490.6732957478477
490.2157358369128
489.7682123357397
489.33178811992485
488.90751981853504
488.49645550929256
488.09963236344197
487.71807424373986
487.352789259426
487.0047672825204
486.67497743025814
486.36436551898214
486.0738514953266
485.8043268510106
485.5566520280626
485.3316538218007
485.1301227893418
484.95281067185465
484.80042783916616
484.67364076572676
484.5730695473292
484.4992854683685
484.4528086297643
484.4341056479362
484.4435874354368
484.4816070740291
484.5484577911128
484.6443710504725
484.7695147683276
484.92399166558505
485.10783776706006
485.3210210582758
485.5634403102198
485.8349240821419
486.1352299120991
486.46404370447567
486.82097932318266
487.20557839866666
487.61731035621455
488.0555726722751
488.51969136470615
489.0089217219972
489.5224492755874
490.0593910183869
490.61879687156323
491.1996514006245
491.8008757807095
492.4213300098105
493.0598153674717
493.7150771152873
494.3858074342954
495.07064859309486
495.76819633928557
496.47700350568476
497.1955838216464
497.922415918646
498.65594751814155
499.3945997885956
500.13677185741386
500.8808454625169
501.6251897273091
502.3681660418761
503.1081330323777
503.84345159985355
504.5724900090656
505.2936290075261
506.00526695451987
506.70582493963883
507.39375187013553
508.06752950624553
508.72567742357563
509.36675788172715
509.98938057852405
510.59220726954635
511.1739562330185
511.7334065605944
512.2694022552399
512.780856118161
513.266753407472
513.7261552521285
514.1582018055316
514.5621151241505
514.9372017575397
515.2828550373084
515.5985570537829
515.8838803101055
516.1384890444918
516.3621402127575
516.5546841250812
516.7160647329866
516.8463195644248
516.945579306769
517.0140670394637
517.0520971197788
517.0600737267637
517.0384890702171
516.9879212732664
516.9090319388449
516.8025634119551
516.6693357511547
516.5102434240495
516.326251742715
516.1183930560353
515.8877627169014
515.6355148429614
515.362857890325
515.0710500602886
514.7613945597943
514.4352347369717
514.0939491135471
513.7389463362587
513.3716600696146
512.9935438523391
512.6060659397808
512.2107041544335
511.8089407664602
511.40225742570993
510.9921301662114
510.58002450355207
510.16739064498705
509.7556588313737
509.3462348291503
508.94049558962826
508.539785091888
508.1454103844579
507.7586378397484
507.3806896339364
507.01274046372725
506.6559145101201
506.3112826579593
505.9798599786495
505.66260348197653
505.36041014149583
505.07411519650094
504.8044907321557
504.5522445379618
504.31801924335497
504.1023917278598
503.90587280188987
503.7289071529961
503.57187355112177
503.43508530522536
503.31879096256597
503.2231752409303
503.1483601831397
503.09440652229296
503.06131524539455
503.0490293423653
503.0574357268534
503.0863673147299
503.1356052456616
503.20488123281325
503.29388002550985
503.4022419695333
503.52956564962517
503.6754105988536
503.8393000596985
504.02072378195027
504.21914084280894
504.43398247495696
504.66465488883125
504.9105420758057
505.17100857953847
505.44540222336104
505.7330567822483
506.0332945886102
506.3454290619279
506.6687671530622
507.0026116948781
507.346263651694
507.69902426092943
508.0601970611427
508.4290898014818
508.8050162284806
509.1872977470072
509.5752649529956
509.9682590363747
510.36563305345044
510.7667530688073
511.170999167553
511.5777663394534
511.9864652371429
512.3965228112146
512.8073828255842
513.2185062570804
513.6293715836961
514.039474966397
514.4483303298089
514.8554693474649
515.2604413376013
515.6628130757315
516.062168530408
516.4581085286993
516.8502503580362
517.238227311152
517.6216881808359
518.0002967112124
518.3737310122308
518.7416829439562
519.1038574770938
519.4599720359959
519.8097558302364
520.1529491805649
520.4893028447394
520.8185773484106
521.1405423259222
521.4549758755456
521.7616639333385
522.060399669532
522.3509829110164
522.633219593095
522.9069212433161
523.1719044998895
523.4279906668378
523.6750053076532
523.9127778788124
524.1411414041191
524.3599321904627
524.5689895852654
524.7681557755669
524.9572756284163
525.1361965719399
525.3047685161888
525.4628438126173
525.6102772508777
525.7469260914055
525.8726501320725
525.9873118070414
526.090776315849
526.182911780656
526.2635894296208
526.3326838043532
526.3900729894343
526.4356388619935
526.4692673593987
526.490848763305
526.5002779985647
526.4974549455966
526.482284764712
526.4546782307149
526.4145520760236
526.3618293404779
526.2964397258978
526.2183199534867
526.1274141222214
526.0236740663827
525.9070597103763
525.7775394190087
525.6350903413949
525.4796987466857
525.3113603499105
525.130080626384
524.9358751132975
524.728769697287
524.508800886977
524.2760160696705
524.030473751467
523.772243780161
523.501407550336
523.218058190155
522.9223007293882
522.614252248233
522.2940420066019
521.9618115536512
521.6177148173673
521.2619181740301
520.8946004974466
520.5159531879572
520.1261801811842
519.7254979364591
519.3141354048413
518.8923339767199
518.4603474089885
518.0184417317331
517.5668951343563
517.1059978310949
516.6360519059126
516.1573711367724
515.6702807993199
515.1751174500142
514.6722286887656
514.1619729011709
513.6447189804927
513.120846029574
512.5907430429024
512.0548085690277
511.5134503535594
510.9670849630398
510.41613739008113
509.8610406401677
509.3022353005592
508.74016909179454
508.1752964023355
507.60807780691135
507.03897956919565
506.4684731295291
505.8970345784562
505.3251441168656
504.75328550352344
504.1819454908579
503.6116132499176
503.042779785416
502.4759373418047
501.9115788013488
501.35019707522514
500.7922844886763
500.23833216124353
499.688829383104
499.14426298856614
498.60511672777193
498.0718706376501
497.5450004131806
497.0249767800193
496.5122648694789
496.0073235968281
495.51060504384805
495.02255384652386
494.5436065887254
494.07419120273926
493.61472637747784
493.1656209751586
492.72727345724496
492.3000713204364
491.88439054344497
491.48059504524207
491.089036155419
490.7100520972806
490.3439674842575
489.9910928301774
489.6517240739134
489.3261421189048
489.0146123880297
488.71738439431147
488.43469132791887
488.16674965989046
487.9137587630024
487.6759005501761
487.4533391307428
487.24622048484827
487.05467215630114
486.8788029641772
486.71870273349117
486.5744420452889
486.4460720065542
486.3336240403184
486.2371096963909
486.15652048309914
486.09182772040293
486.0429824147551
486.00991515612156
485.99253603761105
485.9907345982041
486.00437978907644
486.03331996407474
486.07738289492204
486.1363758117353
486.21008546944864
486.29827824072953
486.40070023594023
486.51707745073696
486.64711594194773
486.7905020323787
486.94690254517974
487.1159650683914
487.29731825029046
487.4905721261157
487.6953184767209
487.91113121966407
488.1375668331554
488.37416481320344
488.6204481642316
488.8759239233864
489.14008371871506
489.41240436130994
489.69234847138796
489.9793651381908
490.27289061353065
490.57234903871375
490.8771532044783
491.1867053434561
491.50039795445616
491.81761465764635
492.13773107956325
492.46011576676
492.7841311267658
493.1091343949088
493.434478625435
493.75951370523507
494.08358738839047
494.40604634965416
494.72623725487256
495.04350784621346
495.3572080399581
495.666691034579
495.971314426811
496.2704413334514
496.56344151664166
496.84969251036597
497.1285807459374
497.3995026743554
497.6618658836441
497.9150902094602
498.1586088371662
498.3918693933723
498.6143350248024
498.82548546223376
499.02481806720834
499.2118488592218
499.3861135211259
499.54716838049893
499.69459136476127
499.8279829278027
499.9469669458747
500.0511915805393
500.14033010658164
500.2140817029818
500.2721722051791
500.31435481701925
500.3404107810269
500.35015000590386
500.3434116503402
500.3200646623347
500.28000827330015
500.223172446372
500.1495182784508
500.0590383555948
499.95175706148143
499.8277308386972
499.6870484026322
499.52983090781345
499.3562320665684
499.16643821994126
498.96066836080854
498.73917410907916
498.502239638824
498.25018155717214
497.98334873480235
497.70212208777014
497.4069143103405
497.09816955847145
496.77636308355136
496.44200081588764
496.09561889738933
495.7377831628164
495.36908856886436
494.99015857024875
494.60164444189144
494.2042245462554
493.7986035448321
493.38551155272506
492.9657032352365
492.5399568453671
492.10907320113375
491.6738746016231
491.235203680756
490.7939221977658
490.35090976350574
489.90706250179244
489.46329164509194
489.0205220639662
488.5796907298548
488.1417451109643
487.70764150127474
487.27834328294887
486.8548191227171
486.4380411031307
486.0289827899366
485.62861723717845
485.23791493197007
484.8578416812895
484.48935644354566
484.1334091080672
483.7909382260924
483.4628686972639
483.1501094161137
482.85355088353697
482.57406278875095
482.3124915677095
482.0696579443955
481.84635446188776
481.64334301055317
481.46135236118334
481.3010757113063
481.16316825332393
481.0482447735333
480.95687729142946
480.88959274902106
480.8468707602122
480.8291414305599
480.83678325787827
480.8701211243044
480.92942439056935
481.0149051032434
481.12671632565207
481.26495060306235
481.42963857257706
481.620747727987
481.83818134956846
482.0817776084494
482.351308854724
482.6464810979686
482.96693368822264
483.31223920489015
483.6819035603134
484.0753663240284
484.4920012729026
484.93111717145507
485.39195878576106
485.8737081333515
486.37548597042337
486.89635351659575
487.43531441634775
487.99131693509406
488.56325638666635
489.14997778781594
489.7502787341822
490.36291249098207
490.98659129049497
491.619989827291
492.26174894108124
492.91047947599117
493.5647663039601
494.2231724988654
494.88424364698204
495.5465122784986
496.2085024039375
496.8687341384444
497.52572839614083
498.17801163608095
498.8241206408334
499.4626073083623
500.092043437655
500.7110254883656
501.31817929459044
501.9121647128463
502.49168018436325
503.05546719196246
503.6023145920428
504.1310628025484
504.64060782824066
505.1299051051939
505.5979731471726
506.0438969773521
506.4668313296494
506.8660036047853
507.2407165671311
507.5903507693749
507.9143666931579
508.2123065949944
508.4837960478639
508.72854516975076
508.9463495314766
509.1370907378343
509.30073667796444
509.43734144279466
509.54704490923217
509.63007199263956
509.68673157084936
509.7174150846085
509.7225948209318
509.7028218875261
509.65872388816285
509.5910023104789
509.50042963914234
509.3878462086414
509.2541568110894
509.1003270754732
508.92737963566026
508.7363901051722
508.52848287736157
508.3048267702418
508.0666305358455
507.81513825453266
507.55162463509913
507.277390241838
506.99375666990284
506.7020616903713
506.40365438637957
506.0998903015598
505.792126621731
505.4817174103992
505.17000891812677
504.8583349852466
504.5480125567996
504.2403373278807
503.93657953675154
503.6379799221537
503.3457458602297
503.06104769536137
502.78501527804394
502.51873472173884
502.263245389466
502.0195371196008
501.78854769898203
501.5711605900819
501.3682029176223
501.18044371863493
501.0085924585735
500.8532978147002
500.71514672658674
500.5946637122395
500.49231044703333
500.4084856013665
500.3435249317174
500.29770161859227
500.2712268437346
500.2642505978816
500.2768627093605
500.30909408293775
500.36091813752404
500.43225243056895
500.52296045630186
500.6328536044154
500.76169326531357
500.90919306766233
501.0750212336596
501.2588030372179
501.460123350142
501.67852926137203
501.913532754433
502.1646134283756
502.431221247729
502.71277930729707
503.00868659802916
503.3183207606243
503.6410408140135
503.9761898464549
504.32309765762864
504.6810833407932
505.0494577947891
505.4275261564426
505.8145901446947
506.2099503085795
506.61290817198034
507.022768268913
507.43884006393506
507.8604397531638
508.2868919422655
508.71753119863166
509.15170347578805
509.5887674088774
510.0280954808086
510.46907505939873
510.91110930655566
511.3536179612679
511.7960379988189
512.2378241692501
512.6784494186581
513.1174051974513
513.5542016601844
513.988367762038
514.4194512573902
514.8470186062594
515.2706547946841
515.6899630752914
516.1045646344703
516.5140981927261
516.9182195448482
517.3166010465962
517.7089310546639
518.0949133266055
518.4742663873099
518.8467228685165
519.2120288277288
519.5699430526619
519.920236357131
520.2626908740344
520.5970993508377
520.9232644526536
521.2409980776383
521.5501206890633
521.850460668128
522.1418536912744
522.4241421353873
522.6971745138472
522.9608049460396
523.2148926626004
523.4593015483424
523.6938997244423
523.9185591711197
524.1331553916427
524.3375671181236
524.5316760592036
524.7153666894102
524.888526079677
525.051043768266
525.2028116710901
525.3437240302026
525.4736773990015
525.5925706625275
525.700305091051
525.796784424973
525.8819149889431
525.9556058330518
526.0177688989457
526.0683192087123
526.1071750743835
526.134258325941
526.1494945557641
526.1528133776052
526.1441486984945
526.123439002195
526.090627642788
526.0456631468247
525.9884995223777
525.9190965732226
525.837420216346
525.7434428009528
525.6371434271939
525.5185082628841
525.3875308564952
525.2442124446721
525.0885622525296
524.9205977850564
524.7403451080411
524.5478391170732
524.3431237933328
524.1262524450539
523.8972879337762
523.6563028847078
523.4033798806357
523.1386116388984
522.8621011710409
522.5739619248652
522.2743179086497
521.9633037973581
521.6410650207191
521.307757833099
520.9635493651442
520.608617657198
520.2431516745427
519.867351304582
519.4814273361189
519.085601420836
518.6801060170636
518.2651843159025
517.8410901497981
517.408087883674
516.9664522887975
516.5164683995811
516.0584313534904
515.5926462141556
515.1194277777703
514.6391003629343
514.1519975840897
513.6584621087146
513.1588453984349
512.6535074342393
512.1428164260101
511.62714850664514
511.10688741104684
510.5824241403076
510.0541566114372
509.5224892929848
508.98783282691227
508.4506036371078
507.9112235249691
507.3701192525273
506.827722113594
506.2844674934919
505.7407944180117
505.19714509225935
504.65396443004835
504.1116995745249
503.5707994107414
503.03171407092225
502.49489443320283
501.960791614646
501.4298564593368
500.90253902231655
500.3792880501107
499.8605504586169
499.3467708091258
498.83839078325224
498.33584865759025
497.8395787789142
497.3500110407121
496.86757036177306
496.3926761675189
495.92574187475157
495.4671743804031
495.0173735548675
494.5767317405081
494.14563325592036
493.7244539065256
493.31356050208467
492.91331038166743
492.5240509465272
492.1461192013066
491.77984130397425
491.425532124864
491.0834948151334
490.7540203849592
490.4373872917886
490.1338610389631
489.84369378499076
489.567123963721
489.30437591565925
489.0556595306395
488.82116990206026
488.6010869929046
488.39557531377824
488.2047836131717
488.0288445801357
487.86787455959427
487.7219732805532
487.5912235974832
487.47569124519373
487.3754246075139
487.2904545000882
487.22079396765673
487.1664380962603
487.1273638408355
487.1035298686785
487.0948764192713
487.1013251810201
487.12277918551763
487.1591227199359
487.2102212581942
487.2759214116203
487.35605089984693
487.45041854265816
487.5588142735126
487.68100917554335
487.81675554089173
487.96578695426433
488.12781840160346
488.30254640477824
488.4896491832126
488.6887868433819
488.89960159707414
489.12171800930804
489.35474327673813
489.5982675373114
489.8518642118849
490.1150903784441
490.3874871794621
490.6685802629176
490.9578802574447
491.25488328202164
491.55907149052706
491.8699136514113
492.1868657626215
492.5093717017945
492.83686391155106
493.1687641195269
493.5044840926177
493.84342642475076
494.18498535733096
494.52854763138436
494.8734933702691
495.21919699168063
495.5650281475873
495.9103526906282
496.25453366539796
496.59693232292415
496.93690915647954
497.2738249567406
497.60704188421323
497.935924556839
498.2598411506665
498.57816451143066
498.8902732748627
499.1955529935407
499.49339726812445
499.78320888098807
500.06440093045205
500.3363979638171
500.59863710718446
500.8505691898492
501.09165986096264
501.3213906960951
501.5392602912356
501.7447853417428
501.9375017037911
502.1169654358487
502.28275381773625
502.43446634482444
502.57172569493287
502.6941786655635
502.8014970792288
502.89337865470185
502.9695478421849
503.02975662061453
503.0737852555292
503.10144301608284
503.112568849949
503.10703201496375
503.08473266640857
503.0456023988845
502.9896047417987
502.91673560755885
502.82702369159676
502.72053082335617
502.5973522674794
502.4576169745017
502.30148778041087
502.12916155445765
501.94086929463106
501.73687617019505
501.5174815106523
501.28301874043797
501.03385525859807
500.7703922626775
500.49306451603314
500.20234005776115
499.8987198543668
499.58273739223847
499.2549582099428
498.9159793692522
498.56642886373805
498.2069649637419
497.8382754965421
497.46107706049634
497.07611417191214
496.6841583433924
496.28600709241556
495.88248287891946
495.4744319707196
495.0627232357193
494.64824685996916
494.23191299071345
493.8146503036831
493.3974044940593
492.9811366906925
492.5668217933392
492.15544673291504
491.74800865505665
491.34551302760127
490.94897167292504
490.5594007264871
490.1778185232987
489.80524341435944
489.4426915155155
489.09117439161616
488.7516966792269
488.42525365159287
488.1128287300436
487.8153909465079
487.5338923622982
487.26926544887266
487.02242043685374
486.7942426401056
486.5855897621475
486.3972891926387
486.2301353021767
486.08488674414326
485.9622637728079
485.8629455873
485.7875677114409
485.7367194197739
485.710941220462
485.7107224060221
485.73649868312134
485.78864989284097
485.86749783293175
485.9733041936774
486.1062686190021
486.26652690441944
486.45414934328574
486.66913923262416
486.91143154949634
487.1808918085638
487.47731511113346
487.8004253955623
488.1498748983246
488.52524383440317
488.9260403049972
489.3517004397625
489.8015887799273
490.2749989077681
490.7711543270498
491.2892095980135
491.82825172939073
492.38730182879453
492.9653170116668
493.56119256776327
494.17376438292985
494.80181161266927
495.4440596026914
496.09918305036746
496.76580939971876
497.4425224613287
498.1278662473627
498.8203490106563
499.51844747564627
500.2206112477796
500.9252673868758
501.6308251288058
502.3356807388181
503.03822247886
503.7368356703387
504.4299078329864
505.1158338797522
505.7930213470814
506.459895639599
507.114905267909
507.7565270580168
508.38327131070434
508.9936868890853
509.58636621261667
510.1599501359932
510.71313269155945
511.2446656741981
511.7533630481334
512.2381051557215
512.6978427090803
513.1316005463021
513.538481134916
513.9176678061683
514.2684277046617
514.5901144390468
514.8821704206758
515.1441288783927
515.3756155388915
515.5763499631793
515.7461465307875
515.8849150649637
515.9926610941366
516.0694857470542
516.115585280958
516.1312502441466
516.1168642761619
516.0729025506398
515.9999298676
515.8985984037394
515.7696451310472
515.6138889157779
515.4322273114908
515.2256330613689
514.9951503263472
514.7418906568171
514.4670287267032
514.1717978495891
513.8574852973722
513.5254274426662
513.1770047467751
512.8136366156565
512.4367761467746
512.0479047902005
511.6485269476317
511.2401645332617
510.82435152048305
510.4026284983271
509.9765372612121
509.5476154551316
509.11739130290067
508.6873784304591
508.2590708154807
507.8339378787111
507.4134197375661
506.9989226405921
506.59181460030703
506.1934212408183
505.8050218753839
505.4278458277572
505.06306900981053
504.7118107665272
504.3751309979477
504.0540275661763
503.74943399406993
503.4622174606976
503.19317709706803
502.94304258406777
502.7124730530419
502.5020562879126
502.3123082262342
502.14367275513024
501.99652179666924
501.8711556758591
501.7678037631407
501.68662538209065
501.62771097190813
501.591083493199
501.57670006457994
501.584453816742
501.61417594980327
501.6656379790871
501.7385541538715
501.8325840331542
501.9473352020492
502.08236611211834
502.23718902876436
502.41127306872215
502.60404731067416
502.8149039621515
503.04320156612556
503.2882682309612
503.54940486777735
503.8258884197323
504.1169750682554
504.4219034018085
504.73989753340436
505.0701701538449
505.41192550843175
505.76436228572163
506.1266764077432
506.498063711983
506.87772251638876
507.2648560596214
507.65867480972577
508.05839863532356
508.46325883440505
508.87250001677813
509.28538183721656
509.70118057727535
510.1191905746383
510.53872549973056
510.95911948019
511.3797280746379
511.79992909797716
512.2191233011754
512.636734909185
513.0522120212701
513.4650268785851
513.8746760044075
514.2806802229252
514.6825845629236
515.0799580531137
515.4723934162214
515.8595066691753
516.2409366368497
516.6163443869627
516.9854125938692
517.3478448390716
517.7033648562583
518.0517157286439
518.3926590462984
518.7259740309764
519.0514566358237
519.3689186271098
519.6781866549038
519.979101319301
520.2715162384604
520.5552971243748
520.8303208719276
521.0964746664004
521.3536551142347
521.6017674014208
521.8407244834876
522.0704463106774
522.2908590914759
522.5018945972515
522.7034895104015
522.8955848179652
523.07812525216
523.2510587788009
523.4143361341531
523.5679104104378
523.7117366898943
523.8457717269431
523.9699736776939
524.084301875785
524.1887166533136
524.2831792053827
524.3676514965522
524.4420962072431
524.5064767179605
524.5607571290756
524.6049023138786
524.6388780025948
524.6626508950433
524.6761887995865
524.6794607960679
524.6724374205027
524.6550908694962
524.6273952226535
524.5893266813231
524.5408638218715
524.4819878615285
524.4126829347655
524.332936378109
524.2427390212785
524.1420854826232
524.0309744669355
523.9094090637939
523.777397044627
523.6349511567321
523.4820894124977
523.3188353721594
523.1452184185719
522.9612740226531
522.7670439983424
522.5625767461396
522.3479274844477
522.1231584681058
521.8883391936563
521.6435465910286
521.3888652014454
521.1243873414234
520.8502132527029
520.5664512379419
520.2732177820349
519.9706376589629
519.658844024164
519.3379784925294
519.0081912021689
518.6696408641396
518.3224947983484
517.966928955859
517.6031279278283
517.2312849412325
516.8516018415501
516.4642890625322
516.0695655831612
515.6676588718883
515.2588048182064
514.8432476516161
514.4212398480688
513.9930420239406
513.5589228175321
513.1191587580407
512.6740341219736
512.2238407769681
511.76887801296476
511.3094523606869
510.84587739738333
510.3784735397683
509.90756782408135
509.43349367321645
508.9565906509391
508.47720420323606
507.99568538685526
507.51239058511254
507.0276812110696
506.5419233982148
506.0554876788138
505.568748650111
505.08208462856686
504.59587729230566
504.1105113119869
503.62637397038486
503.1438547710017
502.6633450360621
502.1852374942926
501.70992585892503
501.2378043963546
500.76926748593513
500.3047091714073
499.8445227044355
499.38910008072304
498.9388315691992
498.4941052347951
498.05530645533725
497.622817433131
497.1970167018449
496.7782786293246
496.36697291695975
495.9634640962674
495.568111023337
495.18126637181376
494.80327612513634
494.4344790687538
494.07520628301086
493.72578063736916
493.3865162866734
493.05771817018945
492.7396815141447
492.4326913385158
492.13702196881417
491.8529365536237
491.5806865886782
491.3205114482855
491.0726379249052
490.8372797776703
490.6146372906635
490.4048968417583
490.20823048283637
490.02479553216267
489.8547341796792
489.6981731060151
489.5552231160829
489.4259787881743
489.3105181394312
489.20890230852103
489.1211752563638
489.0473634858026
488.987475781104
488.9415029681895
488.9094176964989
488.8911742433813
488.88670834189475
488.8959370329073
488.9187585424019
488.95505218491394
489.0046782940329
489.0674781808752
489.1432741213913
489.2318693733902
489.3330482241472
489.44657606943156
489.5721995247533
489.709646569579
489.858626725191
490.0188312668137
490.1899334705933
490.3715888959821
490.5634357039607
490.7650950114227
490.9761712819376
491.19625275305054
491.4249119002255
491.6617059374492
491.90617735443806
492.1578544903175
492.41625214354684
492.6808722177498
492.95120440295966
493.2267268916044
493.5069071284002
493.7912025931513
494.0790616153012
494.3699242189614
494.6632229970159
494.95838401282623
495.2548277280032
495.55196995458255
495.8492228298176
496.1459958117143
496.4416966933376
496.73573263383014
497.0275112040425
497.3164414447003
497.6019349350001
497.8834068694821
498.16027714100954
498.43197142769014
498.6979222816702
498.95757021795407
499.21036480158955
499.45576573151993
499.6932439192395
499.92228256024805
500.1423781962108
500.35304176568957
500.55379964129304
500.7441946510867
500.9237870821228
501.0921556639085
501.2488985296326
501.3936341530245
501.52600225875915
501.6456647043982
501.75230633198476
501.8456357875279
501.92538630676523
501.99131646572795
502.0432108947912
502.08088095507935
502.1041653762437
502.1129308547647
502.1070726120154
502.0865149113791
502.05121153370817
502.0011462104007
501.9363330133491
501.85681670100416
501.76267301978044
501.6540089600323
501.5309629658892
501.3937050983028
501.2424371506787
501.0773927164613
500.89883720801055
500.7070678260835
500.50241347919393
500.285234652104
500.0559232226715
499.8149022262089
499.56262556639945
499.29957767167684
499.0262730958542
498.7432560616906
498.45109994601535
498.1504067049843
497.84180623804764
497.5259556892035
497.20353868407835
496.8752645013714
496.5418671772197
496.2041045410503
495.8627571814985
495.5186273410512
495.1725377381664
494.82533031567823
494.47786491442344
494.1310178712122
493.78568054045
493.4427577389526
493.1031661137934
492.76783243331073
492.43769180168204
492.1136857978232
491.7967605397382
491.48786467576656
491.18794730454067
490.89795582589164
490.6188337253751
490.35151829552655
490.09693829740525
489.8560115664818
489.62964256739826
489.41871990261575
489.22411378053596
489.046673449218
488.8872246022946
488.74656676421256
488.625470662426
488.52467559465987
488.44488679983715
488.3867728417299
488.3509630148256
488.33804478226784
488.3485612561424
488.3830087307197
488.441834279539
488.52543342744485
488.6341479089117
488.7682635241559
488.9280081046308
489.11354959950586
489.3249942946596
489.5623851755849
489.82570044545736
490.1148522094036
490.42968533567296
490.7699765039715
491.13543345075783
491.5256944207928
491.940327833648
492.3788321732193
492.84063610751934
493.3250988452098
493.8315107344596
494.35909410875354
494.90700438322193
495.4743314040034
496.0601010520754
496.66327710183725
497.2827633335316
497.91740589736816
498.5659959259585
499.2272723904262
499.8999251943263
500.58259849826953
501.273894266892
501.9723760285836
502.6765728372186
503.38498342395405
504.096080525996
504.8083153781098
505.5201223515342
506.22992372391366
506.9361345628691
507.63716770491595
508.3314388106612
509.0173714765524
509.6934023829024
510.35798645748787
511.00960203369846
511.6467559820131
512.2679887934596
512.8718795936204
513.4570510657553
514.022174261705
514.5659732794064
515.0872297862182
515.5847873677478
516.0575556824474
516.5045144030128
516.924716926466
517.3172938356621
517.6814560958826
518.0164979711892
518.3217996463248
518.5968295411416
518.8411463058478
519.0544004865649
519.2363358517244
519.3867903710283
519.5056968403662
519.5930831480306
519.6490721795338
519.673881360296
519.6678218373592
519.6312973031474
519.564802466087
519.4689211746586
519.3443242032404
519.1917667098502
519.0120853775886
518.8061952531947
518.5750862975672
518.3198196643654
518.0415237239774
517.7413898511952
517.4206679958838
517.0806620567549
516.722725079049
516.3482542975331
515.9586860467919
515.5554905612969
515.1401666881536
514.7142365358
514.2792400821876
513.8367297660698
513.3882650850103
512.9354072235358
512.4797137344975
512.0227332961778
511.56600056699205
511.1110311589087
510.6593167498653
510.21232035457876
509.7714717721546
509.3381632278343
508.9137452250561
508.49952262279106
508.09675095187384
507.706632982748
507.3303155556779
506.9688866830899
506.6233729322518
506.294737095005
505.983876149732
505.6916195191749
505.4187276261751
505.1658907478926
504.9337281676041
504.72278762171527
504.5335450382065
504.36640456134313
504.22169885613914
504.09968968479046
504.00056874612926
503.9244587680107
503.8714148414896
503.84142598466366
503.83441692316796
503.85025007346826
503.8887277144305
503.9495943320584
504.03253912175023
504.13719863198406
504.26315953309194
504.40996149459477
504.5771001544195
504.7640301632928
504.97016828771405
505.19489655511677
505.4375654250983
505.6974969709937
505.9739880565238
506.2663134927214
506.57372916089093
506.8954750879838
507.230778461456
507.5788565714342
507.9389196688385
508.3101737289443
508.691823110729
509.08307310326865
509.48313235137255
509.89121515354424
510.306543626306
510.7283497299017
511.15587715131966
511.58838304148316
512.0251396043723
512.4654355367409
512.9085773179626
513.3538903504016
513.8007199515372
514.2484321998423
514.6964146371462
515.1440768309211
515.5908508005956
516.0361913125805
516.4795760492084
516.920505657243
517.3585036820596
517.7931163940019
518.2239125137551
518.6504828438215
519.0724398134138
519.4894169442877
519.901068245172
520.3070675424806
520.7071077549986
521.1009001202234
521.4881733799831
521.8686729328841
522.242159960977
522.6084105377643
522.9672147244179
523.3183756608034
523.6617086575895
523.9970402953752
524.3242075364282
524.643056854274
524.9534433859844
525.2552301116615
525.5482870652579
525.8324905805259
526.1077225754761
526.3738698783411
526.630823597621
526.8784785383222
527.1167326660526
527.345486620168
527.5646432767179
527.7741073615326
527.973785113491
528.1635839977048
528.343412468083
528.5131797784975
528.672795841487
528.8221711331884
528.9612166429897
529.0898438661349
529.2079648373542
529.3154922034487
529.4123393326217
529.4984204582875
529.5736508550796
529.6379470447572
529.691227029639
529.7334105512853
529.7644193723698
529.7841775798472
529.7926119074918
529.7896520757857
529.7752311469987
529.7492858932435
529.7117571752194
529.6625903293799
529.6017355612486
529.5291483426606
529.4447898107326
529.3486271664016
529.2406340704067
529.1207910346072
528.9890858066083
528.8455137458234
528.6900781892623
528.5227908054915
528.3436719353722
528.1527509183985
527.9500664036476
527.7356666445187
527.5096097765511
527.2719640776828
527.0228082103805
526.7622314451304
526.4903338648066
526.2072265494565
525.9130317410963
525.6078829881615
525.2919252693022
524.9653150962613
524.6282205956971
524.2808215698744
523.9233095362193
523.5558877457739
523.1787711806016
522.7921865302184
522.396372147152
521.9915779817615
521.578065496418
521.1561075591602
520.7259883169206
520.2880030484066
519.8424579967302
519.3896701819228
518.9299671934924
518.4636869631818
517.9911775181092
517.5127967144703
517.0289119519786
516.5398998692833
516.0461460206637
515.5480445343682
515.0459977529761
514.5404158562045
514.0317164666117
513.5203242386526
513.0066704315548
512.4911924665078
511.97433346869775
511.45654179473127
510.93827054602156
510.41997706869364
509.90212244064446
509.38517094641503
508.8695895405235
508.35584729992064
507.84441486628685
507.3357638789516
506.8303663992393
506.32869432705286
505.83121881045776
505.3384096489741
504.85073469125024
504.3686592277827
503.89264537936856
503.4231514819954
502.96063146891356
502.5055342506566
502.05830309374693
501.61937499881986
501.18918007891557
500.7681409386912
500.3566720552955
499.95517916166824
499.56405863299375
499.18369687704177
498.8144697291617
498.45674185271434
498.1108661457108
497.777183154404
497.4560204945859
497.147692281349
496.852498568057
496.57072479527824
496.30264125046125
496.0485025391282
495.80854706838005
495.5829965435418
495.37205547879125
495.1759107226282
494.9947309990526
494.8286664653448
494.67784828737246
494.5423882333712
494.4223782871498
494.31789028167094
494.2289755539978
494.1556646226572
494.09796688848246
494.05587036000344
494.02934140443784
494.0183245253084
494.02274216772355
494.0424945524181
494.0774595396654
494.1274925241799
494.19242636215745
494.2720713316161
494.36621512716687
494.4746228903426
494.5970372765905
494.73317856000403
494.88274477678567
495.045411908365
495.22083410503814
495.408643950891
495.60845277064584
495.81985097902657
496.04240847316794
496.2756750685146
496.51918097856725
496.7724373387336
497.03493677441094
497.30615401329123
497.58554654174606
497.87255530504535
498.16660545102883
498.4671071166858
498.77345625691373
499.0850355145492
499.4012151305253
499.72135389283665
500.0448001228769
500.3708926975311
500.69896210521307
501.0283315339061
501.35831798915575
501.68823343984354
502.0173859894477
502.3450810703632
502.6706226587164
502.9933145070042
503.31246139182144
503.6273703739062
503.937352067704
504.2417219176292
504.53980147821426
504.83091969538947
505.11441418624673
505.3896325148831
505.65593346202445
505.9126882860347
506.1592819728113
506.3951144720414
506.6196019172301
506.8321778268757
507.03229428416944
507.2194230926031
507.3930569048553
507.55271032232946
507.6979209627514
507.828250493295
507.94328562673326
508.04263907816744
508.1259504800537
508.1928872534732
508.24314543381587
508.2764504493093
508.29255785110365
508.29125399385896
508.2723566659406
508.23571566844834
508.1812133424146
508.1087650436358
508.01831956469556
507.9098595038287
507.78340158035235
507.6389968964613
507.47673114527004
507.2967247650768
507.0991330398832
506.8841461462544
506.65198914660766
506.4029219290201
506.1372390936047
505.8552697855011
505.55737747453645
505.243959681596
504.91544765171153
504.57230597378316
504.2150321467109
503.8441560916036
503.4602396096562
503.0638757851981
502.655688333365
502.2363308918131
501.80648625582006
501.36686555605957
500.91820737830545
500.46127682430193
499.9968645130392
499.52578552164476
499.04887826507706
498.56700331386855
498.08104214924094
497.5918958549491
497.100483745253
496.6077419284643
496.11462180558533
495.6220885036929
495.13111924394815
494.64270164440916
494.1578319580998
493.6775132470655
493.2027534934269
492.7345636487324
492.27395562317014
491.82194021649
491.37952499282943
490.94771210201765
490.52749605029237
490.1198614237668
489.7257805684338
489.34621123095167
488.9820941649053
488.63435070767343
488.30388033348214
487.9915581886729
487.69823261570394
487.4247226728857
487.17181565732164
486.94026463895125
486.7307860139913
486.54405708643685
486.38071368661485
486.2413478361082
486.1265054686342
486.0366842167015
485.9723312741007
485.93384134446245
485.9215546862146
485.93575526431465
485.9766690191149
486.04446226267424
486.13924021269816
486.2610456741177
486.40985787806045
486.58559148762873
486.78809577954127
487.01715401025655
487.2724829746698
487.5537327649011
487.86048673605507
488.192261685103
488.5485082482561
488.92861152137885
489.33189190707407
489.75760619111816
490.20494884992036
490.6730535896776
491.1609951168492
491.6677911384834
492.1924045898257
492.7337460855217
493.2906765895717
493.8620102980996
494.4465177279194
495.04292900276783
495.64993732795915
496.2662026431421
496.89035544178006
497.52100074493563
498.1567222159543
498.796086401725
499.43764708529005
500.07994973372445
500.7215360244932
501.36094843286827
501.99673486247576
502.62745330061307
503.25167647968505
503.86799652585125
504.475029575789
505.07142034241326
505.6558466104216
506.22702364261244
506.7837084781103
507.32470410390107
507.84886348148586
508.3550934110008
508.84235821579944
509.3096832311883
509.7561580817355
510.18093973237814
510.58325529941925
510.96240460848065
511.317762487505
511.64878078394594
511.9549900962207
512.2360012102841
512.4915062332975
512.7212794180125
512.9251776732366
513.1031407574008
513.2551911539581
513.3814336290684
513.4820544736439
513.5573204334248
513.607577332394
513.6332483965369
513.6348322865318
513.612900849507
513.5680966014685
513.5011299533722
513.4127761949563
513.3038722514203
513.1753132288559
513.0280487650529
512.8630792029243
512.6814516043974
512.4842556232203
512.2726192557269
512.0477044890519
511.81070286662424
511.56283099101734
511.3053259843779
511.0394409266625
510.76644029178436
510.4875954015668
510.2041799170447
509.91746538622414
509.62871686694535
509.3391886429044
509.0501200502129
508.7627314311632
508.4782202310435
508.19775725290174
507.922483084171
507.65350470801366
507.3918923111369
507.1386762987291
506.8948445259923
506.6613397545231
506.43905734048303
506.2288431601743
506.0314917773372
505.84774485519404
505.6782898149403
505.52375874106724
505.3847275326038
505.26171529812444
505.1551839912058
505.06553828185486
504.9931256582492
504.9382367519831
504.90110587902967
504.8819117877531
504.8807786044535
504.8977769661401
504.93292532951796
504.9861914444908
505.05749397986983
505.14670428846273
505.25364829834666
505.37810851683804
505.5198261334652
505.67850320814256
505.8538049307276
506.0453619382048
506.25277267588626
506.47560578925004
506.7134025333177
506.9656791868134
507.2319294587488
507.5116268755811
507.8042271376368
508.10917043410245
508.425883706518
508.7537828513729
509.0922748530772
509.4407598392952
509.7986330513995
510.1652867235957
510.54011186506995
510.92249994034665
511.31184444384957
511.70754236546986
512.1089955447518
512.5156119120777
512.9268066159972
513.3420030365714
513.760633685331
514.1821409931392
514.6059779878913
515.0316088645992
515.4585094510101
515.8861675724295
516.3140833198926
516.7417692262434
517.1687503550723
517.5945643078386
518.0187611548137
518.4409032956912
518.8605652559354
519.2773334251193
519.6908057436082
520.1005913440009
520.5063101537519
520.9075924653886
521.3040784806369
521.6954178346621
522.0812691064808
522.461299321432
522.8351834513884
523.2026039181596
523.5632501052589
523.916817882852
524.2630091503758
524.6015314009851
524.9320973116271
525.2544243621725
525.5682344866785
525.8732537594632
526.1692121182848
526.4558431265939
526.7328837764443
527.0000743332591
527.2571582232455
527.5038819639097
527.7399951377517
527.9652504088548
528.1794035817276
528.38221370144
528.5734431937772
528.7528580438828
528.9202280116396
529.0753268818147
529.2179327468166
529.3478283197005
529.4648012748887
529.5686446139322
529.6591570535313
529.7361434329644
529.7994151380785
529.8487905390103
529.8840954387997
529.9051635301092
529.9118368573679
529.9039662818578
529.8814119475966
529.8440437460737
529.7917417778684
529.7243968091188
529.6419107208138
529.5441969488455
529.4311809127863
529.302800431421
529.1590061232099
528.9997617899049
528.8250447815561
528.6348463412266
528.4291719277862
528.2080415152144
527.9714898669222
527.7195667837606
527.4523373246125
527.1698819987257
526.8722969291556
526.5596939869221
526.2322008957286
525.889961307223
525.5331348468638
525.161897130562
524.7764397524114
524.3769702438967
523.963712005039
523.536904208021
523.0968016739231
522.6436747232663
522.1778090011201
521.6995052776302
521.2090792248194
520.7068611704854
520.1931958300539
519.6684420172211
519.132972334224
518.5871728425743
518.0314427150943
517.4661938700766
516.8918505883621
516.3088491140712
515.717637239694
515.118673876231
514.5124286091088
513.8993812405927
513.2800213193459
512.6548476577748
512.024367837797
511.3890977056643
510.74956085645556
510.10628810880587
509.45981697040344
508.8106910947599
508.159459729765
507.50667715859214
506.85290213348003
506.198697302873
505.5446286323978
504.89126482016536
504.2391767068837
503.5889366812558
502.9411180811247
502.2962945908018
501.65503963496815
501.01792576949117
500.38552406950913
499.75840351517223
499.137130375429
498.52226759027184
497.9143741518513
497.31400448484897
496.72170782646765
496.1380276063842
495.56350082700146
494.9986574442977
494.44401974953394
493.90010175206345
493.3674085634851
492.8464357834143
492.33766888721004
491.84158261601203
491.3586403694418
490.88929360136405
490.43398121911116
489.9931289865722
489.5671489315622
489.1564387579337
488.76138126291596
488.38234376017743
488.01967750912115
487.6737171509574
487.34478015212795
487.0331662556933
486.7391569413712
486.46301489495625
486.2049834878483
485.9652862674734
485.7441264594631
485.54168648254114
485.35812747708127
485.1935888483166
485.04818782527025
484.9220190365473
484.8151541041496
484.7276412564869
484.6595049617893
484.61074558319666
484.5813390568626
484.5712365944762
484.5803644116688
484.60862348377844
484.6558893304462
484.722011830542
484.80681506893626
484.9100972166338
485.03163044580083
485.1711608812305
485.3284085897938
485.50306760939674
485.6948060189571
485.9032660508717
486.12806424738267
486.36879166219677
486.62501410863786
486.8962724555251
487.1820829718941
487.48193772158396
487.79530500859016
488.12162987391724
488.4603346445235
488.8108195348083
489.17246330095924
489.54462394832217
489.92663949181326
490.3178287692189
490.7174923070415
491.1249132383549
491.5393582719278
491.96007871164863
492.3863115250441
492.8172804594877
493.2521972045145
493.69026259848147
494.1306678775513
494.57259596474483
495.0152227966614
495.45771868529994
495.8992497122115
496.3389791520729
496.7760689225922
497.209681057532
497.6389791995679
498.0631301096345
498.48130518937796
498.89268201330395
499.2964458671983
499.691791289457
500.07792361208675
500.4540604982528
500.8194334732391
501.1732894455295
501.51489221458974
501.8435239618615
502.1584867214791
502.4591038271984
502.74472133205006
503.0147093972784
503.26846364717056
503.5054064863605
503.7249883761618
503.9266890664852
504.1100187800049
504.2745193453741
504.4197652764981
504.5453647951316
504.6509607943799
504.73623174099185
504.8008925146002
504.84469518232356
504.8674297073552
504.86892459034783
504.8490474426255
504.80770549049885
504.7448460101399
504.6604566925926
504.554565938641
504.4272430833842
504.27859855046216
504.10878393599177
503.9179920224063
503.70645672245985
503.4744529536814
503.22229644362284
502.9503434662943
502.658990510246
502.3486738787965
502.01986922290627
501.67309100720945
501.30889190972783
500.92786215579537
500.5306287866858
500.11785486337203
499.69023860582786
499.2485124682707
498.79344215069466
498.3258255469881
497.8464916299233
497.3562992732792
496.8561360113496
496.34691673608756
495.8295823321548
495.30509825020073
494.77445301871364
494.2386566948314
493.6987392545846
493.15574892308234
492.61075044518753
492.0648232972825
491.5190598408118
490.9745634183987
490.43244639349246
489.89382813468643
489.3598329460676
488.83158794521614
488.31022089077874
487.7968579618462
487.2926214916647
486.7986276584826
486.31598413662425
485.8457877111797
485.389121860012
484.9470543071227
484.5206345517661
484.1108913780835
483.718830350443
483.34543130005665
482.9916458088437
482.65839469688825
482.3465655202222
482.0570100860691
481.7905419930671
481.5479342043288
481.3299166614844
481.1371739481391
480.9703430114521
480.8300109507908
480.7167128826107
480.6309298908273
480.5730870720541
480.5435516851999
480.5426314149722
480.57057275878805
480.6275595464874
480.713711602109
480.82908355679916
480.97366382168263
481.14737372921843
481.35006685119595
481.5815285010548
481.8414754276544
482.1295557070894
482.4453488385719
482.788366049723
483.15805081587354
483.55377959716213
483.97486279637246
484.42054593956027
484.8900110805814
485.3823784296684
485.8967082052006
486.43200270680427
486.98720860691157
487.561219456843
488.1528784024087
488.76098110294595
489.3842788466547
490.0214818540671
490.6712627604709
491.3322602671046
492.0030829499434
492.68231321395535
493.3685113798027
494.06021988910356
494.7559676135544
495.45427425242883
496.15365480228496
496.8526240821223
497.54970129675684
498.243414620849
498.9323057857778
499.61493465129985
500.2898837437082
500.955762742116
501.6112128945883
502.2549113460249
502.88557535989935
503.50196641622665
504.1028941685581
504.6872202432888
505.25386186515647
505.8017952934673
506.33005905423096
506.83775695409685
507.3240608628048
507.78821325176125
508.22952947729345
508.64739979798765
509.0412911163023
509.41074843558215
509.7553960248913
510.0749382856975
510.3691603161131
510.63792817003826
510.88118881013145
511.09896975508855
511.2913784231972
511.4586011756069
511.60090206434734
511.7186212917612
511.81217338963506
511.88204512788053
511.9287931640096
511.95304144582593
511.95547838076857
511.9368537861877
511.89797563557136
511.8397066164232
511.7629605161502
511.66869845290967
511.5579249689287
511.43168400429795
511.29105476959444
511.1371475359679
510.9710993615489
510.7940697731801
510.607236422494
510.4117907352691
510.20893357285263
509.99987092413346
509.78580964617515
509.5679532712558
509.34749789762026
509.1256281805997
508.9035134399888
508.68230389876544
508.46312706740014
508.24708428711216
508.03524744443837
507.82865586842433
507.6283134206347
507.4351857870819
507.25019798004774
507.0742320565641
506.90812505907627
506.75266718261923
506.6086001716112
506.47661594814036
506.35735547238266
506.2514078345685
506.159309576722
506.0815442412093
506.01854214200415
505.9706803535648
505.93828291121446
505.9216212159215
505.9209146354809
505.93633129331465
505.9679890353814
506.0159565649967
506.0802547347529
506.16085798420664
506.25769591160355
506.37065496752626
506.49958025802124
506.64427744451046
506.8045147276367
506.9800249021456
507.17050746997785
507.3756307988309
507.59503431362
507.82833070855816
508.0751081679423
508.3349325841245
508.60734976158017
508.8918875964477
509.188058221453
509.49536010670863
509.8132801074698
510.1412954505884
510.4788756520728
510.8254843588589
511.1805811086498
511.54362300240444
511.914066284786
512.2913678286001
512.6749865199903
513.0643845418962
513.4590285540253
513.8583907682826
514.2619499193028
514.6691921303762
515.0796116756841
515.4927116403782
515.9080044806676
516.3250124865988
516.7432681506951
517.162314446003
517.5817050174707
518.0010042910001
518.4197875049049
518.8376406688159
519.2541604552684
519.6689540293878
520.0816388222524
520.4918422537046
520.8992014104465
521.303362685313
521.7039813835822
522.1007213021662
522.493254287422
522.8812597771755
523.2644243323733
523.6424411636486
524.0150096578842
524.3818349096309
524.7426272619762
525.0971018611561
525.4449782289275
525.7859798564508
526.1198338230987
526.4462704432711
526.7650229439539
527.0758271754269
527.3784213572128
527.6725458610437
527.9579430323311
528.2343570512867
528.5015338345046
528.7592209774148
529.0071677376079
529.2451250587446
529.4728456345383
529.6900840120661
529.8965967333608
530.0921425139842
530.2764824570726
530.449380301177
530.6106027000352
530.7599195322568
530.8971042387636
531.021934185707
531.1341910505685
531.2336612291157
531.3201362608746
531.3934132707703
531.4532954246547
531.4995923965961
531.5321208460405
531.5507049031083
531.5551766603153
531.5453766688772
531.5211544376631
531.4823689327857
531.4288890758016
531.360594238504
531.2773747323489
531.1791322906626
531.0657805417623
530.9372454711233
530.7934658706486
530.6343937730395
530.4599948692571
530.2702489071447
530.0651500694853
529.8447073299698
529.6089447857854
529.3579019657087
529.0916341127379
528.8102124404667
528.5137243625054
528.2022736943932
527.8759808275818
527.5349828751866
527.179433789288
526.8095044496163
526.4253827234925
526.0272734969552
525.6153986770626
525.1899971654578
524.7513248033378
524.2996542879054
523.8352750603759
523.3584931656444
522.8696310837972
522.3690275336837
521.8570372487693
521.334030725535
520.8003939447135
520.2565280656601
519.7028490941888
519.1397875242334
518.5677879537271
517.9873086751231
517.3988212410065
516.80281000525
516.1997716402138
515.5902146305147
514.9746587439085
514.3536344798543
513.7276824964124
513.0973530162269
512.4632052123562
511.8258065747241
511.18573225799923
510.5435644117889
509.89989149406534
509.25530756876935
508.6104115885664
507.9658066637583
507.32209931841027
506.6798987347826
506.03981598713693
505.4024632659896
504.76845309391996
504.13839753406086
503.5129073924282
502.89259141524303
502.27805548240394
501.6699017983121
501.06872808125934
500.475126752555
499.8896841265186
499.3129796024395
498.74558485957596
498.1880630562744
497.6409680342627
497.1048435291648
496.5802223883105
496.0676257969119
495.5675625136607
495.0805281167645
494.60700426139186
494.14745794947885
493.70234081283905
493.27208841050117
492.85711954120467
492.45783557195625
492.0746197835179
491.70783673367777
491.35783163908576
491.02492977641316
490.70943590361657
490.4116337020547
490.1317852401784
489.8701304595258
489.6268866837875
489.40224815174764
489.1963855749464
489.00944572088497
488.8415510225582
488.6927992150656
488.56326300007805
488.45298973897417
488.362001175455
488.2902931884085
488.2378355757979
488.20457187036436
488.19041918793005
488.1952681090779
488.2189825950046
488.2613999383649
488.32233074995827
488.40155898207206
488.4988419893035
488.61391062767757
488.74646939285674
488.8961965982268
489.06274459359827
489.24574002520797
489.44478413769264
489.65945311872076
489.8892984869034
490.13384752351885
490.3926037484829
490.6650474408937
490.95063620437077
491.24880557733024
491.5589696882666
491.8805219560578
492.212835835233
492.55526560599355
492.9071472086243
493.267799121808
493.63652328425457
494.0126060589576
494.39531923920987
494.7839210953115
495.17765746069625
495.57576285602096
495.9774616496169
496.3819692525584
496.7884933464126
497.19623514155046
497.6043906637688
498.0121520668484
498.41870896852356
498.823249807174
499.22496321640546
499.62303941460283
500.01667160649043
500.40505739374584
500.7874001917079
501.1629106492138
501.53080806860174
501.89032182293766
502.24069276764334
502.58117464386675
502.9110354710226
503.22955892589516
503.5360457055719
503.82981487141603
504.1102051712398
504.3765763368138
504.62831035383675
504.86481270154195
505.085513559177
505.2898689766043
505.4773620062615
505.64750379370366
505.7998346239719
505.93392492111536
506.0493761983327
506.14582195640173
506.22292852833243
506.2803958685115
506.31795828491545
506.3353851132199
506.33248133180484
506.30908811680354
506.2650833365077
506.2003819846378
506.11493655213894
506.00873733731964
505.8818126942818
505.73422921973344
505.5660918783885
505.37754406718676
505.16876761864063
504.9399827436623
504.69144791423946
504.42345968634265
504.136352463458
503.83049820114906
503.50630605308055
503.1642219589069
502.8047281744176
502.4283427443214
502.0356189180612
501.62714450900864
501.2035411973045
500.76546377651533
500.3135993442223
499.84866643661525
499.37141410711166
498.8826209489561
498.38309406170333
497.873667961429
497.35520343451134
496.82858633483596
496.29472632426143
495.75455555616844
495.2090273019429
494.6591145202836
494.10580836927795
493.55011666126785
492.99306226062754
492.4356814246599
491.8790220879207
491.32414209037063
490.7721073499391
490.22398998028825
489.68086635481575
489.1438151181816
488.6139151469276
488.09224346104884
487.5798730886686
487.07787088626225
486.5872953171571
486.1091941913751
485.64460237025366
485.19453943965857
484.7600073560135
484.34198806979003
483.94144113150884
483.559301285737
483.1964760589673
482.8538433476615
482.5322490131461
482.23250449043
481.9553844184349
481.70162429946964
481.4719181960773
481.266916473688
481.08722359779586
480.9333959945912
480.8059399841654
480.70530979558725
480.63190567326114
480.58607208405516
480.5680960346971
480.578205508916
480.616568033729
480.68328938411446
480.77841243513177
480.9019161702529
481.05371485433665
481.2336573792996
481.44152679011984
481.67703999830866
481.9398476894042
482.2295344303928
482.54561898226405
482.88755482217084
483.25473087884325
483.64647248405765
484.06204254208393
484.50064291811714
484.9614160457384
485.4434467524514
485.94576430131406
486.46734464558455
487.00711289227655
487.5639459695043
488.13667549148187
488.7240908140153
489.3249422722828
489.9379445916566
490.5617804612885
491.1951042591982
491.8365459166952
492.48471490911146
493.1382043589812
493.79559523698947
494.4554606452548
495.1163701668252
495.77689426474234
496.43560871363917
497.09109904652945
497.74196499918025
498.3868249342283
499.0243202270672
499.6531195955297
500.2719233555299
500.8794675850127
501.47452817878053
502.05592477710053
502.62252455143727
503.17324583119836
503.7070615559959
504.22300253854564
504.72016052397885
505.1976910320769
505.65481596974047
506.09082600192164
506.5050826701941
506.8970202489458
507.266147329952
507.61204812710247
507.93438349440424
508.2328916520189
508.5073886167632
508.75776833512634
508.98400251846385
509.18614018152454
509.3643068869138
509.5187036995639
509.64960585686765
509.75736116174994
509.842388107529
509.9051737448758
509.94627130244993
509.9662975739159
509.9659300849924
509.94590405492266
509.9070091673846
509.8500861664883
509.7760232941296
509.68575258556405
509.58024604059216
509.46051168817684
509.32758956265525
509.18254760993665
509.02647754222005
508.860490659792
508.6857136583926
508.50328444049586
508.31434794864566
508.1200520386573
507.92154341013634
507.7199636113538
507.51644513494574
507.3121076202094
507.1080541770264
506.905367845627
506.70510820559866
506.5083081465977
506.3159708121548
506.12906672690735
505.9485311164855
505.7752614281482
505.6101150591182
505.45390729841625
505.3074094867716
505.17134739796273
505.0463998437429
504.93319750331443
504.83232197713477
504.7443050636669
504.6696282565328
504.6087224584039
504.5619679069005
504.52969430678047
504.5121811617433
504.50965829830204
504.52230657331916
504.5502587560057
504.5936005745051
504.65237191659645
504.7265681735379
504.816141715633
504.92100348772686
505.04102471251
505.1760386892792
505.3258426756492
505.49019983964286
505.6688412696091
505.86146802952715
506.0677532474547
506.28734422512787
506.51986455701206
506.7649162474637
507.0220818151041
507.2909263739752
507.57099968157956
507.86183814445957
508.1629667725638
508.47390107430243
508.79414888487713
509.1232121211633
509.4605884571231
509.805772914462
510.15825936400347
510.5175419339836
510.8831163221877
511.254481009598
511.63113837393655
512.0125957021629
512.3983661016438
512.7879693103731
513.1809324072432
513.5767904239631
513.9750868608165
514.3753741089548
514.7772137824226
515.1801769635775
515.583844365982
515.9878064192044
516.3916632802692
516.7950247767673
517.1975102868661
517.59874856168
517.9983774956147
518.3960438503643
518.791402938335
519.184118271266
519.5738611798222
519.9603104098414
520.3431517008063
520.7220773520116
521.0967857817383
521.4669810845952
521.8323725919233
522.1926744398842
522.5476051495851
522.8968872233178
523.2402467607047
523.5774130982195
523.9081184752308
524.2320977293629
524.5490880236237
524.8588286073849
525.1610606130189
525.455526889699
525.7419718755227
526.020141508777
526.289783178805
526.5506457165881
526.8024794248074
527.04503614686
527.2780693740411
527.5013343898569
527.7145884501667
527.9175909975993
528.1101039084334
528.2918917699643
528.4627221861982
528.6223661095944
528.7705981964821
528.9071971836778
529.0319462838145
529.1446335968822
529.2450525354902
529.3330022614352
529.4082881312069
529.4707221481793
529.5201234194128
529.5563186152381
529.579142429997
529.5884380423369
529.584057573385
529.5658625410351
529.5337243085804
529.4875245259315
529.427155561748
529.352520924917
529.2635356738899
529.1601268123735
529.0422336698433
528.9098082653202
528.7628156528812
528.6012342474232
528.425056129316
528.2342873267264
528.0289480746707
527.8090730500767
527.5747115823611
527.3259278391803
527.062800987127
526.7854253272658
526.4939104054846
526.1883810977714
525.8689776706339
525.5358558169684
525.1891866677169
524.8291567796889
524.4559680999519
524.0698379072302
523.6709987308069
523.2596982473889
522.8361991563278
522.4007790335743
521.9537301647746
521.4953593579501
521.0259877362006
520.5459505107665
520.0555967347572
519.5552890378934
519.0454033426122
518.5263285618801
517.9984662790497
517.4622304100561
516.9180468482415
516.3663530920643
515.8075978559726
515.2422406646925
514.6707514311763
514.0936100184616
513.5113057856961
512.9243371186143
512.3332109448058
511.73844223412874
511.14055348463535
510.54007419438125
509.9375403194501
509.33349371852813
508.72848158440974
508.12305586284754
507.51777265914626
506.91319163290603
506.3098753813135
505.70838881138127
505.1092985015873
504.5131720534155
503.92057743333527
503.33208230580095
502.748253357877
502.16965561614467
501.59685175654295
501.03040140777654
500.4708604489267
499.91878030190037
499.37470721931726
498.839181568462
498.3127371119611
497.7959002858865
497.2891894760253
496.79311429306415
496.30817484745694
495.83486102477394
495.3736517623397
494.9250143279822
494.48940360174964
494.0672613614775
493.659015573102
493.2650796866421
492.88585193881147
492.5217146632573
492.17303360946033
491.84015727133954
491.5234162266415
491.22312248825176
490.93956886856745
490.6730283580882
490.42375351940603
490.19197589780816
489.9779054497541
489.78172999052657
489.6036146623714
489.44370142447025
489.3021085661114
489.17893024444123
489.0742360482056
488.98807058893135
488.9204531209929
488.8713771920446
488.840810325281
488.8286937350135
488.83494207707474
488.8594432355577
488.90205814732974
488.96262066575116
489.04093746502235
489.1367879865745
489.24992442886827
489.38007178194175
489.5269279079974
489.6901636692903
489.86942310450945
490.0643236547659
490.2744564402542
490.4993865885626
490.7386536154366
490.9917718586448
491.25823096549453
491.5374964344394
491.82901021110024
492.13219133886736
492.44643666410354
492.7711215958131
493.10560091945734
493.44920966441873
493.8012640244507
494.1610623302741
494.5278860732984
494.90100097923056
495.27965813011383
495.6630951331114
496.0505373341233
496.4411990741471
496.83428498609686
497.2289913296087
497.6245073611996
498.02001673696117
498.4146989447973
498.80773076304206
499.19828774217444
499.5855457062513
499.96868227059343
500.346878372252
500.71931980979593
501.0851987889577
501.4437154706063
501.7940795175178
502.1355116365171
502.4672451127405
502.7885273329251
503.0986212946609
503.3968070984027
503.6823834188946
503.9546689525801
504.2130038375903
504.4567510429709
504.6852977238795
504.8980565395701
505.0944669310261
505.27399635507163
505.436141471812
505.5804292823084
505.7064182135189
505.813699147744
505.9018963940373
505.97066859930527
506.01970959713753
506.0487491927504
506.05755388270035
506.04592750826833
506.01371184161906
505.9607871040112
505.8870724154974
505.7925261757825
505.6771463761317
505.5409708423729
505.3840774091373
505.20658402557626
505.0086487929348
504.7904699344833
504.55228569836953
504.294374193975
504.01705316235007
503.72067968132217
503.40564980590784
503.0723981446779
502.7213973727668
502.3531576821966
501.9682261701737
501.56718616602546
501.1506564973809
500.7192906961343
500.2737761446473
499.81483316255407
499.3432140344731
498.8597019788758
498.36511005830545
497.86028003115104
497.3460811451761
496.8234088729706
496.29318358947086
495.7563491917094
495.21387166097605
494.66673756759957
494.1159525185888
493.56253954838104
493.0075374529792
492.4519990678364
491.896989489928
491.3435842445352
490.7928673973519
490.2459296126918
489.70386615880017
489.1677748615552
488.63875400811594
488.11790020238266
487.60630617440216
487.10505854609187
486.6152355559545
486.1379047457866
485.6741206127387
485.22492223045066
484.7913308433593
484.37434743869375
483.97495030108126
483.5940925550738
483.2326997013074
482.8916671524345
482.5718577753768
482.2740994468351
481.9991826293827
481.74785797583854
481.520833969995
481.3187746120909
481.1422971576799
480.9919699187975
480.86831013660645
480.7717819349221
480.70279436416195
480.6616995453104
480.64879092352663
480.66430164103787
480.7084030389401
480.7812032974224
480.8827462237711
481.01301019725145
481.1719072796692
481.35928250007646
481.5749133216554
481.8185092983532
482.0897119283021
482.38809471042725
482.71316340997356
483.06435653798155
483.4410460489505
483.84253826011667
484.2680749949151
484.71683495226154
485.18793530224826
485.6804335077858
486.19332937069896
486.7255672997581
487.27603879705276
487.843585157983
488.42700037901733
489.0250342663232
489.6363957373315
490.2597563062567
490.893753743524
491.53699589801255
492.18806467003805
492.8455201220316
493.5079047129337
494.17374764148116
494.84156928278446
495.5098857018638
496.17721322715545
496.8420730664415
497.5029959472554
498.15852676351244
498.8072292098968
499.44769038531945
500.07852534661396
500.6983815936309
501.3059434670081
501.8999364400984
502.4791312868401
503.04234810772203
503.5884601964797
504.1163977307742
504.6251512707751
505.113775050261
505.58139004555824
506.0271868084237
506.4504280498654
506.85045096291657
507.2266692734223
507.57857500880317
507.90573997557965
508.20781693745056
508.484540487133
508.7357276069209
508.9612779147485
509.1611735943061
509.33547900944086
509.48434000467705
509.60798289521
509.7067131512299
509.7809137830575
509.83104343526605
509.85763419958545
509.8612891579173
509.8426796681523
509.802542406622
509.741676181975
509.66093853606475
509.5612421481571
509.44355105944356
509.308876735498
509.15827398490217
508.9928367527992
508.8136938085945
508.6220043474131
508.41895352515235
508.20574794705794
507.9836111297447
507.7537789565212
507.51749514573504
507.27600675161665
507.03055971673126
506.78239449467964
506.53274176117094
506.28281823106045
506.03382259827646
505.7869316147375
505.54329632344565
505.3040384599626
505.0702470354637
504.8429751134758
504.6232367912546
504.4120043955729
504.21020590148356
504.01872258137126
503.838386890346
503.66998059275124
503.5142331332458
503.3718202546289
503.24336286329236
503.12942614188194
503.03051890745934
502.94709321220586
502.8795441825203
502.82821009121756
502.7933726564245
502.7752575597529
502.7740351754003
502.78982150094754
502.82267927977097
502.87261930421926
502.9396018880854
503.02353849635375
503.12429351970303
503.2416861808136
503.37549255915707
503.52544772068063
503.6912479386013
503.87255299146574
504.06898852468515
504.2801484618234
504.5055974520672
504.7448733405624
504.9974896486238
505.2629380512283
505.5406908396343
505.8302033574554
506.13091639908987
506.44225856002566
506.76364852918147
507.0944973141213
507.43421039068306
507.7821897692837
508.1378359709131
508.50054990663153
508.8697346551656
509.2447971340225
509.6251496603417
510.01021139846165
510.3994096919117
510.7921812783338
511.1879733866406
511.586244716477
511.98646630072085
512.3881222523835
512.7907103978692
513.1937427991475
513.5967461679555
513.9992621756783
514.4008476630014
514.8010747538576
515.1995308785619
515.5958187113752
515.98955602803
516.380375488982
516.7679243543378
517.15186413657
517.5318701972247
517.9076312938377
518.2788490833073
518.6452375880127
519.006522630943
519.3624412459892
519.7127410693618
520.0571797179148
520.395524159996
520.7275500842305
521.0530412713643
521.3717889739895
521.6835913086674
521.9882526646684
522.2855831332708
522.5753979612111
522.8575170315833
523.1317643751469
523.3979677146581
523.6559580444427
523.9055692470772
524.1466377487138
524.3790022142617
524.6025032832616
524.8169833469285
525.0222863664817
525.2182577326306
525.4047441658324
525.5815936566759
525.7486554454969
525.9057800400595
526.052819269915
526.1896263758974
526.3160561330852
526.4319650053623
526.537211329573
526.63165552719
526.715160341402
526.7875910975285
526.8488159846955
526.8987063566958
526.9371370500209
526.9639867172076
526.9791381739313
526.9824787584232
526.9739007017988
526.9533015077473
526.9205843399199
526.8756584152912
526.8184394016913
526.7488498176868
526.6668194330585
526.57228566821
526.4651939908161
526.3454983079818
526.2131613521408
526.0681550588992
525.9104609350433
525.7400704150757
525.5569852048365
525.361217610976
525.152790855172
524.9317393721175
524.6981090904595
524.4519576960375
524.1933548768196
523.9223825490263
523.6391350639869
523.3437193953351
523.0362553062218
522.7168754962834
522.3857257281726
522.0429649334602
521.6887652977215
521.323312324637
520.9468048789616
520.5594552082478
520.1614889431443
519.7531450760658
519.334675918031
518.906347033488
518.4684371529513
518.0212380632918
517.5650544755305
517.1002038700273
516.6270163189618
516.1458342860346
515.6570124033162
515.1609172251976
514.6579269594231
514.1484311752278
513.6328304886453
513.1115362250482
512.5849700590238
512.0535636317633
511.51775814620595
510.97800394021056
510.434760038065
509.88849368074966
509.3396798354426
508.7888006847857
508.236345096473
507.68280807379523
507.12869018783806
506.5744969920582
506.0207384200107
505.4679281671041
504.9165830573129
504.3672223958118
503.8203673085424
503.27654006979986
502.7362634189223
502.2000598671806
501.668450996019
501.1419567478394
500.6210947105571
500.1063793971564
499.59832152147374
499.0974272714534
498.6041975811405
498.1191274026538
497.6427049793452
497.1754111213262
496.71771848452227
496.27009085442216
495.83298243571414
495.40683714897506
494.9920879355391
494.58915607167444
494.19845049321236
493.8203671317473
493.4552882634782
493.10358187173205
492.76560102415954
492.44168326553
492.13215002697956
491.8373060525577
491.5574388439258
491.2928181240581
491.043695320743
490.810303070642
490.59285474466355
490.3915439954156
490.20654432747494
490.03800869116026
489.8860691004297
489.75083627549833
489.6323993107705
489.53082536867134
489.44615939992474
489.37842389081413
489.32761863797106
489.29372055122417
489.2766834850417
489.27643809908875
489.2928917484227
489.32592840386957
489.37540860312265
489.44116943308904
489.52302454401945
489.620764195977
489.73415533821566
489.8629417220195
490.00684404753946
490.16556014513145
490.33876519167035
490.5261119622633
490.7272311177642
490.94173152849237
491.1692006345851
491.4092048434062
491.6612899643908
491.92498168162825
492.19978606442044
492.48519011600314
492.7806623605425
493.0856534683956
493.39959691952487
493.72190970487384
494.0519930654368
494.38923326868144
494.73300242191664
495.08265932209
495.43755034136757
495.79701034770784
496.16036365951567
496.52692503330604
496.8960006831007
497.2668893301049
497.6388832810729
498.01126953365826
498.383330906917
498.75434719500805
499.12359634205455
499.4903556360564
499.8539029196413
500.21351781530217
500.56848296264417
500.91808526508015
501.26161714338343
501.5983777935289
501.92767444624417
502.2488236256802
502.5611524046491
502.863999653927
503.1567172833101
503.4386714723671
503.7092438889063
503.96783289297383
504.2138547239974
504.4467446686284
504.66595820684455
504.8709721339005
505.06128565565945
505.2364214548333
505.3959267256924
505.53937417479517
505.66636298530295
505.77651974246686
505.8694993179316
505.9449857106304
506.0026928422257
506.0423653052793
506.06377906258984
506.0667420964214
506.0510950065756
506.01671155640156
505.96349916598245
505.8913993518916
505.8003881130249
505.69047626211074
505.56170970260706
505.41416965081413
505.24797280313265
505.06327144844033
504.8602535256435
504.63914262650894
504.40019794392083
504.1437141657134
503.8700213142308
503.5794845317426
503.27250381180914
502.94951367669125
502.61098280088794
502.2574135808509
501.8893416508773
501.5073353451464
501.11199510580457
500.7039528369205
500.28387120402726
499.85244287891015
499.41038972925054
498.95846195267563
498.49743715471857
498.02811937020516
497.5513380275232
497.0679468551372
496.5788227296894
496.08486446503514
495.586991541586
495.08614277535946
494.58327492623954
494.0793612450476
493.57538995911347
493.07236269615106
492.5712928463295
492.07320386257936
491.57912749933973
491.090101990154
490.60717016475496
490.13137750657836
489.6637701519595
489.20539283261064
488.7572867633307
488.3204874772005
487.8960226108442
487.4849096427337
487.0881535878967
486.70674465278233
486.34165585443225
485.99384060854345
485.66423029150786
485.3537317819805
485.06322498798534
484.7935603660321
484.5455564391737
484.3199973213675
484.1176302559164
483.9391631761854
483.7852622971879
483.65654974698896
483.55360124716117
483.47694385178596
483.42705375474884
483.4043541753156
483.40921333216903
483.44194251622406
483.50279427262376
483.591960702332
483.70957189370034
483.8556944942803
484.03033043297347
484.23341580235507
484.464819910672
484.7243445126382
485.0117232276984
485.3266211539415
485.668634685294
486.037291538971
486.43205099945806
486.8523043845073
487.29737573778374
487.7665227519145
488.25893792477774
488.77374995090435
489.31002534885744
489.8667703244065
490.4429328682042
491.03740508553346
491.6490257545209
492.2765831080471
492.91881783340506
493.5744262826336
494.2420638853075
494.9203487544247
495.6078654749064
496.3031690631573
497.0047890850963
497.7112339190494
498.42099514890884
499.1325520720507
499.8443763056522
500.5549364742293
501.26270296051774
501.9661527012733
502.663774009096
503.35407140103166
504.03557041449164
504.706822390863
505.36640920703934
506.0129479350796
506.64509541030486
507.26155268831286
507.8610693716148
508.44244778694065
509.0045469947726
509.5462866133365
510.066650440003
510.56468985381
511.0395269836397
511.49035762745154
511.9164539089237
512.317166658866
512.6919275098919
513.0402506939505
513.3617345332259
513.6560626158273
513.9230046490321
514.162416984671
514.3742428131899
514.5585120247442
514.7153407374524
514.8449304946624
514.9475671347737
515.0236193388162
515.0735368626789
515.0978484625938
515.0971595241049
515.0721494063575
515.023568515006
514.9522351183019
514.8590319220466
514.7449024200349
514.6108470373788
514.4579190847643
514.2872205423561
514.099897692727
513.8971366227768
513.6801586151051
513.4502154497543
513.2085846375596
512.9565646065175
512.6954698625412
512.426626145893
512.1513656044071
511.8710220043103
511.58692599905055
511.30040047608657
511.01275600104685
510.725286378004
510.43926434386555
510.15593741403944
509.87652389558696
509.6022090830426
509.3341416509818
509.07343025625465
508.82114036160937
508.5782912911656
508.34585352688606
508.12474625387415
507.9158351609387
507.71993050148285
507.537785418387
507.37009453514025
507.21749281403635
507.08055468090686
506.95979341454876
506.8556607976906
506.76854702506944
506.69878086294125
506.6466300531512
506.612301953731
506.5959444069255
506.5976468245597
506.61744147976214
506.6553049932888
506.71116000197355
506.7848769962066
506.87627631278025
506.98513026894835
507.1111654231574
507.25406494763314
507.41347109781407
507.588987763505
507.78018308664446
507.98659213069044
508.2077195868051
508.4430425023016
508.6920130171659
508.95406109486464
509.22859723410943
509.51501514877754
509.8126944037855
510.1210029953642
510.4392998649009
510.7669373362741
511.1032634673823
511.4476243073599
511.79936605179256
512.1578370891187
512.522389932272
512.8923830304672
513.2671824569115
513.6461634691241
514.0287119394462
514.414225654159
514.8021154804335
515.1918064011221
515.5827384182041
515.9743673264197
516.3661653593202
516.7576217106019
517.1482429342557
517.5375532276576
517.9250946022885
518.3104269472782
518.6931279913799
519.0727931693425
519.4490353989648
519.8214847754064
520.1897881895563
520.5536088774504
520.9126259078555
521.2665336152172
521.6150409851521
521.9578709996533
522.2947599490809
522.6254567179028
522.9497220510028
523.267327807194
523.5780562063645
523.8816990764537
524.1780571061603
524.4669391089714
524.7481613037361
525.021546616684
525.28692400943
525.544127837109
525.7929972403755
526.0333755746348
526.2651098794548
526.4880503906845
526.7020500973978
526.9069643454327
527.1026504888288
527.2889675900436
527.4657761694192
527.6329380039348
527.790315974895
527.9377739638979
528.0751767961269
528.2023902297012
528.3192809895512
528.4257168440698
528.5215667225928
528.6067008715531
528.6809910469328
528.7443107404762
528.7965354370084
528.8375429001228
528.8672134834575
528.8854304647832
528.8920804001501
528.8870534953378
528.8702439919572
528.8415505658135
528.8008767354523
528.7481312789109
528.6832286566108
528.6060894382092
528.5166407311582
528.4148166086952
528.3005585349902
528.1738157852834
528.0345458589321
527.8827148833061
527.7182980064744
527.541279776664
527.3516545065164
527.1494266202386
526.9346109819045
526.7072332033276
526.4673299301669
526.2149491052357
525.9501502082439
525.6730044714026
525.3835950704906
525.0820172911253
524.7683786700946
524.4427991116967
524.1054109790914
523.7563591607773
523.3958011123998
523.0239068741691
522.6408590642309
522.2468528484276
521.8420958869775
521.4268082586359
521.001222362903
520.5655828008231
520.1201462349477
519.665181229064
519.2009680682809
518.7277985600639
518.2459758167951
517.7558140204444
517.2576381699105
516.7517838115944
516.238596753774
515.7184327653131
515.1916572592405
514.6586449617233
514.1197795669375
513.5754533783412
513.0260669368615
512.4720286364696
511.91375432764966
511.35166690925047
510.78619590919936
510.21777705455423
509.646851831387
509.0738670350151
508.49927431111354
507.9235296882516
507.3470931024189
506.77042791406404
506.19400041814646
505.6182793477189
505.0437353715607
504.4708405864127
503.90006800436987
503.33189103595396
502.76678296937575
502.2052164464998
501.64766293602185
501.094592204373
500.54647178485453
500.0037664454669
499.4669376558677
498.93644305390893
498.4127359122417
497.89626460549243
497.38747207851674
496.88679531623075
496.39466481545975
495.91150405920223
495.43772899368753
494.97374750860274
494.5199589208451
494.0767534621668
493.6445117711182
493.2236043897671
492.81439126568245
492.4172212596258
492.03243165935385
491.660347699944
491.3012820910712
490.95553455163287
490.62339135212966
490.30512486525777
490.0009931252168
489.7112393962305
489.43609175076875
489.17576265795327
488.93044858262897
488.70032959558625
488.48556899547873
488.2863129430233
488.1026901080977
487.93481133034777
487.7827692939492
487.646638217201
487.5264735576467
487.4223117334164
487.33416986152463
487.2620455138914
487.2059164919077
487.16574062043657
487.14145556219603
487.13297865347107
487.14020676206763
487.1630161684304
487.2012624708459
487.25478051568683
487.3233843537192
487.4068672234814
487.5050015627411
487.61753904906374
487.74421067053885
487.88472682764206
488.0387774671635
488.2060322491546
488.3861407478328
488.57873268729895
488.7834182129037
488.9997881990598
489.2274145942317
489.4658508037829
489.71463211127275
489.9732761386868
490.2412833459456
490.51813756991646
490.80330660302644
491.0962428114576
491.39638379283116
491.7031530731763
492.0159608428494
492.33420473093037
492.6572706174974
492.9845334830199
493.3153582939145
493.64910092310123
493.9851091042027
494.3227234179056
494.6612783088724
495.00010313139296
495.3385232217811
495.6758609954099
496.011437066193
496.3445713862059
496.6745844030305
497.00079823232
497.3225378430013
497.6391322524601
497.9499157290051
498.25422899894596
498.55142045566305
498.8408473680573
499.1218770857943
499.3938882388806
499.65627192936563
499.90843291312166
500.1497907696009
500.3797810572907
500.59785645248826
500.80348786893614
500.99616555579803
501.17540017145984
501.3407238306739
501.4916911226052
501.6278800973649
501.7488932186526
501.8543582802267
501.94392928402226
502.01728727786406
502.07414115084663
502.11422838459185
502.13731575880706
502.1432000098744
502.13170844151585
502.102699486756
502.0560632205128
501.9917218222482
501.90962998824324
501.8097752931692
501.69217850075114
501.55689382342695
501.40400913095795
501.2336461079899
501.04596036067204
500.84114147250284
500.6194130095867
500.381032475499
500.1262912159625
499.8555142735051
499.5690601922204
499.26732077265063
498.95072077677736
498.61971758310216
498.2748007917183
497.91649177917907
497.5453432028607
497.1619384544329
496.7668910619483
496.3608440399471
495.9444691869352
495.51846632954204
495.08356251257084
494.64051113407885
494.1900910245666
493.73310546930776
493.27038117283365
492.80276716458627
492.331133644769
491.85637076943715
491.3793873738747
490.90110963340334
490.42247966090855
489.9444540405214
489.46800229699045
488.99410530037943
488.52375360585154
488.05794572848754
487.59768635336195
487.1439844814339
486.69785151214455
486.2602992639559
485.8323379344151
