502.43981722047135
502.4437585819725
502.4476999397026
502.4516412933009
502.4555826424065
502.45952398665906
502.46346532569794
502.4674066591623
502.4713479866915
502.475289307925
502.4792306225021
502.48317193006244
502.4871132302454
502.4910545226902
502.4949958070357
502.49893708292063
502.50287834998346
502.50681960786267
502.5107608561967
502.5147020946241
502.5186433227831
502.52258454031187
502.52652574684896
502.53046694203283
502.53440812550195
502.53834929689503
502.542290455851
502.546231602009
502.550172735008
502.5541138544869
502.55805496008463
502.5619960514399
502.5659371281919
502.56987818997925
502.5738192364407
502.57776026721524
502.58170128194195
502.58564228026023
502.5895832618095
502.5935242262293
502.5974651731593
502.60140610223914
502.60534701310837
502.60928790540663
502.6132287787733
502.6171696328478
502.6211104672692
502.6250512816765
502.6289920757084
502.6329328490036
502.63687360120105
502.6408143319396
502.6447550408583
502.64869572759596
502.6526363917916
502.6565770330841
502.6605176511122
502.66445824551454
502.6683988159301
502.6723393619976
502.67627988335573
502.6802203796434
502.6841608504998
502.6881012955638
502.6920417144744
502.6959821068705
502.6999224723912
502.70386281067556
502.7078031213624
502.71174340409095
502.7156836585001
502.7196238842288
502.72356408091593
502.7275042482005
502.7314443857216
502.7353844931182
502.73932457002945
502.7432646160945
502.74720463095275
502.7511446142436
502.7550845656068
502.7590244846823
502.7629643711101
502.7669042245303
502.7708440445832
502.7747838309091
502.77872358314823
502.78266330094095
502.78660298392776
502.7905426317492
502.794482244046
502.7984218204591
502.80236136062956
502.80630086419876
502.81024033080814
502.81417976009914
502.81811915171295
502.82205850529056
502.82599782047294
502.8299370969013
502.83387633421705
502.83781553206165
502.8417546900765
502.8456938079031
502.84963288518327
502.85357192155914
502.8575109166728
502.8614498701662
502.86538878168165
502.86932765086124
502.8732664773471
502.87720526078135
502.88114400080633
502.8850826970644
502.8890213491983
502.8929599568511
502.8968985196658
502.90083703728544
502.90477550935304
502.90871393551186
502.91265231540535
502.9165906486768
502.92052893496964
502.9244671739274
502.9284053651937
502.93234350841215
502.93628160322635
502.94021964928004
502.9441576462169
502.9480955936807
502.9520334913151
502.9559713387638
502.9599091356707
502.9638468816803
502.96778457643666
502.97172221958397
502.97565981076616
502.97959734962717
502.98353483581116
502.9874722689623
502.9914096487247
502.9953469747426
502.99928424666007
503.00322146412134
503.0071586267703
503.01109573425117
503.01503278620805
503.0189697822849
503.0229067221254
503.0268436053731
503.03078043167136
503.034717200664
503.03865391199463
503.04259056530725
503.046527160246
503.05046369645504
503.0544001735783
503.0583365912595
503.06227294914254
503.0662092468714
503.07014548408995
503.0740816604424
503.0780177755729
503.0819538291256
503.0858898207447
503.0898257500745
503.09376161675925
503.09769742044284
503.1016331607692
503.1055688373823
503.10950444992625
503.11343999804524
503.1173754813834
503.1213108995847
503.1252462522933
503.1291815391536
503.1331167598097
503.1370519139058
503.1409870010858
503.14492202099393
503.1488569732743
503.15279185757106
503.1567266735284
503.1606614207907
503.1645960990028
503.1685307078093
503.17246524685504
503.17639971578467
503.1803341142428
503.1842684418742
503.18820269832406
503.1921368832376
503.19607099626035
503.20000503703807
503.20393900521697
503.207872900443
503.21180672236244
503.2157404706212
503.2196741448655
503.22360774474157
503.22754126989537
503.2314747199729
503.2354080946201
503.23934139348296
503.2432746162075
503.24720776243964
503.2511408318252
503.2550738240101
503.2590067386401
503.26293957536075
503.26687233381756
503.27080501365583
503.27473761452063
503.2786701360568
503.2826025779092
503.2865349397226
503.2904672211422
503.2943994218127
503.2983315413793
503.30226357948675
503.3061955357804
503.3101274099055
503.31405920150735
503.3179909102313
503.3219225357226
503.3258540776268
503.32978553558985
503.333716909258
503.33764819827763
503.3415794022957
503.34551052095924
503.3494415539154
503.35337250081136
503.35730336129416
503.36123413501116
503.3651648216097
503.36909542073715
503.37302593204106
503.37695635516945
503.3808866897706
503.3848169354927
503.3887470919843
503.3926771588941
503.3966071358708
503.40053702256307
503.40446681861965
503.40839652368925
503.41232613742056
503.4162556594623
503.4201850894632
503.4241144270719
503.42804367193696
503.4319728237066
503.43590188202904
503.4398308465526
503.44375971692546
503.4476884927957
503.4516171738113
503.45554575962035
503.45947424987105
503.46340264421167
503.4673309422907
503.4712591437568
503.475187248259
503.4791152554461
503.48304316496717
503.48697097647084
503.49089868960584
503.4948263040209
503.4987538193649
503.5026812352868
503.50660855143553
503.5105357674603
503.51446288300997
503.5183898977335
503.52231681128035
503.52624362330005
503.53017033344224
503.5340969413568
503.5380234466935
503.54194984910225
503.5458761482331
503.54980234373613
503.55372843526163
503.5576544224599
503.5615803049815
503.5655060824769
503.5694317545966
503.5733573209915
503.57728278131196
503.58120813520884
503.5851333823331
503.5890585223357
503.5929835548676
503.59690847958007
503.6008332961243
503.60475800415145
503.6086826033128
503.6126070932597
503.61653147364393
503.62045574411707
503.6243799043308
503.6283039539368
503.63222789258646
503.6361517199317
503.6400754356242
503.6439990393159
503.64792253065855
503.6518459093039
503.65576917490364
503.6596923271096
503.66361536557395
503.66753828994877
503.67146109988596
503.6753837950372
503.67930637505435
503.68322883958956
503.68715118829493
503.69107342082236
503.69499553682374
503.69891753595095
503.7028394178559
503.70676118219046
503.710682828607
503.71460435675806
503.71852576629624
503.72244705687433
503.7263682281449
503.73028927976054
503.73421021137403
503.7381310226384
503.7420517132065
503.74597228273126
503.7498927308658
503.75381305726285
503.7577332615755
503.7616533434567
503.7655733025596
503.7694931385373
503.7734128510432
503.77733243973046
503.7812519042524
503.7851712442622
503.78909045941316
503.79300954935877
503.79692851375273
503.800847352249
503.80476606450145
503.80868465016385
503.8126031088899
503.81652144033353
503.8204396441487
503.8243577199895
503.8282756675102
503.8321934863651
503.83611117620865
503.84002873669544
503.8439461674801
503.8478634682175
503.8517806385627
503.8556976781707
503.8596145866969
503.8635313637966
503.86744800912504
503.8713645223378
503.87528090309036
503.8791971510385
503.88311326583823
503.88702924714573
503.89094509461745
503.8948608079098
503.8987763866793
503.9026918305823
503.906607139275
503.9105223124137
503.9144373496548
503.9183522506547
503.92226701507013
503.9261816425575
503.930096132773
503.9340104853726
503.93792470001233
503.9418387763484
503.9457527140372
503.94966651273523
503.95358017209867
503.95749369178395
503.96140707144775
503.9653203107465
503.96923340933665
503.97314636687486
503.9770591830178
503.98097185742233
503.98488438974516
503.9887967796427
503.99270902677165
503.99662113078864
504.00053309135035
504.0044449081132
504.0083565807339
504.01226810886885
504.0161794921743
504.02009073030615
504.0240018229207
504.02791276967434
504.03182357022376
504.0357342242256
504.0396447313366
504.0435550912131
504.0474653035118
504.05137536788936
504.0552852840027
504.0591950515087
504.0631046700645
504.06701413932717
504.0709234589541
504.0748326286026
504.0787416479301
504.08265051659384
504.08655923425124
504.09046780055985
504.0943762151775
504.0982844777617
504.1021925879701
504.1061005454602
504.11000834988965
504.1139160009162
504.1178234981977
504.1217308413919
504.1256380301569
504.1295450641504
504.1334519430303
504.1373586664546
504.1412652340815
504.14517164556935
504.1490779005766
504.15298399876144
504.15688993978245
504.16079572329784
504.1647013489659
504.16860681644505
504.17251212539406
504.17641727547164
504.18032226633625
504.1842270976464
504.18813176906076
504.1920362802381
504.1959406308371
504.19984482051666
504.2037488489358
504.2076527157534
504.2115564206284
504.21545996322004
504.2193633431874
504.2232665601899
504.227169613887
504.231072503938
504.2349752300021
504.2388777917387
504.2427801888074
504.24668242086807
504.2505844875808
504.25448638860564
504.2583881236029
504.26228969223314
504.26619109415685
504.2700923290346
504.2739933965271
504.27789429629536
504.2817950280004
504.2856955913036
504.28959598586664
504.29349621135145
504.29739626742014
504.3012961537348
504.30519586995763
504.30909541575045
504.3129947907752
504.31689399469417
504.32079302716977
504.32469188786433
504.3285905764402
504.33248909255974
504.3363874358853
504.34028560607965
504.34418360280563
504.34808142572604
504.3519790745037
504.3558765488011
504.3597738482812
504.3636709726071
504.3675679214424
504.37146469445076
504.3753612912957
504.37925771164066
504.3831539551494
504.38705002148606
504.39094591031505
504.394841621301
504.3987371541085
504.402632508402
504.40652768384564
504.4104226801036
504.4143174968402
504.41821213372
504.42210659040745
504.4260008665675
504.429894961865
504.43378887596475
504.4376826085319
504.44157615923143
504.44546952772873
504.4493627136891
504.453255716778
504.45714853666107
504.4610411730033
504.4649336254696
504.4688258937248
504.4727179774337
504.47660987626125
504.48050158987223
504.48439311793175
504.4882844601051
504.4921756160576
504.4960665854545
504.49995736796143
504.50384796324386
504.50773837096756
504.5116285907985
504.5155186224032
504.519408465448
504.5232981195994
504.5271875845241
504.5310768598887
504.5349659453599
504.5388548406046
504.54274354528945
504.5466320590814
504.55052038164706
504.5544085126529
504.5582964517654
504.5621841986514
504.5660717529778
504.5699591144113
504.57384628261855
504.57773325726623
504.58162003802124
504.5855066245505
504.58939301652083
504.5932792135992
504.5971652154525
504.6010510217476
504.6049366321514
504.60882204633106
504.61270726395367
504.61659228468636
504.62047710819627
504.62436173415074
504.6282461622171
504.63213039206255
504.63601442335414
504.639898255759
504.64378188894455
504.6476653225783
504.65154855632784
504.6554315898612
504.65931442284625
504.66319705495096
504.6670794858436
504.67096171519245
504.674843742666
504.6787255679327
504.6826071906611
504.68648861051963
504.69036982717705
504.69425084030206
504.69813164956315
504.7020122546288
504.70589265516776
504.7097728508487
504.7136528413404
504.7175326263115
504.7214122054305
504.72529157836595
504.72917074478653
504.73304970436095
504.73692845675794
504.7408070016462
504.74468533869447
504.74856346757144
504.75244138794585
504.7563190994864
504.76019660186205
504.7640738947415
504.7679509777935
504.7718278506867
504.77570451308964
504.779580964671
504.7834572050996
504.787333234044
504.79120905117304
504.7950846561556
504.7989600486609
504.8028352283583
504.8067101949174
504.8105849480081
504.8144594873005
504.81833381246486
504.8222079231715
504.826081819091
504.8299554998938
504.8338289652505
504.8377022148319
504.84157524830846
504.845448065351
504.8493206656302
504.85319304881693
504.8570652145821
504.86093716259677
504.8648088925321
504.8686804040593
504.87255169684965
504.87642277057455
504.88029362490545
504.8841642595138
504.88803467407104
504.8919048682484
504.89577484171707
504.89964459414807
504.9035141252124
504.9073834345812
504.91125252192603
504.9151213869187
504.9189900292314
504.9228584485362
504.92672664450527
504.9305946168107
504.93446236512466
504.93832988911925
504.9421971884666
504.94606426283883
504.9499311119083
504.9537977353474
504.9576641328289
504.9615303040258
504.96539624861146
504.9692619662595
504.97312745664374
504.97699271943804
504.9808577543166
504.9847225609541
504.98858713902507
504.99245148820444
504.99631560816704
505.0001794985877
505.0040431591416
505.0079065895037
505.0117697893496
505.0156327583551
505.0194954961963
505.0233580025498
505.0272202770917
505.0310823194983
505.034944129446
505.03880570661147
505.0426670506714
505.0465281613025
505.0503890381814
505.0542496809845
505.0581100893886
505.0619702630703
505.0658302017065
505.0696899049741
505.07354937255
505.07740860411116
505.0812675993344
505.0851263578967
505.0889848794751
505.09284316374703
505.09670121039005
505.1005590190822
505.10441658950174
505.10827392132694
505.11213101423607
505.1159878679076
505.1198444820203
505.1237008562531
505.1275569902849
505.1314128837945
505.1352685364608
505.13912394796273
505.1429791179793
505.1468340461894
505.1506887322722
505.1545431759072
505.1583973767737
505.16225133455134
505.1661050489198
505.1699585195589
505.1738117461488
505.17766472836945
505.18151746590104
505.1853699584236
505.1892222056175
505.193074207163
505.19692596274047
505.2007774720304
505.20462873471354
505.2084797504705
505.2123305189815
505.21618103992694
505.2200313129873
505.2238813378432
505.22773111417507
505.2315806416635
505.23542991998886
505.2392789488316
505.2431277278723
505.2469762567913
505.2508245352691
505.254672562986
505.25852033962235
505.2623678648582
505.2662151383739
505.27006215985
505.273908928967
505.2777554454052
505.28160170884496
505.2854477189668
505.2892934754515
505.29313897797977
505.29698422623267
505.3008292198914
505.30467395863764
505.3085184421533
505.3123626701205
505.31620664222135
505.3200503581378
505.3238938175515
505.3277370201441
505.3315799655976
505.3354226535938
505.33926508381444
505.34310725594116
505.34694916965566
505.3507908246394
505.354632220574
505.3584733571412
505.3623142340226
505.3661548509
505.36999520745496
505.3738353033692
505.37767513832443
505.3815147120025
505.38535402408513
505.38919307425397
505.3930318621907
505.396870387577
505.40070865009454
505.404546649425
505.4083843852501
505.41222185725167
505.41605906511165
505.4198960085122
505.4237326871356
505.4275691006645
505.43140524878174
505.43524113116985
505.43907674751165
505.4429120974902
505.44674718078875
505.45058199709104
505.4544165460808
505.4582508274417
505.4620848408573
505.46591858601107
505.46975206258674
505.4735852702678
505.47741820873773
505.4812508776803
505.4850832767794
505.488915405719
505.4927472641833
505.4965788518567
505.5004101684236
505.50424121356843
505.5080719869753
505.5119024883287
505.51573271731297
505.51956267361277
505.5233923569127
505.5272217668977
505.53105090325255
505.53487976566214
505.5387083538111
505.5425366673843
505.5463647060666
505.5501924695428
505.55401995749764
505.5578471696157
505.56167410558203
505.56550076508177
505.5693271478
505.573153253422
505.57697908163334
505.58080463212
505.58462990456826
505.5884548986645
505.5922796140952
505.59610405054684
505.59992820770606
505.60375208525977
505.6075756828949
505.61139900029855
505.6152220371579
505.61904479316
505.6228672679921
505.62668946134124
505.63051137289483
505.6343330023402
505.638154349365
505.64197541365695
505.64579619490416
505.64961669279444
505.6534369070158
505.6572568372561
505.6610764832034
505.66489584454587
505.6687149209721
505.67253371217055
505.67635221782973
505.68017043763837
505.6839883712852
505.6878060184589
505.6916233788485
505.6954404521431
505.6992572380317
505.70307373620346
505.7068899463476
505.71070586815347
505.71452150131074
505.71833684550904
505.722151900438
505.7259666657875
505.7297811412474
505.7335953265077
505.73740922125864
505.74122282519045
505.7450361379932
505.74884915935684
505.75266188897115
505.75647432652625
505.760286471712
505.76409832421825
505.76790988373534
505.7717211499536
505.7755321225633
505.77934280125476
505.78315318571833
505.7869632756443
505.79077307072305
505.79458257064505
505.79839177510087
505.8022006837813
505.80600929637706
505.80981761257897
505.813625632078
505.8174333545652
505.82124077973174
505.8250479072691
505.82885473686895
505.832661268223
505.8364675010231
505.8402734349612
505.8440790697297
505.8478844050213
505.8516894405292
505.8554941759461
505.8592986109651
505.86310274527943
505.8669065785824
505.8707101105673
505.8745133409276
505.878316269357
505.8821188955495
505.8859212191993
505.88972324000076
505.89352495764854
505.8973263718375
505.90112748226227
505.90492828861727
505.9087287905969
505.9125289878956
505.91632888020774
505.920128467228
505.92392774865095
505.9277267241713
505.9315253934834
505.9353237562817
505.93912181226085
505.94291956111545
505.94671700254037
505.95051413623094
505.9543109618827
505.9581074791912
505.9619036878522
505.9656995875615
505.96949517801534
505.9732904589101
505.9770854299426
505.9808800908096
505.9846744412083
505.9884684808361
505.9922622093908
505.9960556265702
505.9998487320721
506.0036415255946
506.007434006836
506.0112261754947
506.01501803126905
506.01880957385777
506.0226008029596
506.02639171827343
506.0301823194985
506.03397260633403
506.03776257847915
506.0415522356333
506.04534157749583
506.04913060376646
506.052919314145
506.0567077083314
506.0604957860256
506.06428354692787
506.06807099073797
506.071858117156
506.0756449258821
506.07943141661656
506.08321758906015
506.08700344291367
506.0907889778779
506.09457419365333
506.0983590899406
506.1021436664404
506.10592792285377
506.10971185888195
506.11349547422617
506.1172787685874
506.1210617416667
506.12484439316484
506.1286267227823
506.1324087302197
506.136190415178
506.1399717773585
506.1437528164623
506.1475335321908
506.1513139242451
506.15509399232644
506.15887373613634
506.1626531553767
506.1664322497496
506.1702110189573
506.1739894627018
506.1777675806853
506.18154537261023
506.1853228381789
506.18909997709363
506.19287678905687
506.1966532737712
506.20042943093915
506.2042052602636
506.20798076144763
506.21175593419446
506.2155307782074
506.2193052931899
506.22307947884576
506.2268533348789
506.23062686099377
506.23440005689497
506.2381729222876
506.2419454568768
506.24571766036763
506.2494895324652
506.25326107287435
506.2570322813
506.26080315744696
506.26457370102037
506.2683439117253
506.2721137892669
506.2758833333504
506.279652543681
506.28342141996393
506.28718996190435
506.29095816920756
506.29472604157934
506.29849357872524
506.3022607803508
506.3060276461616
506.309794175863
506.3135603691602
506.3173262257586
506.3210917453638
506.3248569276815
506.32862177241793
506.3323862792796
506.3361504479732
506.33991427820536
506.34367776968304
506.3474409221129
506.3512037352017
506.3549662086565
506.35872834218446
506.362490135493
506.3662515882892
506.37001270028
506.3737734711723
506.37753390067326
506.3812939884898
506.38505373432906
506.3888131378984
506.39257219890544
506.3963309170575
506.4000892920625
506.40384732362816
506.4076050114621
506.4113623552722
506.4151193547665
506.4188760096532
506.4226323196409
506.4263882844383
506.43014390375436
506.43389917729803
506.4376541047785
506.44140868590546
506.4451629203885
506.4489168079375
506.4526703482626
506.45642354107383
506.46017638608134
506.46392888299545
506.4676810315267
506.47143283138564
506.47518428228284
506.47893538392884
506.4826861360342
506.48643653830993
506.49018659046726
506.49393629221765
506.4976856432726
506.5014346433437
506.50518329214253
506.5089315893807
506.5126795347702
506.51642712802334
506.52017436885274
506.523921256971
506.52766779209094
506.5314139739256
506.53515980218856
506.5389052765935
506.54265039685436
506.5463951626849
506.55013957379913
506.5538836299112
506.5576273307353
506.5613706759858
506.5651136653772
506.5688562986239
506.57259857544034
506.57634049554065
506.58008205863905
506.58382326444973
506.5875641126871
506.59130460306585
506.5950447353006
506.5987845091057
506.6025239241957
506.6062629802849
506.6100016770878
506.61374001431875
506.61747799169245
506.62121560892354
506.62495286572664
506.6286897618162
506.63242629690683
506.63616247071343
506.63989828295087
506.6436337333338
506.64736882157683
506.6511035473949
506.6548379105028
506.6585719106155
506.66230554744754
506.66603882071365
506.66977173012845
506.6735042754068
506.67723645626336
506.68096827241277
506.6846997235697
506.68843080944873
506.6921615297646
506.6958918842321
506.6996218725661
506.7033514944818
506.70708074969446
506.7108096379194
506.71453815887196
506.7182663122677
506.7219940978222
506.72572151525117
506.7294485642707
506.73317524459674
506.73690155594556
506.7406274980334
506.74435307057695
506.74807827329334
506.75180310589974
506.7555275681135
506.75925165965225
506.76297538023357
506.7666987295753
506.7704217073955
506.7741443134124
506.7778665473444
506.7815884089099
506.78530989782746
506.7890310138156
506.7927517565928
506.79647212587804
506.80019212139007
506.8039117428476
506.80763098996965
506.8113498624749
506.81506836008214
506.81878648251006
506.82250422947766
506.8262216007041
506.82993859590863
506.8336552148104
506.8373714571288
506.8410873225836
506.84480281089407
506.84851792177994
506.85223265496086
506.8559470101567
506.8596609870873
506.8633745854728
506.8670878050335
506.87080064549
506.8745131065631
506.8782251879737
506.88193688944295
506.8856482106918
506.88935915144145
506.8930697114132
506.89677989032805
506.9004896879072
506.904199103872
506.90790813794354
506.9116167898436
506.91532505929365
506.9190329460149
506.9227404497286
506.92644757015626
506.9301543070195
506.93386066004007
506.9375666289401
506.94127221344195
506.944977413268
506.9486822281409
506.9523866577832
506.9560907019178
506.95979436026744
506.963497632555
506.9672005185031
506.9709030178343
506.97460513027124
506.9783068555365
506.98200819335295
506.98570914344384
506.98940970553224
506.9931098793412
506.996809664594
507.0005090610142
507.00420806832506
507.00790668625007
507.01160491451276
507.0153027528364
507.0190002009448
507.02269725856183
507.02639392541175
507.0300902012192
507.0337860857088
507.0374815786055
507.0411766796341
507.0448713885197
507.0485657049875
507.05225962876295
507.05595315957214
507.0596462971413
507.0633390411966
507.06703139146464
507.070723347672
507.0744149095457
507.07810607681256
507.0817968491996
507.0854872264341
507.08917720824354
507.09286679435525
507.0965559844964
507.10024477839454
507.1039331757771
507.1076211763715
507.1113087799048
507.1149959861044
507.11868279469775
507.1223692054124
507.12605521797593
507.1297408321162
507.1334260475611
507.1371108640384
507.14079528127616
507.14447929900246
507.14816291694535
507.1518461348329
507.15552895239364
507.1592113693563
507.16289338545005
507.16657500040435
507.1702562139486
507.1739370258125
507.17761743572567
507.18129744341775
507.1849770486184
507.1886562510575
507.1923350504652
507.1960134465718
507.1996914391076
507.203369027803
507.20704621238826
507.210722992594
507.214399368151
507.2180753387901
507.2217509042422
507.2254260642384
507.2291008185099
507.23277516678775
507.23644910880296
507.240122644287
507.2437957729718
507.24746849458904
507.25114080887045
507.2548127155475
507.2584842143518
507.2621553050154
507.2658259872702
507.2694962608483
507.2731661254819
507.27683558090314
507.28050462684394
507.2841732630362
507.28784148921216
507.2915093051039
507.2951767104438
507.29884370496427
507.3025102883977
507.3061764604762
507.30984222093196
507.31350756949735
507.3171725059052
507.32083702988837
507.3245011411799
507.3281648395131
507.3318281246212
507.3354909962378
507.3391534540966
507.3428154979314
507.3464771274763
507.3501383424656
507.35379914263365
507.3574595277149
507.3611194974436
507.36477905155414
507.36843818978116
507.37209691185956
507.375755217524
507.37941310650933
507.3830705785505
507.3867276333823
507.3903842707399
507.39404049035863
507.39769629197383
507.40135167532105
507.4050066401361
507.40866118615475
507.412315313113
507.4159690207474
507.4196223087948
507.42327517699243
507.4269276250774
507.43057965278706
507.43423125985885
507.43788244603036
507.4415332110394
507.4451835546241
507.4488334765225
507.4524829764724
507.4561320542117
507.4597807094782
507.46342894200995
507.4670767515455
507.4707241378236
507.47437110058297
507.4780176395624
507.4816637545006
507.4853094451365
507.48895471120966
507.49259955245964
507.49624396862635
507.49988795944967
507.5035315246695
507.50717466402546
507.51081737725724
507.5144596641047
507.5181015243078
507.5217429576063
507.5253839637402
507.5290245424493
507.5326646934735
507.5363044165532
507.5399437114289
507.54358257784145
507.5472210155316
507.55085902424037
507.5544966037088
507.55813375367813
507.5617704738896
507.5654067640845
507.5690426240043
507.5726780533902
507.57631305198345
507.57994761952534
507.5835817557571
507.58721546042045
507.5908487332571
507.5944815740087
507.5981139824172
507.60174595822457
507.60537750117294
507.6090086110047
507.61263928746223
507.6162695302879
507.6198993392244
507.62352871401447
507.62715765440123
507.63078616012774
507.63441423093707
507.6380418665723
507.6416690667762
507.64529583129195
507.648922159863
507.6525480522329
507.65617350814534
507.6597985273444
507.6634231095742
507.6670472545792
507.6706709621038
507.67429423189276
507.67791706369087
507.6815394572433
507.6851614122951
507.6887829285914
507.6924040058774
507.6960246438979
507.6996448423978
507.7032646011222
507.7068839198163
507.7105027982253
507.71412123609514
507.71773923317176
507.7213567892014
507.7249739039304
507.7285905771049
507.73220680847123
507.7358225977756
507.7394379447645
507.74305284918444
507.74666731078185
507.7502813293032
507.75389490449504
507.757508036104
507.76112072387707
507.7647329675616
507.768344766905
507.7719561216551
507.7755670315597
507.77917749636674
507.7827875158242
507.78639708968046
507.790006217684
507.7936148995831
507.79722313512605
507.8008309240614
507.80443826613794
507.80804516110436
507.81165160870967
507.8152576087026
507.81886316083194
507.8224682648464
507.826072920495
507.8296771275269
507.83328088569135
507.83688419473754
507.84048705441467
507.8440894644717
507.8476914246579
507.85129293472266
507.8548939944152
507.8584946034847
507.86209476168085
507.86569446875353
507.86929372445286
507.8728925285294
507.87649088073374
507.88008878081644
507.8836862285283
507.8872832236201
507.8908797658429
507.8944758549479
507.89807149068645
507.9016666728097
507.90526140106897
507.9088556752157
507.9124494950016
507.91604286017866
507.91963577049853
507.92322822571316
507.92682022557426
507.93041176983354
507.93400285824316
507.93759349055574
507.94118366652367
507.94477338589934
507.94836264843514
507.9519514538832
507.955539801996
507.95912769252607
507.9627151252263
507.96630209984994
507.9698886161508
507.97347467388283
507.9770602728005
507.98064541265865
507.98423009321243
507.9878143142172
507.99139807542826
507.994981376601
507.998564217491
508.00214659785377
508.0057285174447
508.0093099760189
508.01289097333154
508.01647150913766
508.02005158319287
508.02363119525296
508.02721034507374
508.030789032411
508.0343672570208
508.0379450186591
508.041522317082
508.0450991520455
508.04867552330563
508.05225143061864
508.0558268737408
508.0594018524283
508.06297636643774
508.06655041552574
508.07012399944927
508.0736971179655
508.0772697708313
508.0808419578035
508.0844136786387
508.08798493309394
508.09155572092607
508.0951260418923
508.09869589575
508.1022652822563
508.1058342011687
508.1094026522445
508.11297063524114
508.11653814991575
508.1201051960255
508.1236717733276
508.1272378815794
508.1308035205383
508.1343686899619
508.1379333896076
508.14149761923306
508.14506137859587
508.1486246674534
508.1521874855629
508.15574983268186
508.159311708568
508.1628731129791
508.1664340456731
508.169994506408
508.17355449494187
508.1771140110328
508.1806730544391
508.1842316249191
508.18778972223106
508.1913473461333
508.1949044963841
508.198461172742
508.2020173749655
508.2055731028132
508.20912835604383
508.2126831344161
508.21623743768885
508.219791265621
508.2233446179713
508.22689749449853
508.23044989496145
508.2340018191188
508.2375532667294
508.2411042375519
508.2446547313451
508.2482047478678
508.25175428687874
508.25530334813686
508.2588519314012
508.2624000364309
508.26594766298524
508.2694948108234
508.27304147970483
508.2765876693892
508.28013337963614
508.28367861020536
508.2872233608565
508.29076763134924
508.29431142144324
508.29785473089817
508.3013975594739
508.3049399069304
508.30848177302767
508.3120231575259
508.31556406018547
508.31910448076667
508.32264441902987
508.32618387473565
508.3297228476446
508.33326133751746
508.3367993441153
508.3403368671992
508.34387390653035
508.34741046187
508.3509465329795
508.35448211962
508.3580172215528
508.3615518385392
508.3650859703404
508.3686196167181
508.3721527774343
508.3756854522511
508.37921764093096
508.38274934323647
508.3862805589305
508.38981128777584
508.3933415295352
508.3968712839711
508.40040055084626
508.40392932992324
508.4074576209649
508.4109854237339
508.41451273799305
508.4180395635052
508.42156590003344
508.42509174734107
508.4286171051916
508.4321419733486
508.43566635157583
508.43919023963724
508.44271363729683
508.4462365443186
508.4497589604665
508.45328088550457
508.456802319197
508.46032326130796
508.4638437116017
508.46736366984226
508.470883135794
508.4744021092214
508.4779205898891
508.481438577562
508.4849560720048
508.4884730729824
508.49198958025966
508.4955055936015
508.499021112773
508.5025361375393
508.5060506676656
508.5095647029169
508.51307824305866
508.5165912878564
508.5201038370757
508.5236158904821
508.52712744784105
508.5306385089183
508.5341490734796
508.5376591412909
508.54116871211784
508.5446777857263
508.54818636188236
508.551694440352
508.55520202090145
508.55870910329725
508.5622156873061
508.5657217726949
508.5692273592307
508.57273244668033
508.5762370348108
508.5797411233892
508.5832447121833
508.5867478009608
508.5902503894896
508.5937524775376
508.5972540648728
508.6007551512638
508.6042557364789
508.60775582028634
508.6112554024545
508.6147544827519
508.61825306094704
508.6217511368087
508.6252487101059
508.6287457806076
508.63224234808297
508.63573841230107
508.63923397303085
508.64272903004155
508.6462235831026
508.64971763198344
508.6532111764533
508.6567042162811
508.66019675123596
508.66368878108653
508.6671803056014
508.6706713245493
508.674161837699
508.677651844819
508.68114134567816
508.6846303400454
508.68811882768944
508.69160680837933
508.69509428188405
508.6985812479728
508.7020677064146
508.7055536569784
508.7090390994334
508.7125240335489
508.71600845909404
508.7194923758383
508.7229757835511
508.72645868200186
508.7299410709603
508.7334229501961
508.73690431947887
508.74038517857855
508.74386552726526
508.7473453653091
508.75082469248025
508.7543035085488
508.75778181328485
508.7612596064588
508.76473688784097
508.7682136572017
508.7716899143114
508.7751656589404
508.77864089085904
508.78211560983766
508.78558981564686
508.789063508057
508.7925366868384
508.7960093517612
508.79948150259554
508.802953139112
508.80642426108113
508.8098948682738
508.8133649604607
508.8168345374128
508.82030359890075
508.8237721446957
508.8272401745686
508.8307076882908
508.83417468563323
508.837641166367
508.8411071302636
508.84457257709425
508.8480375066305
508.85150191864375
508.85496581290556
508.8584291891872
508.86189204725986
508.86535438689486
508.8688162078637
508.87227750993804
508.8757382928899
508.87919855649113
508.882658300514
508.8861175247306
508.88957622891337
508.89303441283494
508.8964920762679
508.89994921898494
508.9034058407584
508.90686194136094
508.9103175205652
508.9137725781437
508.91722711386944
508.9206811275152
508.92413461885405
508.92758758765933
508.93104003370456
508.9344919567633
508.937943356609
508.94139423301533
508.94484458575573
508.948294414604
508.9517437193339
508.95519249971915
508.95864075553334
508.96208848655
508.96553569254286
508.96898237328594
508.97242852855345
508.9758741581194
508.9793192617575
508.9827638392418
508.98620789034646
508.9896514148462
508.99309441251614
508.9965368831314
508.9999788264671
509.0034202422986
509.00686113040103
509.0103014905495
509.0137413225194
509.01718062608654
509.0206194010269
509.0240576471168
509.02749536413273
509.0309325518516
509.0343692100504
509.037805338506
509.0412409369957
509.04467600529654
509.048110543186
509.0515445504417
509.05497802684124
509.0584109721625
509.06184338618334
509.06527526868183
509.06870661943583
509.07213743822297
509.0755677248211
509.07899747900785
509.0824267005611
509.08585538925865
509.0892835448782
509.0927111671973
509.0961382559939
509.099564811046
509.10299083213147
509.1064163190282
509.10984127151403
509.1132656893668
509.1166895723644
509.12011292028444
509.12353573290454
509.12695801000257
509.1303797513564
509.13380095674404
509.1372216259439
509.1406417587342
509.1440613548933
509.1474804141993
509.15089893643005
509.1543169213634
509.15773436877737
509.1611512784501
509.16456765016017
509.16798348368627
509.1713987788072
509.1748135353017
509.1782277529488
509.1816414315275
509.18505457081676
509.1884671705958
509.19187923064385
509.1952907507401
509.19870173066386
509.20211217019425
509.20552206911077
509.2089314271931
509.2123402442211
509.2157485199749
509.2191562542347
509.22256344678055
509.22597009739286
509.2293762058522
509.2327817719389
509.23618679543335
509.2395912761159
509.2429952137669
509.2463986081667
509.2498014590957
509.2532037663342
509.2566055296626
509.260006748861
509.2634074237095
509.2668075539883
509.2702071394775
509.27360617995726
509.2770046752079
509.28040262500997
509.2838000291441
509.28719688739113
509.2905931995318
509.29398896534724
509.2973841846184
509.3007788571264
509.3041729826524
509.30756656097753
509.3109595918828
509.31435207514903
509.317744010557
509.3211353978878
509.3245262369227
509.3279165274431
509.3313062692306
509.3346954620664
509.3380841057316
509.34147220000716
509.3448597446742
509.3482467395139
509.3516331843074
509.3550190788359
509.3584044228809
509.3617892162239
509.3651734586466
509.3685571499308
509.3719402898581
509.3753228782101
509.3787049147685
509.38208639931497
509.3854673316313
509.38884771149935
509.3922275387014
509.3956068130193
509.3989855342355
509.40236370213245
509.4057413164925
509.409118377098
509.4124948837315
509.41587083617526
509.4192462342115
509.42262107762224
509.42599536618934
509.4293690996948
509.43274227792074
509.4361149006494
509.43948696766313
509.44285847874414
509.44622943367483
509.44959983223737
509.45296967421393
509.4563389593867
509.45970768753807
509.4630758584509
509.46644347190806
509.46981052769263
509.4731770255877
509.4765429653763
509.4799083468414
509.48327316976577
509.48663743393274
509.49000113912587
509.4933642851289
509.4967268717254
509.5000888986991
509.50345036583406
509.506811272914
509.5101716197229
509.51353140604454
509.5168906316627
509.52024929636116
509.5236073999239
509.5269649421351
509.53032192277954
509.5336783416418
509.53703419850683
509.5403894931593
509.5437442253839
509.54709839496525
509.5504520016883
509.5538050453382
509.55715752569984
509.5605094425581
509.5638607956979
509.56721158490416
509.57056180996176
509.5739114706554
509.57726056676995
509.58060909809035
509.5839570644015
509.5873044654883
509.5906513011356
509.59399757112817
509.59734327525086
509.60068841328837
509.6040329850251
509.6073769902456
509.6107204287342
509.6140633002757
509.61740560465466
509.62074734165583
509.62408851106386
509.6274291126632
509.6307691462381
509.63410861157274
509.63744750845115
509.6407858366571
509.6441235959745
509.6474607861877
509.6507974070811
509.6541334584391
509.65746894004644
509.66080385168755
509.66413819314687
509.66747196420886
509.67080516465796
509.6741377942784
509.67746985285464
509.68080134017157
509.6841322560141
509.6874626001669
509.6907923724149
509.69412157254294
509.697450200336
509.70077825557894
509.7041057380569
509.7074326475548
509.71075898385754
509.71408474675
509.71740993601713
509.7207345514438
509.7240585928149
509.72738205991516
509.730704952529
509.73402727044106
509.7373490134363
509.74067018129983
509.7439907738168
509.7473107907721
509.7506302319506
509.753949097137
509.75726738611604
509.7605850986723
509.76390223459055
509.7672187936556
509.77053477565244
509.7738501803657
509.77716500758027
509.7804792570811
509.78379292865304
509.78710602208105
509.7904185371498
509.7937304736437
509.7970418313474
509.8003526100455
509.8036628095223
509.8069724295623
509.8102814699499
509.81358993046945
509.81689781090506
509.82020511104076
509.8235118306603
509.82681796954773
509.8301235274872
509.833428504263
509.8367328996595
509.84003671346125
509.84333994545284
509.846642595419
509.8499446631446
509.85324614841454
509.85654705101354
509.85984737072624
509.86314710733734
509.8664462606315
509.8697448303934
509.8730428164075
509.8763402184585
509.87963703633125
509.8829332698107
509.8862289186817
509.88952398272943
509.892818461739
509.8961123554956
509.899405663784
509.90269838638926
509.90599052309597
509.9092820736888
509.91257303795294
509.9158634156737
509.9191532066362
509.9224424106259
509.925731027428
509.92901905682777
509.9323064986103
509.9355933525609
509.93887961846497
509.9421652961079
509.9454503852752
509.94873488575274
509.95201879732633
509.9553021197818
509.9585848529051
509.9618669964822
509.96514855029875
509.96842951414067
509.97170988779374
509.9749896710438
509.9782688636766
509.981547465478
509.98482547623405
509.988102895731
509.99137972375513
509.9946559600927
509.9979316045302
510.0012066568539
510.0044811168501
510.0077549843053
510.0110282590057
510.0143009407378
510.0175730292884
510.02084452444444
510.02411542599305
510.0273857337214
510.03065544741673
510.0339245668662
510.0371930918567
510.04046102217546
510.0437283576099
510.04699509794716
510.0502612429742
510.0535267924778
510.05679174624436
510.06005610406044
510.06331986571274
510.0665830309878
510.069845599672
510.07310757155176
510.07636894641325
510.0796297240428
510.0828899042266
510.08614948675097
510.0894084714024
510.0926668579674
510.09592464623245
510.09918183598404
510.1024384270087
510.10569441909286
510.1089498120233
510.11220460558695
510.115458799571
510.11871239376285
510.1219653879499
510.12521778191956
510.1284695754597
510.13172076835815
510.1349713604028
510.1382213513815
510.1414707410821
510.14471952929273
510.1479677158014
510.15121530039653
510.1544622828666
510.1577086630001
510.16095444058567
510.1641996154118
510.16744418726705
510.1706881559404
510.1739315212209
510.17717428289745
510.1804164407589
510.1836579945938
510.1868989441906
510.19013928933816
510.1933790298252
510.1966181654408
510.19985669597384
510.2030946212136
510.2063319409493
510.20956865497044
510.2128047630662
510.21604026502575
510.21927516063863
510.22250944969426
510.22574313198186
510.2289762072909
510.232208675411
510.23544053613193
510.2386717892431
510.2419024345337
510.2451324717928
510.2483619008093
510.2515907213723
510.2548189332707
510.25804653629336
510.261273530229
510.2644999148662
510.26772568999365
510.2709508554
510.2741754108739
510.2773993562042
510.28062269117993
510.28384541559
510.28706752922324
510.2902890318684
510.29350992331445
510.2967302033504
510.2999498717651
510.3031689283474
510.3063873728862
510.3096052051702
510.3128224249882
510.31603903212897
510.3192550263815
510.32247040753475
510.32568517537777
510.32889932969954
510.33211287028905
510.3353257969351
510.3385381094266
510.3417498075527
510.34496089110246
510.34817135986543
510.35138121363104
510.354590452189
510.3577990753291
510.36100708284164
510.3642144745164
510.36742125014314
510.37062740951126
510.3738329524102
510.37703787862927
510.3802421879576
510.38344588018447
510.3866489550993
510.38985141249157
510.3930532521505
510.3962544738655
510.39945507742584
510.40265506262097
510.40585442924055
510.40905317707427
510.4122513059118
510.41544881554285
510.4186457057573
510.42184197634526
510.4250376270969
510.42823265780237
510.43142706825154
510.4346208582341
510.4378140275395
510.44100657595743
510.44419850327733
510.44738980928867
510.4505804937811
510.4537705565443
510.456959997368
510.46014881604185
510.46333701235574
510.46652458609935
510.4697115370624
510.4728978650345
510.4760835698054
510.47926865116426
510.48245310890013
510.4856369428022
510.48882015265997
510.49200273826284
510.49518469940006
510.4983660358606
510.5015467474333
510.50472683390706
510.5079062950707
510.51108513071324
510.51426334062364
510.51744092459046
510.520617882402
510.5237942138464
510.52696991871164
510.53014499678613
510.53331944785816
510.5364932717158
510.53966646814695
510.5428390369394
510.5460109778809
510.54918229075895
510.5523529753615
510.5555230314761
510.5586924588905
510.561861257392
510.5650294267681
510.56819696680634
510.57136387729463
510.5745301580208
510.5776958087728
510.5808608293386
510.58402521950586
510.58718897906203
510.5903521077945
510.59351460549067
510.5966764719377
510.5998377069228
510.60299831023315
510.60615828165567
510.6093176209773
510.61247632798484
510.61563440246516
510.61879184420525
510.62194865299205
510.6251048286125
510.62826037085335
510.6314152795011
510.6345695543422
510.6377231951632
510.64087620175053
510.644028573891
510.647180311371
510.6503314139769
510.6534818814947
510.65663171371045
510.6597809104102
510.6629294713797
510.6660773964046
510.6692246852705
510.6723713377629
510.6755173536675
510.67866273277025
510.681807474857
510.6849515797136
510.68809504712556
510.6912378768785
510.6943800687578
510.69752162254883
510.7006625380369
510.7038028150074
510.70694245324546
510.7100814525362
510.71321981266476
510.71635753341604
510.7194946145747
510.7226310559255
510.725766857253
510.72890201834196
510.732036538977
510.7351704189431
510.7383036580253
510.74143625600857
510.7445682126778
510.7476995278181
510.7508302012146
510.7539602326525
510.75708962191663
510.76021836879215
510.7633464730644
510.766473934519
510.76960075294176
510.7727269281189
510.775852459837
510.77897734788246
510.78210159204184
510.7852251921014
510.7883481478476
510.791470459067
510.7945921255458
510.79771314707034
510.8008335234266
510.8039532544004
510.80707233977785
510.81019077934513
510.81330857288856
510.8164257201946
510.8195422210498
510.8226580752406
510.82577328255354
510.82888784277486
510.83200175569084
510.83511502108774
510.83822763875185
510.8413396084694
510.8444509300265
510.8475616032091
510.8506716278031
510.853781003594
510.85688973036724
510.85999780790814
510.86310523600207
510.8662120144346
510.8693181429911
510.8724236214572
510.8755284496182
510.87863262725944
510.88173615416633
510.8848390301242
510.8879412549187
510.89104282833557
510.8941437501604
510.89724402017885
510.90034363817665
510.9034426039394
510.9065409172525
510.9096385779013
510.91273558567093
510.9158319403465
510.9189276417129
510.9220226895551
510.92511708365794
510.92821082380635
510.931303909785
510.93439634137883
510.9374881183729
510.94057924055244
510.9436697077025
510.94675951960846
510.9498486760559
510.95293717683046
510.95602502171744
510.9591122105022
510.9621987429697
510.9652846189048
510.96836983809237
510.97145440031716
510.9745383053636
510.9776215530163
510.98070414306005
510.98378607527945
510.98686734945943
510.9899479653851
510.99302792284163
510.9961072216141
510.9991858614877
511.0022638422471
511.0053411636769
511.0084178255614
511.0114938276844
511.01456916982954
511.0176438517807
511.0207178733216
511.023791234236
511.0268639343077
511.0299359733202
511.0330073510571
511.0360780673017
511.039148121837
511.0422175144462
511.04528624491206
511.0483543130175
511.0514217185454
511.05448846127877
511.05755454100074
511.0606199574944
511.0636847105428
511.0667487999291
511.0698122254363
511.0728749868475
511.07593708394563
511.0789985165137
511.08205928433483
511.0851193871921
511.08817882486835
511.09123759714646
511.09429570380905
511.09735314463876
511.10040991941844
511.1034660279307
511.106521469958
511.1095762452827
511.112630353687
511.1156837949528
511.1187365688619
511.12178867519617
511.1248401137374
511.12789088426723
511.13094098656745
511.13399042041976
511.1370391856059
511.1400872819073
511.14313470910554
511.14618146698183
511.1492275553177
511.1522729738948
511.15531772249494
511.15836180089957
511.1614052088904
511.16444794624897
511.1674900127565
511.17053140819405
511.17357213234266
511.1766121849829
511.17965156589537
511.1826902748604
511.1857283116582
511.188765676069
511.19180236787327
511.1948383868513
511.1978737327835
511.2009084054499
511.20394240463054
511.2069757301052
511.2100083816539
511.21304035905644
511.21607166209276
511.2191022905423
511.22213224418454
511.2251615227989
511.22819012616503
511.23121805406265
511.2342453062714
511.2372718825708
511.24029778273973
511.24332300655703
511.24634755380123
511.2493714242506
511.25239461768354
511.25541713387827
511.25843897261336
511.26146013366713
511.2644806168179
511.2675004218439
511.27051954852334
511.2735379966342
511.2765557659544
511.279572856262
511.2825892673353
511.28560499895286
511.2886200508932
511.29163442293464
511.294648114855
511.297661126432
511.30067345744294
511.3036851076653
511.3066960768766
511.3097063648546
511.31271597137686
511.3157248962208
511.3187331391638
511.3217406999835
511.3247475784575
511.3277537743635
511.33075928747905
511.33376411758184
511.33676826444946
511.3397717278598
511.34277450759043
511.3457766034188
511.34877801512255
511.35177874247904
511.35477878526547
511.35777814325854
511.360776816235
511.3637748039715
511.36677210624464
511.3697687228306
511.3727646535059
511.3757598980468
511.3787544562298
511.38174832783113
511.3847415126269
511.3877340103928
511.390725820905
511.39371694393924
511.3967073792711
511.3996971266762
511.40268618593007
511.4056745568083
511.40866223908654
511.4116492325405
511.4146355369463
511.41762115207973
511.42060607771634
511.42359031363196
511.4265738596024
511.42955671540346
511.4325388808112
511.43552035560185
511.43850113955193
511.4414812324379
511.44446063403655
511.44743934412475
511.4504173624797
511.4533946888786
511.45637132309855
511.459347264917
511.46232251411186
511.46529707046113
511.46827093374316
511.47124410373647
511.47421658021983
511.477188362972
511.4801594517718
511.48312984639836
511.4860995466312
511.48906855224993
511.4920368630345
511.4950044787648
511.497971399221
511.5009376241834
511.5039031534326
511.50686798674917
511.50983212391395
511.51279556470774
511.51575830891113
511.5187203563047
511.521681706669
511.5246423597845
511.52760231543186
511.53056157339176
511.533520133445
511.5364779953728
511.53943515895673
511.54239162397823
511.5453473902188
511.5483024574602
511.5512568254841
511.554210494072
511.5571634630056
511.5601157320672
511.5630673010386
511.5660181697018
511.568968337839
511.5719178052324
511.5748665716641
511.5778146369165
511.5807620007721
511.58370866301345
511.5866546234232
511.58959988178424
511.59254443787916
511.5954882914908
511.59843144240256
511.60137389039767
511.6043156352597
511.6072566767722
511.61019701471866
511.6131366488829
511.6160755790489
511.6190138050007
511.6219513265222
511.62488814339747
511.6278242554107
511.63075966234635
511.63369436398887
511.63662836012315
511.6395616505341
511.6424942350069
511.6454261133264
511.6483572852775
511.6512877506451
511.6542175092144
511.6571465607707
511.6600749050998
511.6630025419878
511.6659294712207
511.6688556925843
511.6717812058647
511.6747060108479
511.67763010731994
511.6805534950671
511.6834761738754
511.68639814353094
511.6893194038197
511.69223995452796
511.69515979544224
511.69807892634924
511.7009973470357
511.7039150572881
511.70683205689295
511.70974834563674
511.7126639233062
511.71557878968804
511.718492944569
511.7214063877358
511.72431911897513
511.72723113807376
511.7301424448186
511.7330530389969
511.73596292039576
511.7388720888026
511.7417805440049
511.7446882857897
511.74759531394454
511.750501628257
511.7534072285149
511.75631211450616
511.7592162860184
511.7621197428397
511.7650224847581
511.7679245115618
511.77082582303876
511.7737264189776
511.77662629916733
511.77952546339714
511.7824239114565
511.7853216431348
511.78821865822204
511.7911149565085
511.7940105377844
511.7969054018396
511.7997995484642
511.80269297744815
511.80558568858135
511.8084776816539
511.811368956456
511.81425951277777
511.8171493504093
511.82003846914097
511.82292686876315
511.8258145490662
511.82870150984047
511.83158775087634
511.8344732719644
511.83735807289565
511.8402421534614
511.84312551345295
511.8460081526615
511.8488900708784
511.85177126789483
511.85465174350236
511.85753149749223
511.86041052965595
511.86328883978547
511.86616642767274
511.86904329310994
511.87191943588925
511.87479485580286
511.87766955264317
511.8805435262026
511.8834167762735
511.8862893026486
511.8891611051205
511.8920321834818
511.8949025375251
511.8977721670432
511.9006410718288
511.903509251675
511.9063767063752
511.90924343572294
511.91210943951216
511.9149747175369
511.9178392695911
511.92070309546864
511.923566194963
511.9264285678677
511.92929021397606
511.9321511330817
511.93501132497784
511.9378707894581
511.940729526316
511.94358753534505
511.9464448163393
511.94930136909295
511.95215719340047
511.95501228905675
511.9578666558567
511.9607202935955
511.963573202068
511.96642538106937
511.96927683039473
511.97212754983923
511.9749775391982
511.9778267982673
511.9806753268423
511.983523124719
511.98637019169325
511.9892165275611
511.99206213211835
511.9949070051608
511.9977511464846
512.0005945558859
512.0034372331612
512.0062791781071
512.0091203905198
512.0119608701958
512.0148006169317
512.0176396305241
512.02047791077
512.0233154574663
512.0261522704101
512.0289883493982
512.0318236942279
512.0346583046966
512.0374921806016
512.0403253217404
512.0431577279106
512.0459893989101
512.0488203345368
512.0516505345885
512.054479998863
512.0573087271583
512.0601367192727
512.0629639750049
512.0657904941539
512.068616276519
512.0714413218997
512.0742656300953
512.0770892009056
512.0799120341302
512.0827341295691
512.0855554870226
512.0883761062913
512.0911959871761
512.0940151294775
512.0968335329964
512.0996511975335
512.1024681228897
512.1052843088663
512.1080997552648
512.1109144618869
512.1137284285343
512.116541655009
512.1193541411131
512.1221658866488
512.1249768914175
512.1277871552212
512.1305966778617
512.133405459141
512.1362134988614
512.1390207968251
512.1418273528346
512.1446331666929
512.1474382382027
512.1502425671669
512.1530461533883
512.1558489966702
512.1586510968156
512.1614524536275
512.164253066909
512.1670529364636
512.169852062095
512.172650443607
512.1754480808041
512.1782449734907
512.1810411214711
512.18383652455
512.1866311825314
512.1894250952199
512.1922182624204
512.1950106839382
512.1978023595788
512.2005932891476
512.2033834724508
512.2061729092947
512.2089615994854
512.2117495428294
512.2145367391332
512.217323188204
512.2201088898488
512.2228938438751
512.2256780500903
512.2284615083021
512.2312442183185
512.2340261799478
512.2368073929987
512.2395878572796
512.2423675725992
512.2451465387663
512.2479247555901
512.2507022228798
512.2534789404446
512.2562549080936
512.2590301256361
512.261804592881
512.2645783096378
512.2673512757157
512.2701234909238
512.2728949550714
512.2756656679682
512.278435629424
512.281204839249
512.283973297253
512.2867410032464
512.2895079570393
512.292274158442
512.2950396072648
512.2978043033185
512.3005682464133
512.3033314363598
512.3060938729687
512.3088555560508
512.311616485417
512.3143766608783
512.3171360822467
512.3198947493339
512.3226526619513
512.325409819911
512.3281662230248
512.3309218711048
512.3336767639627
512.3364309014104
512.3391842832604
512.3419369093252
512.3446887794177
512.3474398933505
512.3501902509369
512.3529398519898
512.355688696323
512.3584367837501
512.361184114085
512.3639306871413
512.3666765027332
512.3694215606748
512.3721658607802
512.3749094028636
512.3776521867393
512.3803942122214
512.3831354791242
512.3858759872622
512.3886157364497
512.3913547265009
512.3940929572303
512.3968304284523
512.3995671399811
512.4023030916306
512.4050382832148
512.4077727145474
512.4105063854423
512.4132392957137
512.4159714451754
512.4187028336418
512.4214334609272
512.4241633268467
512.4268924312156
512.4296207738495
512.4323483545642
512.4350751731755
512.4378012294998
512.4405265233532
512.443251054552
512.4459748229125
512.4486978282513
512.4514200703851
512.4541415491309
512.4568622643056
512.4595822157263
512.4623014032096
512.4650198265721
512.4677374856302
512.4704543802007
512.4731705101004
512.4758858751458
512.4786004751535
512.4813143099406
512.484027379324
512.4867396831211
512.4894512211494
512.492161993226
512.4948719991684
512.4975812387939
512.5002897119199
512.5029974183634
512.5057043579419
512.5084105304733
512.5111159357754
512.5138205736661
512.5165244439635
512.5192275464859
512.5219298810517
512.5246314474797
512.5273322455888
512.5300322751983
512.5327315361275
512.535430028196
512.5381277512234
512.5408247050301
512.5435208894363
512.5462163042624
512.5489109493291
512.5516048244573
512.5542979294686
512.5569902641847
512.5596818284274
512.5623726220184
512.5650626447797
512.5677518965332
512.5704403771011
512.5731280863059
512.5758150239702
512.5785011899167
512.5811865839681
512.5838712059475
512.5865550556779
512.5892381329826
512.591920437685
512.5946019696086
512.5972827285772
512.5999627144143
512.6026419269436
512.6053203659889
512.607998031374
512.6106749229235
512.6133510404621
512.6160263838148
512.6187009528068
512.6213747472638
512.6240477670113
512.6267200118751
512.6293914816805
512.632062176253
512.6347320954181
512.6374012390014
512.6400696068289
512.6427371987266
512.645404014521
512.6480700540384
512.6507353171061
512.6533998035515
512.6560635132022
512.6587264458864
512.6613886014321
512.6640499796675
512.6667105804207
512.6693704035198
512.6720294487928
512.6746877160687
512.6773452051758
512.6800019159429
512.6826578481983
512.6853130017711
512.6879673764903
512.6906209721857
512.6932737886874
512.6959258258254
512.6985770834295
512.70122756133
512.703877259357
512.7065261773408
512.7091743151124
512.7118216725027
512.7144682493428
512.7171140454637
512.7197590606969
512.7224032948735
512.7250467478258
512.7276894193857
512.7303313093854
512.7329724176574
512.735612744034
512.7382522883478
512.7408910504311
512.7435290301163
512.7461662272364
512.7488026416246
512.7514382731148
512.7540731215407
512.7567071867364
512.7593404685362
512.7619729667746
512.7646046812864
512.7672356119066
512.7698657584702
512.7724951208126
512.7751236987689
512.7777514921746
512.7803785008651
512.7830047246763
512.7856301634439
512.788254817004
512.7908786851932
512.7935017678486
512.7961240648075
512.798745575907
512.8013663009843
512.8039862398765
512.8066053924205
512.8092237584534
512.811841337813
512.8144581303369
512.817074135863
512.8196893542296
512.8223037852755
512.82491742884
512.827530284762
512.8301423528811
512.832753633037
512.8353641250698
512.8379738288196
512.8405827441271
512.8431908708332
512.8457982087785
512.8484047578044
512.8510105177517
512.853615488462
512.8562196697768
512.8588230615379
512.861425663587
512.8640274757655
512.8666284979148
512.8692287298767
512.8718281714929
512.8744268226056
512.8770246830574
512.8796217526907
512.882218031349
512.8848135188756
512.8874082151139
512.8900021199075
512.8925952331007
512.8951875545371
512.8977790840605
512.900369821515
512.9029597667446
512.9055489195938
512.908137279907
512.910724847529
512.9133116223044
512.9158976040782
512.9184827926955
512.9210671880015
512.9236507898412
512.9262335980599
512.9288156125032
512.9313968330165
512.9339772594454
512.9365568916356
512.9391357294331
512.941713772684
512.9442910212348
512.9468674749318
512.949443133621
512.9520179971486
512.954592065361
512.957165338105
512.9597378152276
512.9623094965756
512.9648803819956
512.9674504713349
512.970019764441
512.9725882611614
512.9751559613443
512.9777228648383
512.9802889714916
512.982854281153
512.9854187936713
512.9879825088959
512.9905454266762
512.9931075468618
512.9956688693022
512.9982293938475
513.0007891203478
513.0033480486537
513.0059061786161
513.0084635100858
513.0110200429139
513.0135757769518
513.0161307120512
513.0186848480638
513.0212381848411
513.023790722235
513.0263424600981
513.028893398283
513.0314435366419
513.0339928750271
513.0365414132917
513.0390891512885
513.0416360888704
513.0441822258905
513.0467275622019
513.0492720976578
513.0518158321116
513.0543587654171
513.0569008974281
513.0594422279993
513.061982756985
513.0645224842398
513.0670614096181
513.0695995329751
513.0721368541655
513.074673373044
513.0772090894656
513.0797440032853
513.0822781143585
513.0848114225402
513.0873439276858
513.0898756296511
513.0924065282921
513.0949366234646
513.0974659150244
513.0999944028277
513.1025220867315
513.1050489665923
513.1075750422671
513.1101003136129
513.112624780487
513.1151484427465
513.1176713002491
513.1201933528517
513.1227146004122
513.1252350427882
513.127754679838
513.1302735114201
513.1327915373932
513.1353087576159
513.1378251719467
513.1403407802446
513.1428555823692
513.1453695781794
513.1478827675343
513.1503951502924
513.1529067263124
513.155417495453
513.1579274575735
513.1604366125333
513.162944960192
513.1654525004088
513.1679592330432
513.1704651579549
513.1729702750036
513.1754745840495
513.177978084953
513.1804807775744
513.1829826617742
513.1854837374127
513.1879840043506
513.190483462448
513.1929821115656
513.1954799515639
513.1979769823037
513.200473203645
513.2029686154484
513.2054632175751
513.2079570098864
513.2104499922435
513.2129421645078
513.2154335265408
513.2179240782044
513.2204138193607
513.2229027498717
513.2253908695994
513.2278781784065
513.2303646761553
513.2328503627083
513.2353352379276
513.2378193016754
513.2403025538136
513.2427849942052
513.2452666227128
513.2477474391995
513.2502274435284
513.2527066355625
513.255185015165
513.257662582199
513.2601393365277
513.2626152780141
513.2650904065214
513.2675647219127
513.2700382240515
513.2725109128017
513.2749827880274
513.2774538495927
513.2799240973619
513.2823935311995
513.2848621509696
513.2873299565364
513.2897969477641
513.292263124517
513.2947284866592
513.2971930340547
513.2996567665672
513.3021196840606
513.3045817863987
513.3070430734455
513.3095035450652
513.3119632011222
513.314422041481
513.3168800660061
513.3193372745626
513.3217936670152
513.3242492432288
513.3267040030684
513.3291579463988
513.3316110730854
513.3340633829931
513.3365148759873
513.3389655519328
513.3414154106946
513.3438644521376
513.3463126761272
513.3487600825289
513.3512066712079
513.3536524420298
513.3560973948598
513.3585415295635
513.3609848460065
513.3634273440549
513.3658690235744
513.3683098844309
513.3707499264907
513.3731891496205
513.3756275536877
513.3780651385595
513.3805019041037
513.3829378501883
513.3853729766819
513.3878072834524
513.3902407703678
513.3926734372955
513.3951052841029
513.3975363106575
513.3999665168268
513.4023959024777
513.4048244674772
513.4072522116918
513.4096791349881
513.4121052372326
513.414530518292
513.4169549780332
513.4193786163231
513.4218014330291
513.4242234280188
513.4266446011594
513.4290649523185
513.431484481364
513.4339031881638
513.4363210725861
513.4387381344997
513.4411543737734
513.4435697902769
513.4459843838796
513.448398154451
513.4508111018603
513.453223225977
513.4556345266711
513.4580450038126
513.4604546572715
513.4628634869183
513.4652714926234
513.4676786742576
513.4700850316918
513.4724905647973
513.4748952734454
513.4772991575074
513.4797022168547
513.4821044513584
513.48450586089
513.4869064453209
513.4893062045227
513.4917051383674
513.4941032467269
513.4965005294736
513.4988969864793
513.5012926176161
513.5036874227561
513.5060814017721
513.5084745545367
513.5108668809229
513.5132583808032
513.5156490540502
513.518038900536
513.5204279201326
513.5228161127126
513.5252034781485
513.527590016313
513.5299757270792
513.5323606103203
513.5347446659094
513.5371278937197
513.5395102936244
513.5418918654972
513.544272609212
513.546652524643
513.549031611664
513.5514098701489
513.5537872999718
513.5561639010069
513.5585396731284
513.5609146162104
513.5632887301273
513.5656620147535
513.5680344699639
513.570406095634
513.5727768916391
513.5751468578547
513.577515994156
513.579884300418
513.582251776516
513.5846184223252
513.5869842377207
513.5893492225779
513.5917133767722
513.5940767001788
513.5964391926728
513.5988008541298
513.6011616844254
513.6035216834354
513.6058808510353
513.608239187101
513.6105966915085
513.6129533641337
513.6153092048527
513.6176642135416
513.620018390077
513.6223717343354
513.6247242461935
513.627075925528
513.6294267722157
513.6317767861339
513.63412596716
513.6364743151715
513.6388218300464
513.6411685116619
513.6435143598957
513.645859374625
513.6482035557277
513.6505469030811
513.6528894165627
513.6552310960502
513.6575719414215
513.6599119525541
513.6622511293259
513.6645894716149
513.6669269792995
513.6692636522581
513.6715994903687
513.67393449351
513.6762686615608
513.6786019943999
513.680934491906
513.6832661539576
513.6855969804332
513.6879269712116
513.6902561261717
513.6925844451924
513.6949119281531
513.6972385749331
513.6995643854117
513.7018893594687
513.7042134969839
513.7065367978372
513.7088592619087
513.711180889079
513.713501679228
513.7158216322363
513.718140747984
513.7204590263515
513.7227764672192
513.7250930704673
513.727408835976
513.7297237636254
513.7320378532962
513.7343511048686
513.7366635182224
513.7389750932374
513.7412858297934
513.74359572777
513.7459047870472
513.7482130075049
513.7505203890236
513.752826931484
513.7551326347674
513.7574374987549
513.7597415233287
513.7620447083706
513.7643470537627
513.7666485593869
513.7689492251255
513.7712490508608
513.7735480364746
513.775846181849
513.7781434868665
513.7804399514099
513.7827355753622
513.7850303586066
513.7873243010268
513.7896174025065
513.791909662929
513.7942010821786
513.7964916601396
513.7987813966967
513.8010702917342
513.8033583451364
513.8056455567877
513.8079319265722
513.8102174543743
513.8125021400782
513.8147859835682
513.8170689847285
513.8193511434434
513.8216324595975
513.8239129330756
513.8261925637627
513.8284713515437
513.8307492963037
513.833026397927
513.8353026562983
513.8375780713026
513.8398526428253
513.8421263707522
513.8443992549693
513.8466712953626
513.8489424918183
513.8512128442222
513.8534823524604
513.8557510164195
513.8580188359862
513.8602858110477
513.8625519414912
513.8648172272043
513.8670816680743
513.8693452639887
513.8716080148353
513.8738699205011
513.8761309808734
513.8783911958393
513.8806505652861
513.8829090891014
513.885166767173
513.8874235993893
513.8896795856386
513.8919347258094
513.8941890197899
513.8964424674683
513.8986950687328
513.9009468234714
513.9031977315723
513.9054477929236
513.907697007414
513.9099453749319
513.9121928953665
513.9144395686063
513.9166853945404
513.9189303730581
513.9211745040487
513.9234177874022
513.9256602230085
513.9279018107578
513.9301425505402
513.9323824422455
513.9346214857641
513.9368596809862
513.9390970278029
513.9413335261046
513.943569175782
513.9458039767261
513.9480379288278
513.9502710319786
513.9525032860698
513.9547346909932
513.9569652466399
513.9591949529014
513.9614238096686
513.9636518168332
513.9658789742867
513.9681052819209
513.9703307396277
513.9725553472996
513.974779104829
513.9770020121083
513.9792240690296
513.981445275485
513.983665631367
513.9858851365676
513.9881037909787
513.990321594492
513.9925385469993
513.9947546483924
513.9969698985632
513.9991842974038
514.0013978448063
514.0036105406633
514.005822384867
514.0080333773093
514.0102435178823
514.0124528064781
514.0146612429893
514.0168688273085
514.0190755593286
514.0212814389425
514.023486466043
514.0256906405226
514.0278939622741
514.0300964311899
514.032298047163
514.0344988100866
514.0366987198541
514.0388977763592
514.0410959794957
514.0432933291576
514.0454898252389
514.0476854676339
514.0498802562371
514.0520741909432
514.0542672716468
514.0564594982426
514.0586508706252
514.0608413886893
514.0630310523296
514.0652198614413
514.0674078159194
514.0695949156592
514.071781160556
514.0739665505054
514.0761510854028
514.0783347651437
514.0805175896236
514.0826995587382
514.0848806723831
514.0870609304535
514.089240332845
514.0914188794533
514.0935965701743
514.095773404904
514.0979493835381
514.1001245059728
514.1022987721043
514.104472181829
514.1066447350435
514.1088164316446
514.1109872715293
514.1131572545943
514.1153263807365
514.1174946498528
514.1196620618399
514.121828616595
514.1239943140157
514.1261591539993
514.1283231364433
514.1304862612457
514.1326485283047
514.134809937519
514.1369704887871
514.1391301820078
514.1412890170792
514.1434469939
514.1456041123689
514.1477603723844
514.149915773845
514.1520703166494
514.1542240006962
514.1563768258842
514.1585287921126
514.1606798992804
514.162830147286
514.164979536028
514.1671280654051
514.1692757353156
514.1714225456586
514.1735684963334
514.1757135872391
514.1778578182749
514.1800011893403
514.1821437003349
514.184285351159
514.186426141713
514.1885660718978
514.1907051416143
514.1928433507643
514.1949806992494
514.1971171869715
514.1992528138322
514.2013875797333
514.2035214845765
514.2056545282638
514.2077867106972
514.2099180317788
514.2120484914111
514.2141780894968
514.2163068259389
514.2184347006397
514.2205617135018
514.2226878644277
514.2248131533203
514.2269375800819
514.2290611446152
514.2311838468228
514.233305686607
514.2354266638703
514.2375467785151
514.239666030444
514.2417844195594
514.2439019457639
514.2460186089608
514.248134409053
514.2502493459439
514.2523634195364
514.2544766297341
514.2565889764402
514.2587004595581
514.2608110789917
514.2629208346449
514.2650297264216
514.2671377542257
514.2692449179609
514.2713512175311
514.2734566528399
514.2755612237908
514.2776649302879
514.2797677722352
514.2818697495369
514.2839708620969
514.2860711098193
514.2881704926086
514.2902690103696
514.2923666630073
514.2944634504271
514.2965593725345
514.2986544292354
514.3007486204357
514.3028419460417
514.3049344059601
514.3070260000981
514.3091167283629
514.3112065906622
514.3132955869029
514.3153837169924
514.317470980838
514.319557378347
514.3216429094265
514.3237275739835
514.3258113719249
514.3278943031574
514.3299763675878
514.3320575651229
514.3341378956694
514.3362173591341
514.3382959554239
514.3403736844454
514.3424505461056
514.3445265403114
514.3466016669696
514.3486759259871
514.3507493172707
514.352821840727
514.354893496262
514.3569642837821
514.3590342031936
514.3611032544028
514.3631714373156
514.3652387518379
514.3673051978759
514.369370775336
514.3714354841246
514.3734993241477
514.3755622953119
514.3776243975236
514.3796856306896
514.3817459947164
514.3838054895115
514.3858641149819
514.3879218710352
514.3899787575784
514.3920347745185
514.3940899217629
514.3961441992193
514.3981976067956
514.4002501443996
514.4023018119386
514.40435260932
514.4064025364509
514.4084515932385
514.4104997795899
514.4125470954122
514.4145935406126
514.4166391150987
514.4186838187783
514.4207276515593
514.4227706133505
514.4248127040609
514.4268539236003
514.4288942718796
514.4309337488093
514.4329723542997
514.4350100882615
514.4370469506056
514.4390829412433
514.4411180600858
514.4431523070444
514.4451856820309
514.4472181849577
514.4492498157373
514.4512805742824
514.4533104605056
514.4553394743201
514.45736761564
514.4593948843798
514.4614212804539
514.4634468037776
514.4654714542661
514.4674952318345
514.4695181363987
514.4715401678749
514.4735613261795
514.4755816112294
514.4776010229415
514.4796195612333
514.4816372260224
514.4836540172265
514.4856699347639
514.4876849785529
514.4896991485117
514.4917124445586
514.4937248666123
514.4957364145915
514.4977470884156
514.4997568880038
514.5017658132753
514.5037738641489
514.5057810405441
514.5077873423801
514.5097927695764
514.511797322053
514.5138009997303
514.5158038025287
514.5178057303687
514.5198067831706
514.5218069608553
514.5238062633442
514.5258046905593
514.5278022424226
514.529798918856
514.5317947197815
514.5337896451207
514.5357836947952
514.5377768687271
514.539769166838
514.5417605890503
514.5437511352867
514.5457408054698
514.5477295995228
514.549717517369
514.5517045589319
514.5536907241348
514.5556760129017
514.557660425157
514.5596439608249
514.5616266198298
514.5636084020958
514.5655893075472
514.5675693361082
514.5695484877041
514.5715267622594
514.5735041596992
514.5754806799492
514.5774563229355
514.5794310885843
514.5814049768222
514.5833779875758
514.5853501207715
514.587321376336
514.5892917541961
514.5912612542787
514.5932298765109
514.5951976208202
514.5971644871341
514.5991304753805
514.6010955854878
514.6030598173844
514.6050231709991
514.6069856462606
514.608947243098
514.6109079614401
514.6128678012163
514.6148267623561
514.6167848447889
514.6187420484447
514.6206983732535
514.6226538191453
514.6246083860498
514.6265620738967
514.6285148826163
514.6304668121387
514.6324178623946
514.6343680333149
514.6363173248304
514.6382657368725
514.6402132693728
514.642159922263
514.6441056954753
514.6460505889423
514.6479946025969
514.649937736372
514.6518799902013
514.6538213640196
514.6557618577616
514.6577014713627
514.6596402047579
514.6615780578828
514.6635150306728
514.6654511230635
514.6673863349907
514.6693206663907
514.6712541171995
514.6731866873537
514.67511837679
514.6770491854458
514.6789791132584
514.6809081601654
514.6828363261039
514.6847636110118
514.6866900148271
514.6886155374881
514.690540178933
514.6924639391008
514.6943868179304
514.6963088153612
514.698229931333
514.7001501657861
514.7020695186615
514.7039879898999
514.7059055794429
514.7078222872318
514.7097381132088
514.7116530573165
514.7135671194982
514.7154802996973
514.7173925978576
514.7193040139231
514.7212145478383
514.7231241995481
514.7250329689977
514.7269408561323
514.7288478608976
514.7307539832394
514.7326592231035
514.734563580436
514.7364670551837
514.7383696472938
514.7402713567138
514.7421721833917
514.7440721272761
514.7459711883156
514.7478693664585
514.7497666616536
514.7516630738495
514.7535586029959
514.755453249043
514.7573470119413
514.7592398916421
514.7611318880962
514.763023001255
514.7649132310697
514.7668025774921
514.7686910404738
514.7705786199673
514.7724653159252
514.7743511283005
514.7762360570463
514.7781201021156
514.7800032634615
514.7818855410372
514.7837669347967
514.7856474446938
514.7875270706826
514.7894058127171
514.7912836707513
514.7931606447397
514.7950367346369
514.7969119403978
514.7987862619774
514.8006596993308
514.8025322524137
514.8044039211821
514.8062747055927
514.808144605602
514.8100136211666
514.8118817522435
514.8137489987897
514.8156153607623
514.8174808381183
514.8193454308147
514.821209138809
514.8230719620586
514.8249339005209
514.8267949541531
514.8286551229122
514.8305144067557
514.8323728056411
514.8342303195262
514.8360869483694
514.8379426921286
514.8397975507627
514.8416515242303
514.8435046124904
514.8453568155018
514.8472081332237
514.8490585656158
514.8509081126377
514.8527567742493
514.8546045504103
514.8564514410808
514.8582974462216
514.8601425657934
514.8619867997567
514.8638301480722
514.8656726107009
514.8675141876039
514.8693548787422
514.8711946840773
514.8730336035707
514.8748716371841
514.8767087848795
514.8785450466188
514.8803804223647
514.8822149120805
514.8840485157297
514.8858812332759
514.8877130646837
514.8895440099176
514.8913740689421
514.8932032417225
514.895031528224
514.8968589284121
514.8986854422532
514.9005110697134
514.9023358107596
514.9041596653591
514.9059826334791
514.9078047150869
514.9096259101497
514.9114462186352
514.9132656405117
514.915084175747
514.9169018243095
514.9187185861673
514.9205344612884
514.9223494496413
514.9241635511947
514.9259767659181
514.9277890937809
514.9296005347534
514.9314110888055
514.9332207559072
514.9350295360285
514.9368374291395
514.9386444352102
514.940450554211
514.9422557861122
514.9440601308846
514.9458635884988
514.9476661589259
514.9494678421373
514.9512686381044
514.9530685467981
514.9548675681898
514.9566657022505
514.9584629489517
514.9602593082651
514.9620547801627
514.963849364617
514.9656430616004
514.9674358710853
514.9692277930443
514.9710188274502
514.9728089742761
514.9745982334952
514.9763866050811
514.9781740890079
514.9799606852501
514.9817463937824
514.9835312145796
514.9853151476171
514.9870981928713
514.9888803503183
514.9906616199349
514.9924420016986
514.9942214955867
514.9960001015769
514.9977778196466
514.9995546497734
515.0013305919355
515.0031056461115
515.0048798122801
515.0066530904206
515.0084254805128
515.0101969825367
515.0119675964728
515.0137373223014
515.0155061600027
515.0172741095574
515.0190411709465
515.0208073441507
515.0225726291513
515.0243370259299
515.0261005344684
515.0278631547493
515.0296248867552
515.031385730469
515.0331456858738
515.0349047529531
515.0366629316903
515.0384202220692
515.040176624074
515.0419321376884
515.0436867628965
515.045440499683
515.0471933480325
515.0489453079302
515.0506963793617
515.0524465623129
515.0541958567698
515.055944262719
515.0576917801476
515.0594384090426
515.0611841493914
515.0629290011815
515.0646729644012
515.0664160390387
515.0681582250819
515.069899522519
515.0716399313382
515.0733794515276
515.0751180830758
515.0768558259718
515.0785926802049
515.0803286457643
515.0820637226396
515.0837979108204
515.0855312102966
515.0872636210587
515.0889951430971
515.0907257764023
515.0924555209648
515.0941843767754
515.0959123438255
515.0976394221065
515.0993656116099
515.1010909123275
515.1028153242515
515.1045388473743
515.1062614816882
515.1079832271856
515.1097040838589
515.1114240517003
515.113143130702
515.1148613208564
515.1165786221562
515.1182950345943
515.1200105581635
515.1217251928566
515.1234389386667
515.1251517955867
515.12686376361
515.12857484273
515.1302850329406
515.1319943342359
515.1337027466099
515.1354102700569
515.1371169045714
515.1388226501475
515.1405275067794
515.1422314744617
515.1439345531893
515.1456367429574
515.1473380437616
515.1490384555976
515.1507379784617
515.1524366123498
515.1541343572577
515.1558312131816
515.1575271801181
515.1592222580638
515.1609164470154
515.1626097469701
515.1643021579251
515.1659936798775
515.1676843128247
515.1693740567647
515.1710629116961
515.1727508776174
515.1744379545274
515.1761241424255
515.1778094413111
515.179493851184
515.1811773720445
515.1828600038929
515.1845417467292
515.1862226005545
515.1879025653701
515.1895816411778
515.1912598279799
515.1929371257787
515.1946135345764
515.1962890543754
515.1979636851778
515.1996374269855
515.2013102798006
515.2029822436251
515.2046533184615
515.2063235043128
515.2079928011821
515.209661209073
515.2113287279898
515.2129953579366
515.2146610989176
515.2163259509372
515.2179899139995
515.2196529881093
515.2213151732709
515.2229764694893
515.2246368767693
515.2262963951165
515.2279550245363
515.2296127650342
515.231269616616
515.2329255792882
515.2345806530574
515.23623483793
515.2378881339129
515.2395405410124
515.2411920592348
515.2428426885864
515.2444924290743
515.2461412807057
515.2477892434885
515.2494363174304
515.2510825025403
515.2527277988266
515.2543722062982
515.2560157249637
515.2576583548322
515.2593000959126
515.2609409482146
515.2625809117475
515.2642199865207
515.265858172544
515.2674954698267
515.269131878379
515.2707673982112
515.2724020293339
515.2740357717579
515.2756686254946
515.2773005905557
515.2789316669531
515.2805618546994
515.2821911538073
515.2838195642897
515.2854470861595
515.2870737194293
515.2886994641116
515.2903243202194
515.2919482877659
515.2935713667638
515.2951935572258
515.296814859165
515.2984352725942
515.3000547975265
515.301673433975
515.3032911819529
515.3049080414734
515.3065240125501
515.3081390951971
515.3097532894288
515.3113665952595
515.312979012704
515.3145905417767
515.3162011824928
515.3178109348677
515.3194197989172
515.3210277746581
515.3226348621073
515.3242410612824
515.325846372201
515.3274507948812
515.3290543293414
515.3306569755999
515.3322587336755
515.3338596035873
515.3354595853544
515.3370586789964
515.338656884533
515.3402542019838
515.3418506313695
515.3434461727101
515.3450408260252
515.3466345913347
515.3482274686584
515.3498194580164
515.3514105594294
515.3530007729181
515.3545900985035
515.356178536207
515.3577660860502
515.3593527480549
515.3609385222434
515.3625234086379
515.364107407261
515.365690518135
515.3672727412821
515.3688540767247
515.3704345244854
515.3720140845872
515.3735927570536
515.3751705419087
515.3767474391765
515.3783234488814
515.3798985710481
515.3814728057017
515.3830461528672
515.3846186125696
515.3861901848339
515.3877608696856
515.3893306671501
515.3908995772532
515.3924676000205
515.3940347354782
515.3956009836523
515.397166344569
515.3987308182544
515.4002944047355
515.4018571040393
515.4034189161933
515.4049798412251
515.406539879163
515.4080990300357
515.4096572938723
515.411214670702
515.4127711605537
515.4143267634566
515.4158814794404
515.417435308534
515.4189882507666
515.4205403061673
515.4220914747651
515.4236417565893
515.4251911516693
515.4267396600352
515.4282872817172
515.429834016746
515.4313798651527
515.432924826969
515.4344689022263
515.4360120909561
515.43755439319
515.4390958089597
515.4406363382967
515.4421759812329
515.4437147378004
515.4452526080314
515.4467895919582
515.4483256896136
515.4498609010305
515.4513952262422
515.452928665282
515.4544612181834
515.45599288498
515.4575236657055
515.4590535603937
515.4605825690786
515.4621106917942
515.4636379285745
515.4651642794537
515.466689744466
515.4682143236452
515.4697380170254
515.4712608246413
515.4727827465275
515.4743037827192
515.4758239332517
515.4773431981606
515.4788615774813
515.4803790712493
515.4818956795003
515.4834114022707
515.4849262395973
515.4864401915169
515.4879532580666
515.4894654392837
515.4909767352054
515.4924871458694
515.4939966713131
515.495505311574
515.4970130666896
515.4985199366976
515.5000259216353
515.5015310215407
515.5030352364523
515.5045385664088
515.5060410114496
515.5075425716149
515.5090432469445
515.5105430374787
515.5120419432573
515.5135399643203
515.5150371007084
515.5165333524618
515.5180287196212
515.5195232022271
515.5210168003208
515.5225095139439
515.5240013431381
515.5254922879454
515.5269823484076
515.528471524566
515.5299598164626
515.5314472241392
515.5329337476386
515.5344193870031
515.5359041422752
515.5373880134972
515.5388710007122
515.5403531039632
515.5418343232931
515.5433146587451
515.5447941103629
515.5462726781901
515.5477503622704
515.5492271626475
515.5507030793655
515.5521781124684
515.5536522620001
515.5551255280046
515.556597910526
515.5580694096085
515.5595400252968
515.5610097576358
515.5624786066704
515.5639465724456
515.5654136550071
515.566879854401
515.568345170674
515.5698096038726
515.5712731540438
515.5727358212342
515.5741976054909
515.5756585068608
515.5771185253915
515.5785776611305
515.5800359141257
515.5814932844256
515.5829497720787
515.5844053771331
515.5858600996368
515.587313939638
515.5887668971853
515.5902189723273
515.5916701651123
515.5931204755888
515.5945699038056
515.596018449812
515.5974661136578
515.5989128953926
515.6003587950664
515.6018038127294
515.6032479484314
515.6046912022229
515.6061335741541
515.6075750642757
515.6090156726378
515.6104553992908
515.6118942442848
515.6133322076704
515.6147692894982
515.6162054898194
515.6176408086852
515.6190752461472
515.6205088022574
515.6219414770679
515.6233732706309
515.6248041829984
515.6262342142235
515.6276633643589
515.629091633458
515.6305190215738
515.6319455287602
515.6333711550709
515.6347959005601
515.6362197652819
515.6376427492904
515.6390648526398
515.6404860753845
515.6419064175797
515.6433258792803
515.6447444605413
515.6461621614179
515.6475789819652
515.6489949222386
515.6504099822934
515.6518241621853
515.6532374619702
515.6546498817037
515.6560614214417
515.6574720812404
515.6588818611559
515.6602907612447
515.6616987815636
515.6631059221694
515.6645121831187
515.6659175644685
515.6673220662757
515.6687256885979
515.6701284314928
515.6715302950187
515.6729312792339
515.674331384197
515.6757306099665
515.6771289566012
515.6785264241599
515.6799230127016
515.681318722285
515.6827135529696
515.684107504815
515.6855005778806
515.6868927722261
515.688284087911
515.689674524995
515.6910640835375
515.6924527635982
515.6938405652367
515.6952274885124
515.6966135334852
515.697998700215
515.6993829887614
515.7007663991848
515.7021489315456
515.7035305859043
515.7049113623219
515.7062912608593
515.7076702815781
515.7090484245399
515.7104256898064
515.7118020774391
515.7131775874994
515.7145522200489
515.7159259751487
515.7172988528602
515.7186708532446
515.7200419763634
515.7214122222784
515.7227815910518
515.7241500827453
515.7255176974212
515.7268844351419
515.7282502959696
515.7296152799671
515.7309793871972
515.732342617723
515.7337049716081
515.7350664489162
515.736427049712
515.73778677406
515.7391456220251
515.7405035936721
515.7418606890654
515.7432169082703
515.7445722513515
515.7459267183746
515.7472803094043
515.7486330245059
515.7499848637443
515.7513358271848
515.7526859148926
515.7540351269334
515.7553834633733
515.7567309242783
515.7580775097148
515.7594232197497
515.7607680544496
515.7621120138814
515.7634550981121
515.7647973072088
515.7661386412386
515.7674791002686
515.7688186843656
515.7701573935962
515.771495228027
515.7728321877249
515.7741682727573
515.7755034831915
515.7768378190952
515.7781712805362
515.7795038675825
515.780835580303
515.7821664187667
515.7834963830431
515.7848254732024
515.786153689315
515.7874810314519
515.7888074996841
515.790133094083
515.7914578147198
515.7927816616663
515.7941046349937
515.795426734774
515.7967479610787
515.7980683139796
515.7993877935481
515.8007063998565
515.8020241329767
515.8033409929811
515.804656979942
515.8059720939324
515.8072863350257
515.8085997032953
515.8099121988151
515.8112238216594
515.8125345719021
515.8138444496179
515.8151534548816
515.816461587768
515.8177688483519
515.819075236708
515.8203807529115
515.8216853970374
515.8229891691611
515.8242920693584
515.8255940977054
515.8268952542784
515.8281955391539
515.8294949524087
515.8307934941198
515.8320911643642
515.833387963219
515.8346838907613
515.8359789470686
515.8372731322191
515.8385664462911
515.839858889363
515.8411504615132
515.8424411628201
515.8437309933623
515.845019953218
515.8463080424659
515.8475952611851
515.8488816094547
515.8501670873537
515.8514516949614
515.8527354323568
515.854018299619
515.8553002968273
515.8565814240609
515.8578616813992
515.859141068922
515.8604195867091
515.8616972348406
515.8629740133964
515.8642499224569
515.8655249621023
515.8667991324127
515.868072433468
515.8693448653488
515.8706164281353
515.8718871219079
515.8731569467467
515.8744259027325
515.875693989946
515.8769612084678
515.8782275583791
515.8794930397606
515.8807576526937
515.8820213972593
515.8832842735386
515.8845462816124
515.8858074215617
515.8870676934674
515.8883270974105
515.8895856334719
515.8908433017331
515.8921001022758
515.8933560351819
515.8946111005333
515.8958652984119
515.8971186288994
515.8983710920778
515.8996226880294
515.9008734168368
515.9021232785834
515.9033722733526
515.9046204012283
515.9058676622943
515.9071140566351
515.908359584335
515.9096042454784
515.91084804015
515.9120909684347
515.9133330304172
515.9145742261829
515.9158145558171
515.9170540194049
515.9182926170314
515.9195303487817
515.9207672147412
515.9220032149955
515.9232383496304
515.9244726187325
515.925706022388
515.9269385606839
515.9281702337074
515.9294010415459
515.9306309842867
515.9318600620173
515.9330882748253
515.9343156227984
515.935542106024
515.9367677245892
515.937992478582
515.9392163680903
515.9404393932024
515.9416615540068
515.9428828505924
515.9441032830476
515.9453228514611
515.9465415559215
515.9477593965179
515.9489763733394
515.9501924864752
515.9514077360144
515.9526221220461
515.95383564466
515.9550483039458
515.9562600999933
515.9574710328924
515.9586811027328
515.9598903096049
515.9610986535989
515.9623061348053
515.9635127533148
515.9647185092186
515.9659234026079
515.9671274335741
515.9683306022085
515.9695329086034
515.9707343528502
515.9719349350406
515.9731346552666
515.9743335136199
515.9755315101921
515.976728645075
515.9779249183601
515.9791203301392
515.9803148805039
515.9815085695462
515.9827013973583
515.983893364032
515.9850844696597
515.9862747143335
515.987464098146
515.9886526211898
515.9898402835571
515.9910270853405
515.9922130266331
515.9933981075279
515.9945823281183
515.9957656884977
515.9969481887598
515.9981298289985
515.9993106093078
516.0004905297823
516.0016695905161
516.0028477916038
516.0040251331401
516.0052016152202
516.0063772379398
516.0075520013942
516.008725905679
516.0098989508898
516.0110711371223
516.0122424644713
516.0134129330328
516.0145825429021
516.015751294175
516.0169191869473
516.018086221315
516.0192523973736
516.020417715219
516.021582174947
516.0227457766536
516.0239085204347
516.0250704063859
516.0262314346024
516.0273916051796
516.0285509182121
516.0297093737951
516.0308669720235
516.0320237129926
516.0331795967971
516.0343346235326
516.0354887932943
516.0366421061782
516.0377945622796
516.0389461616943
516.040096904518
516.0412467908467
516.042395820776
516.0435439944016
516.0446913118184
516.0458377731219
516.0469833784081
516.0481281277729
516.0492720213123
516.0504150591217
516.051557241297
516.0526985679343
516.0538390391299
516.0549786549803
516.056117415582
516.0572553210312
516.0583923714247
516.0595285668593
516.0606639074316
516.0617983932383
516.062932024376
516.0640648009415
516.0651967230318
516.0663277907435
516.0674580041731
516.0685873634176
516.0697158685738
516.0708435197388
516.0719703170092
516.073096260482
516.0742213502539
516.0753455864216
516.0764689690817
516.0775914983309
516.0787131742658
516.0798339969832
516.0809539665801
516.0820730831534
516.0831913468006
516.0843087576185
516.0854253157039
516.086541021154
516.0876558740655
516.0887698745354
516.08988302266
516.0909953185356
516.0921067622584
516.0932173539244
516.0943270936301
516.0954359814722
516.0965440175472
516.0976512019523
516.0987575347852
516.0998630161438
516.1009676461257
516.1020714248288
516.103174352351
516.1042764287903
516.1053776542448
516.1064780288124
516.1075775525914
516.1086762256801
516.1097740481772
516.1108710201805
516.1119671417881
516.1130624130982
516.1141568342088
516.115250405218
516.1163431262243
516.1174349973256
516.1185260186206
516.1196161902079
516.1207055121862
516.1217939846539
516.1228816077095
516.1239683814514
516.1250543059786
516.1261393813896
516.1272236077835
516.1283069852597
516.1293895139173
516.1304711938559
516.131552025175
516.1326320079742
516.133711142353
516.1347894284114
516.1358668662491
516.1369434559657
516.1380191976604
516.1390940914324
516.1401681373815
516.1412413356069
516.142313686208
516.1433851892847
516.1444558449369
516.1455256532646
516.1465946143679
516.1476627283472
516.1487299953022
516.1497964153328
516.1508619885393
516.1519267150219
516.1529905948806
516.1540536282158
516.1551158151277
516.1561771557166
516.1572376500832
516.1582972983286
516.1593561005544
516.1604140568619
516.1614711673527
516.162527432129
516.1635828512927
516.1646374249461
516.1656911531912
516.1667440361306
516.167796073867
516.1688472665036
516.1698976141437
516.1709471168907
516.1719957748479
516.1730435881183
516.1740905568048
516.1751366810107
516.1761819608395
516.1772263963948
516.1782699877803
516.1793127350999
516.1803546384575
516.1813956979571
516.1824359137021
516.1834752857961
516.184513814343
516.1855514994464
516.1865883412107
516.18762433974
516.1886594951378
516.1896938075082
516.1907272769548
516.1917599035813
516.1927916874914
516.1938226287886
516.1948527275757
516.1958819839562
516.1969103980335
516.1979379699118
516.1989646996952
516.1999905874881
516.2010156333948
516.2020398375201
516.2030631999688
516.2040857208457
516.205107400256
516.206128238305
516.2071482350981
516.2081673907404
516.2091857053373
516.210203178994
516.211219811816
516.2122356039091
516.213250555379
516.2142646663318
516.2152779368743
516.2162903671132
516.2173019571561
516.2183127071106
516.2193226170842
516.220331687185
516.2213399175206
516.2223473081989
516.2233538593272
516.2243595710128
516.225364443363
516.2263684764852
516.2273716704868
516.228374025476
516.2293755415611
516.2303762188507
516.2313760574533
516.2323750574775
516.2333732190319
516.2343705422257
516.2353670271681
516.2363626739678
516.2373574827337
516.2383514535749
516.2393445866009
516.2403368819213
516.2413283396457
516.2423189598843
516.243308742747
516.2442976883439
516.245285796785
516.2462730681808
516.2472595026419
516.248245100279
516.2492298612027
516.2502137855239
516.2511968733537
516.2521791248035
516.2531605399848
516.2541411190092
516.2551208619888
516.2560997690356
516.2570778402618
516.2580550757797
516.259031475702
516.2600070401417
516.2609817692113
516.261955663024
516.2629287216927
516.2639009453304
516.2648723340502
516.2658428879648
516.266812607187
516.2677814918301
516.2687495420072
516.2697167578318
516.2706831394177
516.2716486868784
516.2726134003279
516.2735772798802
516.2745403256489
516.2755025377475
516.2764639162891
516.2774244613871
516.2783841731549
516.2793430517062
516.2803010971544
516.281258309613
516.2822146891957
516.2831702360157
516.2841249501865
516.2850788318214
516.2860318810339
516.286984097938
516.2879354826476
516.2888860352767
516.2898357559392
516.2907846447491
516.2917327018209
516.2926799272692
516.2936263212085
516.2945718837535
516.2955166150185
516.2964605151182
516.297403584167
516.2983458222801
516.2992872295728
516.3002278061603
516.3011675521578
516.3021064676808
516.3030445528442
516.3039818077633
516.3049182325536
516.3058538273307
516.3067885922097
516.3077225273063
516.3086556327356
516.309587908613
516.310519355054
516.311449972174
516.3123797600887
516.3133087189134
516.3142368487635
516.3151641497544
516.316090622002
516.3170162656219
516.3179410807298
516.3188650674414
516.3197882258722
516.3207105561381
516.3216320583548
516.3225527326375
516.3234725791016
516.3243915978622
516.325309789035
516.3262271527359
516.3271436890808
516.3280593981857
516.3289742801666
516.3298883351396
516.3308015632214
516.3317139645286
516.3326255391786
516.3335362872889
516.334446208977
516.3353553043606
516.336263573557
516.3371710166838
516.3380776338594
516.3389834252022
516.3398883908307
516.340792530864
516.3416958454219
516.3425983346243
516.3434999985913
516.344400837443
516.3453008513003
516.3462000402841
516.3470984045156
516.3479959441164
516.348892659208
516.349788549912
516.3506836163502
516.3515778586446
516.3524712769171
516.3533638712896
516.3542556418846
516.3551465888248
516.356036712233
516.3569260122321
516.3578144889447
516.3587021424938
516.359588973003
516.3604749805962
516.3613601653973
516.3622445275299
516.3631280671176
516.3640107842842
516.3648926791537
516.36577375185
516.3666540024975
516.367533431221
516.3684120381453
516.3692898233948
516.3701667870943
516.3710429293691
516.371918250345
516.3727927501476
516.3736664289028
516.3745392867362
516.3754113237736
516.3762825401408
516.3771529359636
516.3780225113686
516.3788912664826
516.3797592014324
516.380626316345
516.3814926113477
516.3823580865682
516.3832227421341
516.384086578173
516.3849495948122
516.3858117921794
516.3866731704026
516.3875337296096
516.3883934699285
516.3892523914873
516.3901104944142
516.3909677788378
516.3918242448862
516.3926798926876
516.3935347223709
516.3943887340646
516.3952419278972
516.3960943039973
516.3969458624937
516.3977966035153
516.3986465271913
516.3994956336513
516.4003439230256
516.4011913954449
516.4020380510402
516.4028838899429
516.4037289122842
516.4045731181953
516.4054165078077
516.4062590812526
516.4071008386617
516.4079417801657
516.4087819058958
516.4096212159828
516.4104597105583
516.4112973897535
516.4121342537
516.4129703025291
516.4138055363723
516.4146399553609
516.4154735596268
516.4163063493014
516.417138324516
516.4179694854018
516.41879983209
516.4196293647123
516.4204580833999
516.4212859882845
516.4221130794971
516.4229393571694
516.4237648214329
516.4245894724187
516.4254133102578
516.4262363350812
516.4270585470198
516.4278799462044
516.4287005327659
516.4295203068353
516.4303392685441
516.4311574180239
516.4319747554063
516.4327912808229
516.4336069944057
516.4344218962868
516.4352359865983
516.4360492654722
516.4368617330409
516.437673389437
516.438484234793
516.4392942692415
516.4401034929155
516.4409119059482
516.4417195084728
516.4425263006232
516.4433322825329
516.4441374543356
516.4449418161652
516.4457453681551
516.4465481104393
516.4473500431515
516.4481511664256
516.448951480396
516.449750985197
516.4505496809633
516.451347567829
516.4521446459288
516.4529409153971
516.4537363763683
516.4545310289767
516.4553248733567
516.4561179096426
516.4569101379687
516.4577015584695
516.4584921712789
516.4592819765311
516.4600709743605
516.460859164902
516.4616465482903
516.4624331246608
516.463218894149
516.4640038568906
516.4647880130218
516.4655713626788
516.4663539059978
516.4671356431148
516.4679165741658
516.4686966992866
516.4694760186136
516.4702545322829
516.4710322404302
516.4718091431913
516.4725852407022
516.4733605330983
516.4741350205155
516.4749087030895
516.4756815809557
516.4764536542497
516.4772249231072
516.4779953876636
516.4787650480538
516.479533904413
516.4803019568761
516.4810692055786
516.4818356506561
516.4826012922443
516.4833661304791
516.4841301654959
516.4848933974303
516.4856558264181
516.4864174525952
516.4871782760973
516.4879382970597
516.4886975156181
516.4894559319079
516.4902135460642
516.4909703582222
516.4917263685173
516.4924815770854
516.4932359840619
516.4939895895826
516.4947423937828
516.4954943967977
516.4962455987626
516.4969959998128
516.4977456000839
516.4984943997116
516.4992423988314
516.4999895975787
516.500735996089
516.5014815944977
516.5022263929401
516.5029703915512
516.5037135904666
516.5044559898218
516.5051975897526
516.5059383903944
516.5066783918827
516.5074175943531
516.5081559979411
516.5088936027822
516.5096304090117
516.5103664167649
516.511101626177
516.5118360373839
516.5125696505212
516.5133024657247
516.5140344831303
516.5147657028741
516.5154961250922
516.5162257499209
516.5169545774958
516.5176826079529
516.5184098414287
516.5191362780596
516.5198619179822
516.5205867613334
516.52131080825
516.5220340588686
516.5227565133263
516.5234781717601
516.5241990343076
516.5249191011061
516.525638372293
516.5263568480055
516.5270745283811
516.5277914135569
516.5285075036694
516.5292227988556
516.5299372992525
516.5306510049976
516.5313639162281
516.5320760330814
516.5327873556947
516.5334978842053
516.5342076187504
516.5349165594674
516.5356247064936
516.536332059966
516.5370386200208
516.5377443867945
516.5384493604237
516.5391535410448
516.5398569287948
516.5405595238109
516.5412613262303
516.5419623361907
516.5426625538302
516.5433619792863
516.5440606126966
516.5447584541988
516.5454555039302
516.5461517620278
516.5468472286287
516.5475419038702
516.5482357878894
516.5489288808241
516.5496211828116
516.5503126939897
516.5510034144958
516.5516933444673
516.5523824840415
516.5530708333557
516.5537583925478
516.5544451617556
516.5551311411169
516.55581633077
516.5565007308531
516.5571843415049
516.557867162864
516.5585491950686
516.5592304382568
516.5599108925666
516.5605905581359
516.5612694351031
516.5619475236066
516.5626248237849
516.5633013357764
516.5639770597194
516.5646519957521
516.5653261440133
516.5659995046416
516.5666720777757
516.5673438635544
516.5680148621162
516.5686850736005
516.5693544981463
516.5700231358927
516.5706909869792
516.5713580515456
516.5720243297318
516.5726898216775
516.5733545275226
516.574018447407
516.5746815814704
516.5753439298527
516.576005492694
516.5766662701338
516.5773262623123
516.5779854693695
516.578643891445
516.5793015286785
516.5799583812096
516.5806144491784
516.581269732725
516.5819242319898
516.582577947113
516.583230878235
516.5838830254964
516.5845343890381
516.5851849690006
516.5858347655243
516.5864837787502
516.5871320088196
516.5877794558736
516.5884261200537
516.5890720015012
516.5897171003577
516.5903614167645
516.5910049508628
516.5916477027939
516.5922896726989
516.5929308607193
516.5935712669965
516.5942108916717
516.5948497348855
516.5954877967787
516.5961250774916
516.596761577165
516.5973972959395
516.5980322339559
516.5986663913553
516.5992997682787
516.5999323648674
516.6005641812627
516.6011952176056
516.6018254740369
516.6024549506977
516.6030836477288
516.6037115652708
516.6043387034646
516.6049650624503
516.6055906423684
516.6062154433592
516.606839465563
516.6074627091192
516.6080851741675
516.6087068608471
516.609327769297
516.6099478996565
516.6105672520647
516.6111858266603
516.611803623582
516.612420642968
516.6130368849562
516.6136523496842
516.61426703729
516.6148809479117
516.6154940816876
516.6161064387564
516.6167180192568
516.6173288233277
516.6179388511085
516.6185481027386
516.6191565783569
516.6197642781025
516.6203712021144
516.6209773505315
516.6215827234925
516.6221873211358
516.6227911435998
516.6233941910222
516.623996463541
516.6245979612942
516.6251986844194
516.6257986330546
516.6263978073379
516.6269962074069
516.6275938333996
516.6281906854532
516.6287867637051
516.6293820682921
516.6299765993509
516.6305703570182
516.6311633414304
516.6317555527238
516.6323469910348
516.6329376564996
516.6335275492546
516.6341166694357
516.6347050171788
516.6352925926197
516.6358793958942
516.636465427138
516.6370506864868
516.6376351740763
516.6382188900424
516.6388018345205
516.6393840076461
516.6399654095545
516.6405460403811
516.6411259002608
516.6417049893283
516.642283307718
516.6428608555638
516.6434376329993
516.6440136401583
516.6445888771744
516.6451633441812
516.6457370413121
516.6463099687006
516.6468821264801
516.6474535147839
516.6480241337457
516.6485939834994
516.6491630641789
516.6497313759181
516.650298918851
516.6508656931118
516.6514316988345
516.6519969361528
516.6525614052006
516.6531251061109
516.6536880390173
516.6542502040533
516.6548116013518
516.655372231046
516.6559320932696
516.6564911881563
516.6570495158404
516.657607076456
516.6581638701372
516.6587198970177
516.659275157231
516.6598296509109
516.6603833781909
516.6609363392046
516.6614885340852
516.6620399629659
516.66259062598
516.6631405232605
516.6636896549404
516.6642380211523
516.6647856220287
516.6653324577022
516.6658785283056
516.6664238339716
516.6669683748331
516.6675121510228
516.6680551626733
516.668597409917
516.669138892886
516.6696796117125
516.6702195665283
516.6707587574657
516.6712971846572
516.6718348482351
516.6723717483318
516.6729078850793
516.6734432586098
516.6739778690552
516.6745117165473
516.675044801218
516.6755771231993
516.6761086826235
516.6766394796228
516.6771695143296
516.677698786876
516.6782272973938
516.6787550460148
516.6792820328702
516.6798082580912
516.6803337218083
516.680858424152
516.6813823652523
516.6819055452387
516.6824279642407
516.6829496223878
516.6834705198092
516.6839906566337
516.6845100329896
516.6850286490054
516.6855465048092
516.6860636005289
516.6865799362926
516.6870955122284
516.6876103284643
516.6881243851282
516.6886376823476
516.6891502202503
516.689661998964
516.6901730186163
516.6906832793351
516.6911927812479
516.6917015244823
516.6922095091658
516.6927167354255
516.6932232033881
516.69372891318
516.6942338649277
516.6947380587575
516.695241494796
516.6957441731703
516.6962460940073
516.6967472574341
516.697247663578
516.6977473125656
516.6982462045236
516.698744339578
516.699241717855
516.6997383394804
516.7002342045802
516.7007293132805
516.7012236657073
516.7017172619861
516.7022101022425
516.7027021866014
516.703193515188
516.7036840881268
516.7041739055425
516.7046629675596
516.7051512743027
516.7056388258965
516.7061256224655
516.7066116641339
516.7070969510258
516.7075814832655
516.7080652609765
516.7085482842825
516.7090305533073
516.7095120681746
516.7099928290075
516.7104728359294
516.7109520890639
516.7114305885347
516.7119083344654
516.7123853269799
516.7128615662017
516.713337052255
516.713811785264
516.7142857653529
516.7147589926461
516.7152314672679
516.7157031893424
516.716174158994
516.7166443763475
516.717113841528
516.7175825546602
516.7180505158691
516.7185177252794
516.7189841830158
516.7194498892026
516.7199148439639
516.7203790474244
516.7208424997087
516.7213052009414
516.7217671512464
516.7222283507471
516.722688799567
516.7231484978298
516.723607445659
516.724065643178
516.7245230905099
516.7249797877777
516.7254357351043
516.7258909326123
516.7263453804243
516.726799078663
516.7272520274508
516.7277042269099
516.7281556771624
516.7286063783303
516.7290563305356
516.7295055338999
516.7299539885443
516.7304016945899
516.7308486521578
516.7312948613684
516.7317403223423
516.7321850351994
516.7326290000598
516.7330722170426
516.7335146862671
516.7339564078524
516.7343973819176
516.7348376085819
516.7352770879646
516.7357158201847
516.7361538053614
516.7365910436137
516.7370275350605
516.7374632798204
516.7378982780116
516.738332529752
516.7387660351595
516.7391987943519
516.7396308074466
516.740062074561
516.740492595812
516.7409223713163
516.74135140119
516.741779685549
516.7422072245096
516.7426340181877
516.7430600666993
516.7434853701601
516.7439099286854
516.7443337423903
516.7447568113893
516.745179135797
516.7456007157283
516.7460215512982
516.7464416426213
516.7468609898123
516.7472795929851
516.7476974522541
516.7481145677328
516.7485309395346
516.7489465677721
516.7493614525578
516.7497755940034
516.7501889922208
516.7506016473216
516.7510135594167
516.7514247286177
516.7518351550356
516.7522448387812
516.7526537799653
516.7530619786982
516.7534694350901
516.7538761492514
516.754282121292
516.7546873513219
516.7550918394505
516.7554955857873
516.755898590441
516.7563008535197
516.7567023751316
516.7571031553847
516.7575031943874
516.757902492248
516.7583010490749
516.7586988649763
516.7590959400601
516.7594922744341
516.759887868206
516.7602827214831
516.7606768343729
516.7610702069827
516.7614628394193
516.7618547317896
516.7622458842001
516.7626362967573
516.7630259695676
516.763414902737
516.7638030963716
516.7641905505769
516.7645772654586
516.7649632411218
516.7653484776716
516.7657329752132
516.7661167338512
516.7664997536903
516.7668820348343
516.7672635773869
516.7676443814515
516.7680244471318
516.7684037745306
516.768782363751
516.7691602148956
516.7695373280668
516.769913703367
516.7702893408983
516.7706642407624
516.7710384030605
516.7714118278944
516.7717845153658
516.7721564655757
516.7725276786251
516.7728981546146
516.773267893644
516.7736368958127
516.7740051612208
516.7743726899674
516.7747394821521
516.7751055378739
516.7754708572314
516.7758354403228
516.7761992872455
516.7765623980969
516.7769247729738
516.7772864119726
516.7776473151893
516.7780074827191
516.7783669146576
516.7787256111
516.7790835721411
516.7794407978757
516.7797972883985
516.7801530438036
516.7805080641846
516.7808623496352
516.7812159002484
516.7815687161172
516.7819207973347
516.7822721439933
516.7826227561849
516.7829726340016
516.7833217775352
516.7836701868777
516.7840178621208
516.7843648033562
516.7847110106758
516.7850564841709
516.785401223933
516.7857452300535
516.7860885026233
516.7864310417332
516.786772847474
516.7871139199366
516.7874542592111
516.7877938653882
516.7881327385579
516.7884708788109
516.7888082862374
516.7891449609273
516.7894809029705
516.7898161124571
516.7901505894771
516.7904843341206
516.7908173464779
516.7911496266387
516.7914811746924
516.7918119907284
516.7921420748361
516.7924714271045
516.7928000476226
516.793127936479
516.7934550937624
516.7937815195613
516.7941072139639
516.7944321770582
516.7947564089319
516.7950799096728
516.7954026793685
516.795724718106
516.7960460259723
516.7963666030536
516.7966864494364
516.7970055652066
516.7973239504498
516.7976416052514
516.7979585296965
516.7982747238701
516.7985901878568
516.7989049217409
516.7992189256066
516.7995321995379
516.7998447436187
516.8001565579332
516.800467642566
516.8007779976017
516.8010876231253
516.801396519222
516.8017046859766
516.8020121234747
516.8023188318023
516.8026248110452
516.8029300612898
516.8032345826218
516.8035383751276
516.8038414388936
516.8041437740069
516.8044453805544
516.8047462586235
516.8050464083015
516.8053458296756
516.8056445228337
516.8059424878636
516.806239724853
516.8065362338896
516.8068320150614
516.8071270684563
516.807421394162
516.8077149922665
516.8080078628577
516.808300006024
516.8085914218534
516.8088821104345
516.809172071856
516.8094613062069
516.8097498135771
516.8100375940569
516.8103246477365
516.8106109747062
516.8108965750564
516.8111814488777
516.8114655962609
516.8117490172967
516.8120317120761
516.8123136806901
516.8125949232306
516.8128754397897
516.8131552304596
516.8134342953335
516.8137126345043
516.8139902480655
516.8142671361109
516.8145432987346
516.8148187360309
516.8150934480941
516.8153674350185
516.8156406968988
516.8159132338294
516.8161850459048
516.8164561332198
516.8167264958695
516.8169961339493
516.8172650475551
516.8175332367834
516.8178007017307
516.8180674424934
516.8183334591683
516.8185987518525
516.8188633206435
516.8191271656387
516.8193902869359
516.8196526846325
516.8199143588265
516.8201753096162
516.8204355371001
516.8206950413773
516.8209538225472
516.8212118807089
516.821469215962
516.8217258284055
516.8219817181387
516.8222368852612
516.8224913298734
516.8227450520756
516.8229980519682
516.8232503296524
516.8235018852295
516.8237527188014
516.8240028304706
516.8242522203398
516.8245008885117
516.8247488350892
516.8249960601752
516.8252425638732
516.8254883462866
516.8257334075195
516.8259777476756
516.8262213668593
516.8264642651754
516.8267064427289
516.8269478996242
516.8271886359664
516.827428651861
516.8276679474136
516.8279065227296
516.8281443779149
516.8283815130756
516.828617928318
516.8288536237485
516.8290885994741
516.8293228556022
516.8295563922406
516.8297892094972
516.8300213074801
516.8302526862981
516.83048334606
516.8307132868747
516.8309425088516
516.8311710121004
516.831398796731
516.8316258628536
516.8318522105783
516.8320778400159
516.8323027512777
516.8325269444751
516.83275041972
516.8329731771239
516.8331952167989
516.8334165388576
516.833637143412
516.8338570305743
516.8340762004566
516.8342946531711
516.8345123888303
516.8347294075463
516.8349457094316
516.8351612945987
516.8353761631599
516.835590315228
516.8358037509163
516.8360164703379
516.8362284736065
516.8364397608366
516.8366503321429
516.8368601876407
516.8370693274453
516.837277751672
516.8374854604365
516.837692453855
516.8378987320436
516.8381042951189
516.8383091431972
516.8385132763954
516.8387166948305
516.83891939862
516.8391213878815
516.8393226627329
516.8395232232922
516.8397230696776
516.8399222020073
516.8401206203996
516.8403183249727
516.8405153158449
516.8407115931348
516.8409071569611
516.8411020074425
516.8412961446982
516.8414895688477
516.8416822800111
516.841874278309
516.842065563862
516.8422561367913
516.8424459972182
516.8426351452642
516.8428235810511
516.8430113047004
516.8431983163341
516.8433846160744
516.843570204044
516.8437550803653
516.8439392451612
516.8441226985544
516.8443054406682
516.8444874716258
516.8446687915505
516.8448494005654
516.8450292987939
516.8452084863595
516.8453869633865
516.8455647299995
516.8457417863231
516.8459181324822
516.8460937686025
516.8462686948094
516.8464429112289
516.846616417987
516.8467892152096
516.8469613030227
516.8471326815522
516.8473033509247
516.8474733112664
516.8476425627043
516.8478111053653
516.8479789393766
516.8481460648661
516.8483124819616
516.8484781907905
516.848643191481
516.8488074841612
516.8489710689596
516.8491339460049
516.8492961154263
516.8494575773536
516.8496183319171
516.8497783792475
516.849937719476
516.8500963527345
516.850254279155
516.8504114988696
516.85056801201
516.8507238187083
516.8508789190967
516.8510333133074
516.8511870014734
516.8513399837275
516.8514922602028
516.8516438310323
516.8517946963495
516.8519448562884
516.8520943109829
516.8522430605676
516.8523911051768
516.8525384449451
516.8526850800076
516.8528310104996
516.8529762365565
516.8531207583144
516.8532645759094
516.853407689478
516.8535500991568
516.8536918050834
516.8538328073953
516.8539731062299
516.8541127017245
516.8542515940173
516.8543897832467
516.8545272695512
516.8546640530701
516.854800133943
516.8549355123098
516.8550701883112
516.8552041620876
516.8553374337798
516.8554700035288
516.855601871476
516.8557330377632
516.8558635025327
516.8559932659261
516.8561223280858
516.8562506891537
516.8563783492725
516.8565053085852
516.8566315672351
516.8567571253659
516.8568819831214
516.8570061406456
516.8571295980828
516.8572523555774
516.8573744132741
516.8574957713179
516.857616429854
516.8577363890279
516.8578556489845
516.8579742098689
516.8580920718261
516.8582092350009
516.8583256995375
516.8584414655804
516.8585565332739
516.8586709027625
516.8587845741906
516.8588975477035
516.8590098234461
516.8591214015635
516.8592322822012
516.8593424655046
516.8594519516189
516.8595607406894
516.8596688328614
516.8597762282805
516.8598829270925
516.8599889294435
516.8600942354794
516.8601988453463
516.8603027591901
516.8604059771567
516.8605084993922
516.8606103260424
516.8607114572535
516.8608118931718
516.8609116339435
516.8610106797148
516.8611090306322
516.861206686842
516.8613036484903
516.8613999157233
516.8614954886871
516.8615903675284
516.8616845523936
516.8617780434299
516.8618708407848
516.8619629446064
516.8620543550423
516.862145072241
516.8622350963508
516.8623244275202
516.862413065898
516.8625010116332
516.8625882648751
516.8626748257727
516.8627606944754
516.8628458711321
516.8629303558919
516.8630141489041
516.8630972503183
516.8631796602842
516.8632613789516
516.8633424064708
516.8634227429923
516.8635023886673
516.8635813436472
516.8636596080839
516.8637371821299
516.8638140659375
516.8638902596597
516.8639657634492
516.8640405774588
516.8641147018418
516.8641881367514
516.8642608823413
516.8643329387658
516.8644043061793
516.8644749847365
516.864544974592
516.8646142759005
516.8646828888166
516.8647508134948
516.8648180500895
516.8648845987552
516.8649504596465
516.8650156329184
516.8650801187262
516.8651439172252
516.8652070285709
516.8652694529189
516.865331190425
516.8653922412448
516.8654526055341
516.8655122834482
516.8655712751424
516.8656295807723
516.8656872004935
516.8657441344615
516.8658003828316
516.8658559457594
516.8659108234008
516.8659650159116
516.8660185234482
516.8660713461677
516.866123484227
516.8661749377836
516.8662257069948
516.8662757920181
516.8663251930113
516.8663739101326
516.8664219435398
516.866469293391
516.8665159598447
516.8665619430597
516.8666072431943
516.866651860407
516.8666957948565
516.866739046701
516.8667816160994
516.8668235032108
516.8668647081943
516.8669052312093
516.8669450724153
516.8669842319714
516.867022710037
516.8670605067716
516.8670976223352
516.8671340568878
516.8671698105898
516.8672048836015
516.8672392760841
516.8672729881989
516.8673060201079
516.8673383719731
516.867370043957
516.8674010362217
516.86743134893
516.8674609822444
516.867489936328
516.8675182113441
516.8675458074565
516.8675727248292
516.8675989636265
516.8676245240126
516.8676494061515
516.867673610207
516.8676971363436
516.8677199847257
516.8677421555178
516.8677636488844
516.8677844649899
516.8678046039993
516.8678240660777
516.8678428513897
516.8678609600997
516.8678783923722
516.8678951483714
516.8679112282623
516.8679266322104
516.8679413603813
516.867955412941
516.8679687900556
516.8679814918912
516.8679935186144
516.8680048703918
516.8680155473901
516.8680255497766
516.8680348777184
516.8680435313829
516.8680515109379
516.8680588165514
516.8680654483912
516.8680714066252
516.868076691421
516.8680813029471
516.8680852413715
516.8680885068627
516.8680910995888
516.8680930197186
516.8680942674207
516.8680948428644
516.8680947462187
516.8680939776532
516.8680925373371
516.8680904254402
516.868087642132
516.8680841875823
516.8680800619616
516.8680752654402
516.8680697981888
516.8680636603781
516.8680568521788
516.8680493737622
516.8680412252995
516.8680324069617
516.8680229189197
516.8680127613445
516.8680019344072
516.8679904382791
516.8679782731317
516.8679654391367
516.8679519364657
516.8679377652902
516.8679229257816
516.8679074181116
516.8678912424518
516.8678743989744
516.8678568878515
516.8678387092552
516.8678198633577
516.867800350331
516.8677801703473
516.8677593235784
516.8677378101968
516.8677156303747
516.8676927842846
516.8676692720987
516.867645093989
516.8676202501279
516.8675947406878
516.8675685658413
516.8675417257616
516.8675142206218
516.8674860505953
516.8674572158557
516.8674277165769
516.8673975529334
516.8673667250998
516.867335233251
516.8673030775619
516.8672702582082
516.8672367753654
516.867202629209
516.8671678199141
516.8671323476563
516.8670962126112
516.8670594149546
516.8670219548628
516.8669838325125
516.8669450480804
516.8669056017436
516.8668654936789
516.866824724063
516.8667832930732
516.866741200887
516.8666984476815
516.8666550336345
516.866610958924
516.8665662237277
516.8665208282234
516.8664747725891
516.8664280570026
516.8663806816423
516.8663326466869
516.8662839523151
516.8662345987057
516.8661845860368
516.8661339144871
516.866082584236
516.8660305954625
516.8659779483457
516.865924643065
516.8658706797994
516.8658160587281
516.8657607800303
516.8657048438854
516.8656482504728
516.8655909999718
516.8655330925619
516.8654745284223
516.8654153077323
516.8653554306718
516.8652948974207
516.8652337081585
516.8651718630647
516.8651093623189
516.8650462061012
516.8649823945914
516.86491792797
516.864852806418
516.8647870301158
516.8647205992445
516.8646535139849
516.864585774518
516.864517381025
516.8644483336873
516.8643786326859
516.8643082782025
516.8642372704187
516.8641656095158
516.8640932956748
516.8640203290765
516.8639467099019
516.8638724383325
516.86379751455
516.8637219387367
516.8636457110745
516.8635688317452
516.8634913009312
516.8634131188153
516.8633342855808
516.8632548014111
516.8631746664903
516.8630938810022
516.8630124451313
516.8629303590617
516.862847622978
516.8627642370654
516.8626802015092
516.8625955164948
516.8625101822079
516.8624241988343
516.8623375665602
516.8622502855717
516.862162356055
516.8620737781964
516.8619845521823
516.8618946781994
516.8618041564343
516.8617129870743
516.8616211703061
516.8615287063164
516.8614355952918
516.8613418374191
516.8612474328854
516.8611523818784
516.8610566845862
516.8609603411971
516.8608633518998
516.8607657168823
516.8606674363327
516.8605685104392
516.8604689393896
516.8603687233724
516.8602678625759
516.8601663571892
516.8600642074018
516.8599614134037
516.8598579753846
516.8597538935348
516.859649168045
516.859543799106
516.8594377869083
516.8593311316429
516.8592238335004
516.8591158926715
516.8590073093469
516.8588980837173
516.8587882159734
516.8586777063056
516.8585665549044
516.8584547619607
516.8583423276652
516.8582292522085
516.8581155357813
516.8580011785743
516.8578861807785
516.8577705425848
516.8576542641847
516.8575373457695
516.8574197875307
516.85730158966
516.8571827523492
516.8570632757901
516.8569431601743
516.8568224056933
516.8567010125387
516.8565789809024
516.8564563109769
516.8563330029549
516.8562090570292
516.8560844733927
516.8559592522383
516.8558333937592
516.8557068981486
516.8555797656002
516.8554519963077
516.8553235904653
516.8551945482675
516.8550648699086
516.8549345555825
516.8548036054838
516.8546720198067
516.8545397987461
516.8544069424972
516.8542734512555
516.8541393252165
516.8540045645761
516.8538691695305
516.8537331402756
516.8535964770076
516.8534591799232
516.8533212492191
516.8531826850924
516.8530434877405
516.8529036573602
516.852763194149
516.8526220983047
516.852480370025
516.8523380095078
516.8521950169504
516.8520513925503
516.8519071365051
516.8517622490133
516.8516167302732
516.8514705804837
516.8513237998432
516.8511763885501
516.8510283468029
516.8508796747999
516.8507303727397
516.8505804408212
516.8504298792434
516.8502786882052
516.8501268679056
516.8499744185438
516.8498213403188
516.84966763343
516.8495132980768
516.8493583344587
516.8492027427753
516.8490465232264
516.848889676012
516.8487322013325
516.8485740993881
516.8484153703787
516.8482560145042
516.8480960319648
516.847935422961
516.8477741876932
516.8476123263622
516.847449839169
516.8472867263151
516.8471229880022
516.8469586244321
516.846793635807
516.846628022329
516.8464617842005
516.8462949216239
516.8461274348012
516.8459593239347
516.8457905892267
516.8456212308799
516.8454512490976
516.845280644083
516.8451094160398
516.8449375651714
516.8447650916817
516.8445919957744
516.8444182776536
516.8442439375233
516.8440689755873
516.8438933920495
516.8437171871135
516.8435403609831
516.8433629138624
516.8431848459561
516.8430061574688
516.8428268486052
516.8426469195699
516.8424663705675
516.8422852018025
516.842103413479
516.8419210058012
516.8417379789732
516.8415543331992
516.8413700686833
516.8411851856306
516.8409996842458
516.8408135647342
516.8406268273009
516.8404394721517
516.840251499493
516.8400629095311
516.8398737024727
516.8396838785245
516.8394934378935
516.8393023807862
516.8391107074096
516.8389184179705
516.8387255126756
516.838531991732
516.8383378553465
516.8381431037262
516.8379477370779
516.837751755608
516.8375551595234
516.837357949031
516.8371601243377
516.8369616856507
516.8367626331767
516.8365629671221
516.8363626876933
516.8361617950973
516.8359602895407
516.8357581712303
516.8355554403727
516.8353520971748
516.835148141844
516.8349435745877
516.8347383956134
516.8345326051292
516.8343262033434
516.8341191904644
516.8339115667009
516.8337033322609
516.8334944873532
516.8332850321863
516.8330749669688
516.8328642919093
516.832653007217
516.8324411131009
516.8322286097703
516.8320154974342
516.831801776302
516.8315874465832
516.8313725084877
516.8311569622256
516.8309408080065
516.8307240460401
516.8305066765363
516.8302886997051
516.8300701157568
516.8298509249018
516.8296311273509
516.829410723315
516.8291897130055
516.8289680966334
516.8287458744101
516.8285230465469
516.8282996132557
516.828075574748
516.8278509312356
516.8276256829301
516.8273998300435
516.8271733727875
516.8269463113736
516.8267186460132
516.8264903769175
516.8262615042979
516.8260320283655
516.8258019493312
516.8255712674065
516.8253399828031
516.8251080957327
516.824875606407
516.824642515038
516.8244088218387
516.8241745270218
516.8239396308002
516.8237041333871
516.8234680349958
516.8232313358394
516.8229940361309
516.8227561360834
516.8225176359094
516.8222785358214
516.8220388360314
516.8217985367521
516.821557638196
516.8213161405761
516.8210740441054
516.8208313489974
516.8205880554654
516.8203441637222
516.8200996739813
516.8198545864559
516.8196089013595
516.8193626189056
516.8191157393082
516.8188682627813
516.8186201895389
516.8183715197952
516.8181222537639
516.817872391659
516.8176219336938
516.8173708800821
516.8171192310379
516.8168669867748
516.8166141475069
516.8163607134486
516.816106684814
516.8158520618172
516.815596844672
516.8153410335922
516.8150846287917
516.8148276304848
516.8145700388861
516.8143118542102
516.8140530766723
516.8137937064873
516.8135337438707
516.8132731890385
516.8130120422068
516.8127503035919
516.8124879734103
516.8122250518784
516.8119615392131
516.8116974356315
516.8114327413502
516.8111674565869
516.8109015815592
516.8106351164852
516.810368061583
516.8101004170705
516.8098321831662
516.8095633600885
516.8092939480557
516.8090239472865
516.8087533580001
516.8084821804157
516.8082104147522
516.8079380612287
516.8076651200643
516.8073915914779
516.8071174756885
516.8068427729149
516.8065674833754
516.8062916072881
516.8060151448715
516.8057380963439
516.8054604619238
516.8051822418295
516.8049034362798
516.8046240454935
516.804344069689
516.8040635090849
516.8037823638995
516.8035006343505
516.8032183206558
516.8029354230332
