500.2724325328804
500.273007469942
500.2735822899337
500.27415699277884
500.27473157840103
500.27530604672387
500.27588039767096
500.27645463116613
500.2770287471332
500.27760274549604
500.27817662617844
500.27875038910446
500.27932403419817
500.2798975613836
500.2804709705851
500.28104426172666
500.28161743473237
500.28219048952604
500.2827634260315
500.28333624417286
500.2839089438741
500.28448152505933
500.28505398765236
500.285626331577
500.28619855675714
500.28677066311656
500.2873426505791
500.28791451906903
500.28848626851067
500.2890578988283
500.2896294099464
500.29020080178924
500.2907720742814
500.29134322734734
500.29191426091137
500.292485174898
500.29305596923194
500.29362664383774
500.2941971986399
500.2947676335629
500.2953379485313
500.2959081434696
500.2964782183023
500.2970481729537
500.29761800734826
500.29818772141033
500.2987573150644
500.29932678823496
500.29989614084656
500.3004653728237
500.30103448409085
500.3016034745726
500.30217234419337
500.30274109287797
500.3033097205509
500.3038782271364
500.3044466125588
500.3050148767424
500.30558301961145
500.30615104109046
500.3067189411042
500.30728671957735
500.3078543764347
500.3084219116012
500.30898932500185
500.3095566165618
500.31012378620625
500.3106908338604
500.31125775944923
500.3118245628979
500.3123912441317
500.3129578030759
500.31352423965603
500.3140905537975
500.31465674542545
500.31522281446513
500.31578876084194
500.31635458448153
500.3169202853093
500.31748586325097
500.3180513182319
500.3186166501777
500.3191818590141
500.31974694466675
500.32031190706147
500.3208767461244
500.3214414617816
500.32200605395946
500.3225705225843
500.3231348675824
500.32369908888035
500.32426318640495
500.3248271600832
500.3253910098421
500.32595473560895
500.3265183373107
500.32708181487436
500.3276451682272
500.32820839729646
500.32877150200915
500.32933448229227
500.32989733807307
500.330460069279
500.3310226758376
500.33158515767644
500.33214751472354
500.3327097469068
500.33327185415436
500.3338338363944
500.334395693555
500.33495742556437
500.3355190323502
500.33608051383993
500.3366418699613
500.3372031006417
500.3377642058087
500.33832518538946
500.33888603931126
500.33944676750133
500.34000736988713
500.34056784639614
500.3411281969558
500.34168842149364
500.34224851993685
500.34280849221267
500.3433683382481
500.34392805797046
500.3444876513069
500.3450471181847
500.34560645853134
500.3461656722745
500.34672475934184
500.3472837196611
500.3478425531602
500.3484012597675
500.3489598394114
500.34951829202026
500.3500766175227
500.3506348158473
500.3511928869229
500.3517508306783
500.35230864704243
500.35286633594404
500.3534238973122
500.3539813310762
500.3545386371656
500.35509581550986
500.3556528660385
500.35620978868127
500.35676658336814
500.3573232500293
500.35787978859497
500.3584361989953
500.3589924811608
500.3595486350218
500.36010466050874
500.3606605575521
500.361216326082
500.3617719660287
500.36232747732237
500.36288285989366
500.3634381136732
500.36399323859195
500.3645482345809
500.36510310157126
500.3656578394941
500.36621244828046
500.36676692786153
500.3673212781684
500.36787549913214
500.3684295906841
500.3689835527554
500.36953738527717
500.37009108818046
500.3706446613964
500.3711981048563
500.37175141849156
500.37230460223344
500.3728576560133
500.3734105797625
500.3739633734123
500.37451603689414
500.37506857013926
500.37562097307926
500.37617324564593
500.37672538777105
500.3772773993864
500.3778292804238
500.3783810308152
500.3789326504927
500.379484139388
500.38003549743297
500.3805867245596
500.38113782069985
500.38168878578557
500.3822396197483
500.3827903225194
500.38334089403037
500.3838913342128
500.3844416429983
500.3849918203186
500.3855418661055
500.386091780291
500.38664156280714
500.38719121358594
500.3877407325596
500.38829011966044
500.38883937482063
500.3893884979727
500.38993748904903
500.3904863479822
500.3910350747048
500.39158366914984
500.3921321312502
500.3926804609386
500.39322865814796
500.3937767228114
500.39432465486215
500.3948724542335
500.39542012085866
500.395967654671
500.39651505560386
500.39706232359043
500.39760945856364
500.3981564604564
500.39870332920185
500.39925006473294
500.39979666698235
500.40034313588257
500.40088947136604
500.4014356733655
500.4019817418136
500.40252767664305
500.40307347778656
500.4036191451766
500.4041646787454
500.40471007842524
500.4052553441483
500.4058004758469
500.40634547345275
500.4068903368979
500.4074350661144
500.4079796610342
500.4085241215891
500.40906844771115
500.4096126393326
500.4101566963854
500.4107006188016
500.41124440651305
500.4117880594512
500.4123315775477
500.4128749607343
500.4134182089428
500.41396132210474
500.4145043001517
500.4150471430152
500.4155898506269
500.4161324229182
500.41667485982106
500.41721716126716
500.4177593271883
500.41830135751655
500.4188432521841
500.419385011123
500.4199266342652
500.420468121543
500.42100947288844
500.42155068823325
500.42209176750947
500.42263271064934
500.42317351758487
500.42371418824786
500.4242547225703
500.4247951204845
500.42533538192237
500.4258755068162
500.42641549509807
500.4269553466997
500.42749506155286
500.4280346395894
500.42857408074104
500.4291133849396
500.42965255211715
500.43019158220585
500.43073047513775
500.43126923084486
500.4318078492592
500.43234633031255
500.43288467393694
500.43342288006437
500.43396094862663
500.43449887955575
500.4350366727837
500.4355743282426
500.43611184586456
500.43664922558236
500.43718646732844
500.4377235710355
500.4382605366365
500.43879736406456
500.43933405325305
500.43987060413536
500.44040701664466
500.4409432907143
500.4414794262777
500.44201542326863
500.4425512816212
500.4430870012695
500.44362258214727
500.44415802418865
500.44469332732746
500.44522849149774
500.44576351663335
500.4462984026681
500.44683314953585
500.4473677571704
500.44790222550563
500.44843655447534
500.44897074401337
500.4495047940533
500.45003870452905
500.45057247537414
500.4511061065222
500.45163959790665
500.4521729494608
500.45270616111833
500.4532392328128
500.45377216447804
500.45430495604813
500.45483760745736
500.45537011864025
500.4559024895315
500.4564347200657
500.45696681017733
500.45749875980067
500.4580305688698
500.4585622373185
500.4590937650807
500.45962515209015
500.46015639828096
500.46068750358717
500.46121846794284
500.4617492912818
500.46227997353793
500.46281051464524
500.4633409145378
500.4638711731499
500.4644012904159
500.4649312662702
500.46546110064736
500.46599079348215
500.4665203447093
500.46704975426377
500.46757902208054
500.4681081480948
500.4686371322418
500.46916597445664
500.4696946746744
500.47022323283016
500.470751648859
500.47127992269606
500.47180805427655
500.47233604353545
500.4728638904075
500.47339159482743
500.47391915673023
500.47444657605087
500.47497385272385
500.47550098668347
500.476027977864
500.4765548262
500.47708153162597
500.4776080940762
500.4781345134849
500.4786607897865
500.4791869229152
500.47971291280504
500.48023875939015
500.48076446260455
500.4812900223823
500.48181543865775
500.4823407113649
500.4828658404378
500.4833908258108
500.4839156674181
500.48444036519385
500.48496491907207
500.48548932898683
500.4860135948722
500.48653771666244
500.48706169429187
500.487585527695
500.4881092168063
500.48863276156015
500.489156161891
500.4896794177334
500.49020252902204
500.4907254956917
500.49124831767693
500.4917709949122
500.49229352733204
500.4928159148712
500.49333815746417
500.4938602550455
500.4943822075499
500.49490401491215
500.49542567706675
500.4959471939482
500.49646856549106
500.4969897916296
500.49751087229805
500.4980318074308
500.49855259696227
500.49907324082704
500.4995937389594
500.50011409129337
500.50063429776304
500.5011543583025
500.50167427284595
500.502194041328
500.5027136636833
500.5032331398465
500.5037524697522
500.504271653335
500.50479069052943
500.50530958126996
500.5058283254911
500.5063469231274
500.5068653741134
500.50738367838375
500.5079018358735
500.5084198465176
500.5089377102508
500.5094554270078
500.50997299672343
500.51049041933214
500.51100769476847
500.5115248229669
500.512041803862
500.5125586373883
500.5130753234807
500.5135918620742
500.514108253104
500.5146244965053
500.5151405922133
500.5156565401632
500.51617234029
500.5166879925286
500.51720349681426
500.51771885308216
500.5182340612675
500.51874912130523
500.51926403313036
500.51977879667805
500.5202934118833
500.52080787868084
500.5213221970052
500.52183636679086
500.5223503879726
500.5228642604854
500.5233779842642
500.5238915592442
500.5244049853606
500.52491826254885
500.52543139074413
500.52594436988187
500.52645719989795
500.52696988072825
500.5274824123084
500.5279947945741
500.528507027461
500.5290191109049
500.52953104484203
500.5300428292084
500.5305544639404
500.5310659489746
500.53157728424725
500.532088469695
500.5325995052546
500.53311039086265
500.53362112645544
500.53413171196956
500.5346421473418
500.5351524325087
500.5356625674073
500.53617255197486
500.53668238614836
500.53719206986506
500.5377016030622
500.53821098567704
500.5387202176468
500.539229298909
500.5397382294015
500.5402470090625
500.54075563782993
500.5412641156417
500.54177244243573
500.5422806181502
500.542788642723
500.5432965160921
500.5438042381956
500.54431180897194
500.5448192283597
500.5453264962975
500.5458336127239
500.5463405775776
500.5468473907974
500.5473540523221
500.54786056209076
500.5483669200425
500.5488731261161
500.54937918025047
500.5498850823844
500.5503908324567
500.5508964304062
500.55140187617184
500.5519071696926
500.55241231090775
500.55291729975664
500.55342213617877
500.5539268201139
500.5544313515017
500.554935730282
500.55543995639454
500.555944029779
500.55644795037523
500.5569517181229
500.55745533296175
500.5579587948318
500.558462103673
500.55896525942507
500.559468262028
500.55997111142204
500.56047380754734
500.5609763503439
500.56147873975186
500.5619809757115
500.5624830581632
500.5629849870474
500.56348676230454
500.56398838387526
500.56448985170044
500.564991165721
500.565492325878
500.56599333211255
500.5664941843656
500.56699488257794
500.5674954266905
500.56799581664444
500.568496052381
500.56899613384184
500.5694960609687
500.56999583370356
500.5704954519883
500.5709949157644
500.5714942249735
500.5719933795571
500.5724923794566
500.57299122461376
500.57348991497014
500.5739884504671
500.57448683104616
500.5749850566489
500.5754831272167
500.57598104269067
500.57647880301187
500.5769764081212
500.5774738579593
500.5779711524669
500.5784682915848
500.5789652752539
500.5794621034151
500.5799587760095
500.58045529297823
500.5809516542624
500.5814478598033
500.5819439095423
500.582439803421
500.5829355413811
500.58343112336473
500.58392654931407
500.5844218191716
500.58491693288005
500.5854118903821
500.5859066916202
500.5864013365369
500.5868958250748
500.58739015717646
500.5878843327841
500.58837835183994
500.58887221428625
500.5893659200653
500.5898594691193
500.5903528613905
500.59084609682094
500.59133917535263
500.5918320969276
500.59232486148807
500.59281746897653
500.59330991933547
500.59380221250757
500.59429434843577
500.59478632706276
500.59527814833103
500.5957698121833
500.596261318562
500.59675266740936
500.5972438586677
500.59773489227945
500.5982257681871
500.5987164863331
500.5992070466597
500.5996974491092
500.6001876936238
500.600677780146
500.6011677086182
500.601657478983
500.60214709118276
500.60263654516046
500.60312584085904
500.6036149782214
500.6041039571905
500.60459277770946
500.6050814397217
500.6055699431708
500.6060582880004
500.6065464741543
500.60703450157683
500.6075223702123
500.6080100800047
500.6084976308984
500.60898502283766
500.6094722557668
500.60995932963027
500.6104462443729
500.61093299993917
500.6114195962736
500.61190603332096
500.61239231102576
500.61287842933274
500.6133643881871
500.6138501875343
500.61433582731974
500.61482130748885
500.6153066279873
500.615791788761
500.6162767897558
500.61676163091755
500.61724631219244
500.61773083352654
500.61821519486574
500.61869939615616
500.61918343734413
500.61966731837623
500.62015103919924
500.62063459975997
500.6211180000052
500.62160123988195
500.62208431933703
500.62256723831746
500.62304999677025
500.6235325946424
500.6240150318808
500.6244973084319
500.62497942424255
500.6254613792598
500.62594317343036
500.6264248067011
500.6269062790188
500.6273875903302
500.6278687405822
500.62834972972126
500.628830557694
500.6293112244468
500.6297917299261
500.6302720740786
500.63075225685105
500.6312322781902
500.63171213804293
500.6321918363562
500.632671373077
500.63315074815245
500.6336299615297
500.6341090131561
500.63458790297904
500.635066630946
500.63554519700455
500.6360236011023
500.6365018431872
500.6369799232072
500.63745784111023
500.63793559684444
500.63841319035777
500.63889062159836
500.6393678905144
500.639844997054
500.6403219411654
500.6407987227969
500.6412753418969
500.6417517984141
500.64222809229676
500.64270422349335
500.64318019195247
500.6436559976227
500.64413164045294
500.644607120392
500.6450824373889
500.64555759139256
500.646032582352
500.64650741021654
500.64698207493524
500.64745657645716
500.64793091473115
500.6484050897065
500.64887910133274
500.6493529495596
500.6498266343371
500.6503001556152
500.6507735133436
500.6512467074721
500.6517197379507
500.6521926047296
500.6526653077589
500.6531378469892
500.653610222371
500.6540824338551
500.65455448139204
500.6550263649328
500.6554980844284
500.6559696398303
500.65644103108974
500.65691225815834
500.6573833209879
500.6578542195304
500.6583249537379
500.6587955235622
500.65926592895534
500.6597361698693
500.66020624625634
500.6606761580687
500.66114590525893
500.66161548777944
500.66208490558273
500.6625541586215
500.66302324684847
500.66349217021633
500.663960928678
500.66442952218625
500.66489795069396
500.6653662141545
500.6658343125211
500.6663022457471
500.6667700137859
500.66723761659085
500.6677050541152
500.668172326312
500.66863943313473
500.66910637453697
500.66957315047256
500.67003976089535
500.6705062057592
500.67097248501767
500.67143859862466
500.671904546534
500.67237032869974
500.672835945076
500.673301395617
500.6737666802771
500.67423179901056
500.67469675177193
500.67516153851574
500.67562615919627
500.6760906137678
500.67655490218493
500.6770190244021
500.6774829803739
500.67794677005503
500.67841039340004
500.67887385036346
500.67933714090003
500.67980026496474
500.6802632225121
500.68072601349667
500.68118863787294
500.6816510955952
500.6821133866178
500.682575510895
500.6830374683813
500.6834992590315
500.68396088280014
500.6844223396417
500.6848836295107
500.6853447523619
500.68580570815055
500.6862664968318
500.6867271183609
500.6871875726935
500.6876478597853
500.68810797959185
500.6885679320689
500.6890277171719
500.689487334856
500.6899467850764
500.6904060677886
500.690865182948
500.69132413051005
500.69178291043016
500.6922415226638
500.6926999671661
500.6931582438926
500.6936163527984
500.6940742938386
500.6945320669683
500.69498967214275
500.69544710931694
500.6959043784461
500.6963614794858
500.6968184123918
500.69727517711993
500.6977317736259
500.6981882018651
500.698644461793
500.699100553365
500.69955647653654
500.7000122312631
500.7004678175003
500.7009232352038
500.70137848432927
500.70183356483216
500.7022884766679
500.70274321979167
500.7031977941587
500.70365219972444
500.7041064364443
500.70456050427373
500.70501440316815
500.70546813308323
500.7059216939744
500.7063750857969
500.7068283085061
500.7072813620575
500.70773424640623
500.7081869615076
500.7086395073167
500.7090918837891
500.7095440908801
500.70999612854547
500.7104479967408
500.7108996954216
500.71135122454297
500.7118025840602
500.7122537739287
500.7127047941039
500.71315564454125
500.71360632519594
500.7140568360232
500.71450717697843
500.7149573480171
500.71540734909485
500.7158571801676
500.71630684119117
500.71675633212175
500.7172056529154
500.71765480352855
500.7181037839177
500.71855259403964
500.7190012338512
500.71944970330895
500.71989800236923
500.72034613098816
500.72079408912185
500.7212418767262
500.7216894937571
500.7221369401702
500.72258421592113
500.7230313209654
500.7234782552586
500.72392501875646
500.7243716114146
500.72481803318846
500.7252642840337
500.725710363906
500.7261562727612
500.7266020105557
500.72704757724586
500.72749297278796
500.72793819713837
500.72838325025344
500.7288281320893
500.72927284260203
500.7297173817478
500.7301617494824
500.73060594576185
500.7310499705422
500.73149382377954
500.73193750543027
500.7323810154509
500.7328243537981
500.73326752042857
500.7337105152996
500.73415333836846
500.7345959895924
500.73503846892885
500.73548077633535
500.73592291176914
500.73636487518746
500.7368066665476
500.73724828580674
500.737689732922
500.73813100785054
500.73857211054946
500.739013040976
500.7394537990876
500.73989438484176
500.74033479819644
500.74077503910956
500.74121510753906
500.7416550034429
500.74209472677893
500.7425342775054
500.74297365558044
500.74341286096245
500.7438518936098
500.7442907534809
500.7447294405346
500.74516795472977
500.7456062960254
500.7460444643804
500.7464824597536
500.7469202821039
500.74735793139
500.7477954075709
500.7482327106056
500.7486698404534
500.74910679707403
500.74954358042754
500.74998019047433
500.75041662717484
500.7508528904895
500.75128898037855
500.7517248968024
500.7521606397217
500.7525962090969
500.7530316048887
500.7534668270577
500.75390187556485
500.75433675037124
500.7547714514382
500.7552059787269
500.7556403321984
500.7560745118139
500.75650851753466
500.75694234932206
500.75737600713745
500.7578094909424
500.7582428006987
500.7586759363682
500.7591088979124
500.7595416852934
500.7599742984734
500.76040673741494
500.76083900208044
500.7612710924324
500.76170300843336
500.76213475004573
500.76256631723203
500.76299770995473
500.7634289281763
500.7638599718593
500.7642908409661
500.7647215354593
500.7651520553015
500.76558240045523
500.76601257088276
500.7664425665461
500.76687238740755
500.7673020334293
500.76773150457365
500.76816080080283
500.7685899220789
500.76901886836407
500.7694476396204
500.76987623581016
500.7703046568956
500.7707329028387
500.77116097360175
500.771588869147
500.77201658943653
500.7724441344321
500.77287150409546
500.7732986983885
500.77372571727295
500.77415256071066
500.77457922866364
500.7750057210939
500.77543203796375
500.7758581792354
500.77628414487134
500.7767099348343
500.7771355490872
500.77756098759295
500.77798625031454
500.7784113372149
500.77883624825694
500.77926098340384
500.779685542619
500.7801099258658
500.7805341331079
500.7809581643091
500.78138201943324
500.7818056984442
500.7822292013058
500.7826525279815
500.7830756784344
500.7834986526279
500.7839214505256
500.7843440720912
500.78476651728846
500.7851887860813
500.7856108784335
500.78603279430916
500.7864545336726
500.78687609648813
500.7872974827198
500.7877186923317
500.78813972528786
500.7885605815524
500.7889812610894
500.7894017638627
500.78982208983615
500.79024223897335
500.79066221123793
500.7910820065935
500.7915016250035
500.7919210664315
500.79234033084134
500.7927594181969
500.79317832846203
500.79359706160034
500.79401561757544
500.79443399635073
500.79485219788984
500.7952702221564
500.79568806911374
500.7961057387251
500.79652323095405
500.79694054576447
500.7973576831202
500.7977746429853
500.79819142532386
500.79860803009996
500.7990244572779
500.79944070682217
500.7998567786976
500.80027267286886
500.800688389301
500.8011039279592
500.8015192888085
500.80193447181404
500.80234947694106
500.8027643041548
500.8031789534206
500.8035934247043
500.8040077179716
500.80442183318877
500.80483577032186
500.80524952933723
500.80566311020124
500.80607651288045
500.8064897373417
500.8069027835517
500.80731565147715
500.8077283410843
500.8081408523396
500.80855318520906
500.80896533965864
500.80937731565444
500.8097891131626
500.810200732149
500.81061217257974
500.8110234344212
500.81143451763995
500.8118454222028
500.8122561480763
500.81266669522705
500.81307706362185
500.8134872532277
500.8138972640119
500.81430709594173
500.8147167489846
500.81512622310805
500.8155355182798
500.8159446344677
500.8163535716396
500.8167623297633
500.8171709088069
500.8175793087382
500.8179875295254
500.8183955711367
500.8188034335405
500.8192111167054
500.8196186206
500.820025945193
500.8204330904529
500.82084005634846
500.8212468428482
500.82165344992126
500.8220598775369
500.8224661256647
500.82287219427434
500.82327808333565
500.8236837928184
500.8240893226925
500.82449467292776
500.82489984349394
500.825304834361
500.82570964549876
500.8261142768769
500.8265187284655
500.8269230002347
500.8273270921549
500.82773100419666
500.82813473633036
500.82853828852666
500.82894166075647
500.8293448529909
500.8297478652011
500.83015069735796
500.8305533494326
500.8309558213959
500.831358113219
500.831760224873
500.83216215632905
500.83256390755827
500.832965478532
500.8333668692214
500.8337680795973
500.83416910963064
500.83456995929254
500.8349706285541
500.8353711173865
500.8357714257608
500.83617155364817
500.8365715010197
500.8369712678463
500.8373708540989
500.83777025974854
500.8381694847664
500.8385685291236
500.8389673927913
500.83936607574077
500.8397645779434
500.84016289937057
500.84056103999404
500.84095899978587
500.8413567787181
500.84175437676294
500.8421517938929
500.8425490300803
500.84294608529734
500.8433429595165
500.8437396527103
500.8441361648515
500.8445324959127
500.8449286458669
500.8453246146873
500.845720402347
500.8461160088195
500.8465114340781
500.8469066780962
500.8473017408475
500.8476966223058
500.848091322445
500.8484858412391
500.8488801786622
500.84927433468846
500.84966830929187
500.85006210244677
500.8504557141277
500.85084914430917
500.85124239296573
500.85163546007215
500.8520283456032
500.8524210495338
500.852813571839
500.8532059124938
500.8535980714732
500.8539900487519
500.8543818443049
500.8547734581072
500.85516489013406
500.8555561403611
500.85594720876423
500.8563380953196
500.85672880000305
500.857119322791
500.8575096636595
500.8578998225848
500.8582897995429
500.8586795945102
500.85906920746305
500.85945863837804
500.859847887232
500.8602369540019
500.8606258386648
500.8610145411978
500.8614030615781
500.86179139978293
500.86217955578985
500.8625675295761
500.86295532111893
500.8633429303956
500.8637303573834
500.8641176020598
500.8645046644023
500.8648915443886
500.8652782419967
500.86566475720446
500.86605108998987
500.86643724033064
500.86682320820427
500.86720899358846
500.8675945964612
500.8679800168006
500.86836525458483
500.8687503097921
500.8691351824006
500.8695198723887
500.86990437973503
500.87028870441844
500.870672846418
500.87105680571307
500.8714405822827
500.87182417610614
500.872207587163
500.87259081543283
500.8729738608949
500.8733567235285
500.8737394033132
500.87412190022854
500.87450421425405
500.8748863453695
500.8752682935548
500.8756500587901
500.87603164105525
500.87641304033053
500.87679425659616
500.87717528983234
500.8775561400195
500.8779368071379
500.87831729116755
500.8786975920884
500.8790777098806
500.87945764452473
500.87983739600116
500.88021696429036
500.880596349373
500.8809755512295
500.88135456984054
500.8817334051868
500.88211205724946
500.8824905260098
500.88286881144944
500.88324691354995
500.88362483229315
500.8840025676606
500.8843801196337
500.88475748819354
500.88513467332126
500.88551167499844
500.88588849320644
500.8862651279264
500.88664157913917
500.8870178468255
500.8873939309662
500.88776983154247
500.88814554853565
500.8885210819271
500.88889643169813
500.8892715978306
500.88964658030653
500.8900213791082
500.8903959942176
500.89077042561706
500.89114467328903
500.891518737216
500.8918926173805
500.8922663137652
500.8926398263531
500.89301315512756
500.8933863000722
500.8937592611707
500.8941320384069
500.8945046317644
500.8948770412273
500.8952492667797
500.8956213084056
500.89599316608945
500.8963648398155
500.8967363295682
500.89710763533225
500.89747875709185
500.89784969483134
500.898220448535
500.89859101818723
500.8989614037725
500.89933160527534
500.89970162268054
500.9000714559731
500.90044110513844
500.90081057016204
500.9011798510293
500.90154894772576
500.9019178602368
500.9022865885476
500.9026551326437
500.9030234925105
500.90339166813345
500.90375965949846
500.90412746659166
500.9044950893992
500.90486252790714
500.9052297821019
500.9055968519701
500.9059637374982
500.9063304386729
500.906696955481
500.90706328790947
500.90742943594563
500.90779539957674
500.90816117879007
500.9085267735729
500.90889218391266
500.9092574097967
500.9096224512122
500.90998730814675
500.9103519805878
500.9107164685228
500.9110807719391
500.91144489082393
500.91180882516477
500.9121725749491
500.9125361401645
500.91289952079813
500.91326271683755
500.91362572827046
500.91398855508436
500.91435119726697
500.91471365480623
500.9150759276901
500.91543801590655
500.9157999194435
500.9161616382889
500.91652317243046
500.91688452185593
500.9172456865528
500.91760666650856
500.9179674617105
500.9183280721458
500.91868849780184
500.9190487386658
500.91940879472526
500.91976866596764
500.92012835238046
500.9204878539512
500.9208471706674
500.9212063025165
500.92156524948626
500.9219240115644
500.92228258873837
500.9226409809957
500.9229991883239
500.9233572107102
500.9237150481419
500.9240727006065
500.9244301680914
500.9247874505847
500.92514454807423
500.925501460548
500.92585818799415
500.92621473040066
500.92657108775546
500.9269272600465
500.927283247262
500.9276390493903
500.92799466642003
500.9283500983401
500.9287053451398
500.92906040680845
500.9294152833356
500.92976997471095
500.93012448092435
500.93047880196553
500.9308329378243
500.9311868884906
500.93154065395464
500.9318942342067
500.93224762923745
500.93260083903755
500.9329538635977
500.93330670290874
500.93365935696164
500.9340118257475
500.9343641092573
500.93471620748204
500.93506812041295
500.93541984804136
500.93577139035864
500.93612274735636
500.9364739190259
500.9368249053586
500.9371757063456
500.9375263219783
500.937876752248
500.93822699714605
500.93857705666386
500.938926930793
500.93927661952506
500.9396261228516
500.9399754407643
500.94032457325505
500.940673520316
500.9410222819394
500.9413708581173
500.94171924884193
500.94206745410537
500.94241547389964
500.9427633082168
500.9431109570489
500.9434584203879
500.94380569822596
500.94415279055505
500.94449969736746
500.94484641865546
500.94519295441154
500.9455393046284
500.94588546929884
500.9462314484155
500.9465772419714
500.9469228499599
500.94726827237463
500.947613509209
500.94795856045647
500.9483034261104
500.94864810616417
500.94899260061123
500.949336909445
500.9496810326588
500.95002497024615
500.9503687222004
500.9507122885147
500.9510556691825
500.9513988641972
500.9517418735522
500.9520846972409
500.9524273352569
500.9527697875939
500.95311205424554
500.9534541352056
500.953796030468
500.9541377400264
500.95447926387436
500.95482060200555
500.9551617544136
500.95550272109216
500.95584350203484
500.9561840972355
500.956524506688
500.95686473038626
500.95720476832383
500.9575446204944
500.957884286892
500.958223767511
500.95856306234595
500.95890217139157
500.9592410946429
500.9595798320947
500.9599183837419
500.96025674957986
500.96059492960393
500.9609329238096
500.96127073219253
500.96160835474865
500.9619457914741
500.96228304236496
500.9626201074174
500.9629569866274
500.9632936799907
500.9636301875034
500.963966509161
500.96430264495956
500.9646385948951
500.96497435896384
500.9653099371623
500.96564532948736
500.965980535936
500.9663155565053
500.96665039119256
500.966985039995
500.96731950291013
500.96765377993546
500.9679878710687
500.96832177630785
500.9686554956508
500.96898902909555
500.96932237664026
500.9696555382831
500.96998851402276
500.97032130385804
500.97065390778783
500.970986325811
500.9713185579264
500.9716506041329
500.97198246442935
500.97231413881485
500.9726456272887
500.9729769298505
500.97330804649977
500.9736389772358
500.9739697220579
500.9743002809657
500.9746306539586
500.9749608410363
500.97529084219826
500.9756206574438
500.9759502867725
500.9762797301841
500.9766089876786
500.97693805925604
500.97726694491615
500.9775956446587
500.97792415848375
500.9782524863912
500.9785806283814
500.97890858445425
500.97923635461
500.9795639388489
500.9798913371712
500.9802185495773
500.98054557606764
500.9808724166425
500.9811990713021
500.9815255400469
500.9818518228778
500.9821779197957
500.9825038308015
500.9828295558961
500.98315509508046
500.9834804483557
500.98380561572293
500.9841305971833
500.9844553927382
500.98478000238896
500.9851044261372
500.98542866398446
500.98575271593216
500.98607658198165
500.98640026213474
500.98672375639325
500.9870470647592
500.9873701872347
500.98769312382177
500.98801587452243
500.988338439339
500.9886608182741
500.9889830113306
500.98930501851095
500.9896268398176
500.9899484752536
500.9902699248218
500.99059118852546
500.9909122663675
500.9912331583509
500.9915538644788
500.99187438475445
500.992194719181
500.9925148677618
500.99283483050016
500.99315460739916
500.99347419846225
500.9937936036926
500.9941128230934
500.9944318566681
500.99475070442
500.99506936635265
500.9953878424696
500.9957061327747
500.9960242372719
500.99634215596524
500.9966598888586
500.996977435956
500.9972947972614
500.99761197277866
500.99792896251137
500.99824576646364
500.99856238463957
500.99887881704325
500.9991950636792
500.99951112455204
500.99982699966625
501.00014268902663
501.00045819263795
501.000773510505
501.0010886426325
501.00140358902553
501.00171834968927
501.00203292462874
501.00234731384916
501.002661517356
501.00297553515446
501.00328936725026
501.0036030136493
501.0039164743575
501.0042297493807
501.00454283872494
501.00485574239605
501.0051684603997
501.00548099274187
501.0057933394282
501.0061055004641
501.00641747585536
501.0067292656078
501.00704086972763
501.00735228822117
501.00766352109457
501.0079745683542
501.0082854300064
501.00859610605784
501.00890659651526
501.00921690138574
501.00952702067633
501.0098369543943
501.0101467025467
501.0104562651406
501.01076564218323
501.0110748336819
501.0113838396439
501.0116926600767
501.012001294988
501.01230974438585
501.01261800827837
501.012926086674
501.0132339795809
501.0135416870075
501.013849208962
501.0141565454523
501.0144636964864
501.01477066207207
501.01507744221675
501.0153840369282
501.0156904462139
501.0159966700814
501.01630270853815
501.01660856159145
501.0169142292488
501.0172197115177
501.0175250084057
501.01783011992046
501.01813504606974
501.0184397868613
501.0187443423028
501.01904871240225
501.0193528971676
501.01965689660705
501.019960710729
501.0202643395418
501.0205677830542
501.02087104127526
501.02117411421426
501.02147700188056
501.02177970428323
501.02208222143116
501.02238455333344
501.02268669999916
501.02298866143764
501.02329043765843
501.0235920286713
501.02389343448607
501.0241946551127
501.02449569056097
501.0247965408409
501.0250972059625
501.02539768593573
501.02569798077064
501.02599809047723
501.0262980150655
501.02659775454566
501.02689730892797
501.02719667822265
501.02749586244016
501.02779486159096
501.0280936756855
501.0283923047345
501.0286907487486
501.0289890077385
501.0292870817149
501.0295849706885
501.0298826746702
501.0301801936709
501.0304775277015
501.03077467677343
501.03107164089823
501.0313684200875
501.03166501435334
501.03196142370774
501.032257648163
501.0325536877314
501.03284954242525
501.0331452122568
501.0334406972385
501.03373599738296
501.0340311127024
501.0343260432091
501.03462078891533
501.03491534983385
501.0352097259774
501.03550391735865
501.03579792399086
501.0360917458874
501.03638538306217
501.036678835529
501.0369721033018
501.0372651863942
501.0375580848201
501.0378507985933
501.03814332772794
501.03843567223834
501.03872783213905
501.0390198074446
501.0393115981696
501.03960320432856
501.03989462593603
501.04018586300657
501.04047691555473
501.04076778359484
501.04105846714145
501.0413489662091
501.0416392808124
501.0419294109658
501.0422193566839
501.0425091179815
501.0427986948734
501.04308808737454
501.0433772955002
501.0436663192656
501.0439551586857
501.0442438137756
501.04453228455026
501.0448205710249
501.045108673215
501.04539659113624
501.04568432480477
501.04597187423695
501.04625923944894
501.04654642045665
501.04683341727576
501.0471202299222
501.0474068584121
501.0476933027616
501.0479795629869
501.04826563910405
501.0485515311295
501.04883723907955
501.0491227629706
501.04940810281886
501.0496932586406
501.04997823045227
501.0502630182702
501.05054762211074
501.0508320419903
501.0511162779255
501.0514003299331
501.05168419802993
501.0519678822329
501.05225138255895
501.0525346990252
501.0528178316487
501.05310078044675
501.0533835454366
501.05366612663573
501.0539485240619
501.0542307377329
501.0545127676664
501.05479461388035
501.05507627639275
501.05535775522134
501.05563905038383
501.055920161898
501.0562010897817
501.05648183405305
501.0567623947299
501.05704277183
501.05732296537093
501.0576029753699
501.0578828018444
501.058162444812
501.0584419042902
501.05872118029646
501.0590002728481
501.0592791819626
501.05955790765773
501.05983644995143
501.0601148088619
501.0603929844073
501.06067097660633
501.06094878547805
501.0612264110418
501.06150385331733
501.0617811123247
501.0620581880841
501.0623350806158
501.0626117899398
501.06288831607634
501.0631646590461
501.06344081886976
501.06371679556804
501.06399258916184
501.0642681996721
501.06454362711946
501.06481887152444
501.0650939329075
501.06536881128903
501.0656435066896
501.0659180191298
501.06619234863064
501.0664664952132
501.0667404588989
501.06701423970907
501.0672878376649
501.06756125278747
501.0678344850982
501.0681075346187
501.0683804013706
501.06865308537516
501.06892558665385
501.0691979052278
501.0694700411181
501.069741994346
501.0700137649325
501.0702853528987
501.07055675826535
501.0708279810537
501.07109902128485
501.07136987897997
501.0716405541602
501.07191104684665
501.0721813570605
501.07245148482315
501.07272143015615
501.0729911930809
501.07326077361876
501.07353017179133
501.07379938762045
501.07406842112795
501.0743372723354
501.0746059412647
501.0748744279378
501.07514273237683
501.07541085460383
501.07567879464085
501.07594655250995
501.0762141282332
501.0764815218326
501.0767487333305
501.07701576274934
501.07728261011147
501.0775492754389
501.07781575875373
501.078082060078
501.07834817943393
501.0786141168441
501.078879872331
501.0791454459176
501.0794108376271
501.0796760474827
501.0799410755073
501.0802059217239
501.08047058615574
501.0807350688262
501.08099936975844
501.0812634889757
501.08152742650117
501.08179118235824
501.08205475657036
501.08231814916115
501.0825813601543
501.0828443895734
501.0831072374421
501.0833699037839
501.08363238862256
501.08389469198227
501.0841568138873
501.08441875436205
501.0846805134308
501.0849420911176
501.0852034874467
501.0854647024418
501.0857257361269
501.0859865885258
501.08624725966246
501.08650774956067
501.08676805824456
501.087028185738
501.0872881320649
501.08754789724884
501.087807481314
501.0880668842844
501.08832610618464
501.08858514703905
501.08884400687197
501.0891026857075
501.08936118356945
501.0896195004818
501.08987763646854
501.0901355915541
501.09039336576274
501.09065095911905
501.090908371648
501.0911656033749
501.09142265432473
501.0916795245227
501.0919362139943
501.09219272276545
501.09244905086206
501.09270519831006
501.09296116513536
501.09321695136435
501.09347255702363
501.0937279821398
501.09398322673945
501.0942382908492
501.0944931744959
501.09474787770654
501.09500240050824
501.0952567429278
501.09551090499184
501.09576488672695
501.09601868815975
501.0962723093168
501.09652575022477
501.0967790109102
501.09703209139997
501.09728499172087
501.0975377119
501.0977902519641
501.09804261194034
501.0982947918555
501.0985467917364
501.09879861160965
501.09905025150186
501.09930171143986
501.0995529914505
501.09980409156054
501.1000550117971
501.10030575218747
501.1005563127591
501.10080669353937
501.1010568945557
501.10130691583566
501.10155675740674
501.10180641929645
501.10205590153276
501.1023052041434
501.1025543271566
501.10280327060076
501.1030520345043
501.1033006188956
501.1035490238034
501.1037972492565
501.1040452952836
501.1042931619133
501.1045408491745
501.1047883570963
501.10503568570806
501.1052828350391
501.1055298051187
501.10577659597624
501.1060232076413
501.1062696401431
501.1065158935116
501.10676196777666
501.1070078629686
501.10725357911787
501.10749911625516
501.10774447441116
501.10798965361636
501.10823465390143
501.1084794752973
501.10872411783515
501.1089685815463
501.1092128664624
501.1094569726151
501.10970090003565
501.10994464875574
501.11018821880697
501.11043161022116
501.11067482303014
501.11091785726575
501.11116071296004
501.1114033901453
501.11164588885407
501.11188820911906
501.11213035097325
501.1123723144496
501.11261409958087
501.11285570639956
501.1130971349382
501.11333838522927
501.11357945730555
501.11382035119976
501.11406106694466
501.11430160457274
501.11454196411654
501.1147821456088
501.1150221490822
501.1152619745696
501.1155016221034
501.1157410917162
501.1159803834407
501.1162194973094
501.11645843335504
501.1166971916104
501.11693577210843
501.1171741748821
501.1174123999644
501.11765044738826
501.11788831718667
501.1181260093926
501.118363524039
501.1186008611591
501.1188380207861
501.11907500295337
501.1193118076946
501.1195484350439
501.11978488503536
501.1200211577033
501.12025725308234
501.120493171207
501.1207289121118
501.1209644758314
501.1211998624005
501.12143507185436
501.1216701042285
501.12190495955855
501.12213963788025
501.1223741392295
501.1226084636425
501.1228426111556
501.12307658180515
501.1233103756278
501.12354399266013
501.12377743293877
501.12401069650053
501.1242437833825
501.1244766936215
501.12470942725434
501.1249419843179
501.1251743648492
501.12540656888535
501.1256385964634
501.12587044762034
501.1261021223933
501.12633362081937
501.12656494293554
501.1267960887789
501.1270270583868
501.1272578517962
501.1274884690442
501.12771891016786
501.1279491752045
501.1281792641914
501.128409177166
501.12863891416595
501.12886847522844
501.1290978603908
501.1293270696903
501.1295561031645
501.1297849608513
501.13001364278847
501.1302421490138
501.1304704795652
501.1306986344809
501.1309266137991
501.1311544175582
501.1313820457971
501.1316094985547
501.1318367758699
501.1320638777817
501.13229080432933
501.1325175555523
501.13274413149014
501.13297053218247
501.13319675766905
501.1334228079897
501.13364868318394
501.1338743832916
501.1340999083524
501.134325258406
501.13455043349217
501.13477543365065
501.1350002589215
501.1352249093449
501.1354493849612
501.1356736858108
501.1358978119344
501.1361217633727
501.1363455401667
501.13656914235725
501.1367925699855
501.13701582309244
501.1372389017187
501.1374618059053
501.13768453569304
501.13790709112294
501.1381294722357
501.13835167907195
501.13857371167245
501.1387955700781
501.1390172543303
501.1392387644709
501.1394601005415
501.1396812625839
501.13990225064
501.1401230647518
501.14034370496137
501.1405641713108
501.1407844638424
501.14100458259844
501.14122452762143
501.1414442989539
501.1416638966386
501.14188332071825
501.14210257123585
501.1423216482344
501.1425405517568
501.1427592818463
501.1429778385461
501.1431962218996
501.1434144319505
501.1436324687424
501.14385033231923
501.14406802272487
501.1442855400032
501.14450288419806
501.1447200553534
501.1449370535128
501.14515387872024
501.1453705310195
501.1455870104548
501.1458033170704
501.1460194509106
501.1462354120203
501.14645120044446
501.1466668162281
501.14688225941626
501.14709753005417
501.14731262818754
501.14752755386183
501.14774230712254
501.14795688801536
501.1481712965862
501.14838553288126
501.1485995969469
501.1488134888297
501.1490272085761
501.1492407562325
501.14945413184495
501.14966733545947
501.1498803671222
501.1500932268793
501.1503059147769
501.1505184308609
501.1507307751776
501.150942947773
501.1511549486933
501.1513667779847
501.1515784356931
501.15178992186446
501.15200123654466
501.15221237977966
501.1524233516156
501.1526341520984
501.1528447812738
501.15305523918795
501.153265525887
501.1534756414173
501.1536855858255
501.1538953591582
501.154104961462
501.15431439278353
501.1545236531694
501.15473274266645
501.1549416613213
501.1551504091805
501.15535898629076
501.15556739269863
501.1557756284507
501.1559836935939
501.15619158817475
501.1563993122399
501.1566068658357
501.1568142490086
501.15702146180496
501.1572285042709
501.1574353764526
501.15764207839624
501.15784861014816
501.1580549717548
501.15826116326224
501.15846718471715
501.15867303616614
501.158878717656
501.15908422923366
501.1592895709459
501.15949474283997
501.15969974496323
501.15990457736297
501.1601092400867
501.1603137331819
501.16051805669616
501.16072221067697
501.16092619517207
501.1611300102292
501.1613336558964
501.1615371322213
501.1617404392518
501.16194357703574
501.16214654562117
501.16234934505627
501.1625519753895
501.16275443666945
501.16295672894506
501.16315885226544
501.1633608066799
501.1635625922376
501.16376420898786
501.16396565698
501.1641669362636
501.16436804688846
501.16456898890436
501.16476976236135
501.16497036730965
501.16517080379975
501.1653710718826
501.1655711716093
501.1657711030313
501.1659708662002
501.16617046116784
501.16636988798604
501.1665691467069
501.16676823738266
501.16696716006544
501.1671659148073
501.16736450166076
501.16756292067834
501.167761171913
501.16795925541754
501.1681571712449
501.1683549194483
501.1685525000814
501.1687499131978
501.1689471588517
501.1691442370972
501.1693411479884
501.1695378915794
501.1697344679248
501.16993087707937
501.17012711909814
501.17032319403614
501.1705191019484
501.1707148428897
501.17091041691486
501.17110582407867
501.1713010644359
501.1714961380414
501.17169104495014
501.1718857852174
501.1720803588982
501.17227476604756
501.17246900672075
501.1726630809732
501.1728569888605
501.173050730438
501.1732443057612
501.1734377148859
501.17363095786794
501.1738240347633
501.17401694562767
501.17420969051653
501.17440226948537
501.17459468258966
501.1747869298851
501.1749790114274
501.1751709272725
501.17536267747636
501.17555426209486
501.17574568118374
501.1759369347989
501.1761280229966
501.17631894583286
501.17650970336416
501.1767002956471
501.1768907227385
501.17708098469524
501.17727108157413
501.17746101343204
501.177650780326
501.17784038231315
501.1780298194505
501.17821909179537
501.1784081994053
501.178597142338
501.17878592065125
501.17897453440327
501.17916298365225
501.1793512684562
501.179539388873
501.179727344961
501.17991513677833
501.18010276438343
501.1802902278345
501.1804775271898
501.18066466250747
501.180851633846
501.1810384412642
501.18122508482105
501.18141156457517
501.18159788058546
501.181784032911
501.181970021611
501.1821558467447
501.1823415083715
501.18252700655074
501.182712341342
501.1828975128046
501.18308252099786
501.18326736598095
501.183452047813
501.1836365665528
501.1838209222594
501.1840051149915
501.1841891448084
501.18437301176886
501.1845567159318
501.18474025735617
501.1849236361008
501.1851068522248
501.1852899057871
501.18547279684657
501.1856555254621
501.1858380916928
501.1860204955978
501.1862027372362
501.1863848166674
501.1865667339509
501.1867484891463
501.18693008231315
501.1871115135115
501.1872927828019
501.1874738902449
501.18765483590136
501.1878356198319
501.18801624209704
501.18819670275747
501.1883770018737
501.1885571395059
501.18873711571445
501.18891693055974
501.1890965841025
501.18927607640325
501.1894554075224
501.18963457752074
501.1898135864589
501.18999243439765
501.1901711213979
501.19034964752103
501.1905280128287
501.1907062173827
501.19088426124466
501.19106214447623
501.191239867139
501.19141742929463
501.1915948310049
501.19177207233196
501.1919491533376
501.19212607408366
501.19230283463224
501.19247943504564
501.1926558753864
501.192832155717
501.1930082761
501.1931842365979
501.1933600372733
501.19353567818865
501.19371115940675
501.1938864809908
501.1940616430042
501.1942366455102
501.19441148857203
501.19458617225285
501.1947606966157
501.19493506172347
501.19510926763945
501.19528331442706
501.1954572021497
501.1956309308711
501.19580450065513
501.1959779115659
501.1961511636675
501.19632425702406
501.19649719169996
501.19666996775953
501.19684258526735
501.197015044288
501.197187344886
501.1973594871262
501.19753147107343
501.19770329679244
501.19787496434805
501.1980464738053
501.19821782522916
501.19838901868474
501.198560054237
501.1987309319513
501.19890165189275
501.1990722141267
501.1992426187182
501.1994128657322
501.19958295523355
501.1997528872873
501.19992266195817
501.20009227931104
501.2002617394109
501.2004310423228
501.20060018811154
501.20076917684213
501.20093800857984
501.2011066833899
501.20127520133786
501.2014435624894
501.20161176691016
501.20177981466617
501.20194770582356
501.2021154404487
501.20228301860783
501.20245044036704
501.20261770579253
501.2027848149507
501.2029517679079
501.2031185647306
501.2032852054853
501.203451690239
501.2036180190582
501.20378419200955
501.2039502091597
501.20411607057525
501.20428177632306
501.20444732646973
501.2046127210819
501.2047779602262
501.2049430439694
501.2051079723787
501.2052727455211
501.20543736346366
501.20560182627327
501.2057661340172
501.20593028676325
501.20609428457914
501.20625812753286
501.2064218156924
501.206585349126
501.20674872790204
501.206911952089
501.20707502175554
501.20723793697056
501.2074006978034
501.2075633043234
501.2077257565999
501.20788805470255
501.20805019870085
501.2082121886644
501.208374024663
501.2085357067662
501.2086972350434
501.2088586095644
501.2090198303992
501.20918089761807
501.20934181129127
501.20950257148905
501.2096631782817
501.2098236317392
501.20998393193184
501.2101440789299
501.2103040728036
501.2104639136232
501.21062360145896
501.2107831363814
501.21094251846097
501.21110174776817
501.21126082437394
501.21141974834944
501.21157851976585
501.2117371386941
501.21189560520514
501.2120539193697
501.21221208125843
501.21237009094233
501.21252794849255
501.21268565398026
501.21284320747685
501.21300060905395
501.2131578587832
501.2133149567359
501.2134719029836
501.2136286975978
501.2137853406502
501.2139418322126
501.21409817235684
501.21425436115504
501.21441039867904
501.2145662850009
501.2147220201925
501.21487760432586
501.21503303747335
501.21518831970724
501.21534345109984
501.21549843172346
501.21565326165063
501.21580794095365
501.21596246970483
501.21611684797625
501.21627107583976
501.2164251533672
501.21657908063065
501.2167328577022
501.2168864846539
501.2170399615581
501.2171932884873
501.217346465514
501.21749949271083
501.21765237015023
501.217805097905
501.2179576760479
501.21811010465166
501.21826238378907
501.2184145135331
501.21856649395676
501.218718325133
501.21887000713485
501.21902154003527
501.2191729239075
501.2193241588247
501.2194752448601
501.219626182087
501.2197769705785
501.21992761040764
501.22007810164763
501.22022844437146
501.2203786386521
501.22052868456257
501.2206785821758
501.22082833156486
501.2209779328029
501.22112738596314
501.2212766911186
501.2214258483422
501.221574857707
501.221723719286
501.2218724331521
501.22202099937834
501.2221694180377
501.2223176892034
501.22246581294866
501.2226137893469
501.2227616184718
501.22290930039725
501.2230568351974
501.2232042229463
501.22335146371796
501.2234985575862
501.22364550462515
501.2237923049092
501.22393895851263
501.22408546550986
501.2242318259752
501.22437803998304
501.2245241076077
501.2246700289233
501.2248158040042
501.2249614329248
501.2251069157591
501.22525225258113
501.2253974434647
501.22554248848377
501.2256873877124
501.22583214122477
501.22597674909497
501.22612121139736
501.2262655282065
501.226409699597
501.22655372564344
501.2266976064206
501.2268413420035
501.2269849324675
501.22712837788794
501.2272716783404
501.22741483390035
501.2275578446433
501.2277007106449
501.22784343198117
501.22798600872824
501.2281284409623
501.2282707287597
501.22841287219666
501.22855487134956
501.22869672629525
501.2288384371106
501.22898000387244
501.22912142665785
501.22926270554393
501.22940384060774
501.2295448319264
501.22968567957713
501.2298263836373
501.229966944184
501.23010736129476
501.23024763504685
501.23038776551783
501.23052775278546
501.23066759692796
501.23080729802376
501.2309468561518
501.2310862713909
501.23122554382
501.23136467351804
501.2315036605639
501.23164250503663
501.2317812070157
501.23191976658035
501.23205818381024
501.2321964587849
501.23233459158376
501.2324725822859
501.23261043097085
501.23274813771826
501.2328857026079
501.2330231257196
501.2331604071332
501.23329754692844
501.23343454518493
501.23357140198203
501.2337081173993
501.23384469151637
501.23398112441276
501.2341174161683
501.23425356686283
501.23438957657635
501.2345254453891
501.23466117338165
501.23479676063465
501.23493220722884
501.2350675132449
501.2352026787634
501.2353377038648
501.23547258863
501.23560733313997
501.23574193747567
501.23587640171826
501.2360107259489
501.23614491024904
501.2362789547
501.23641285938305
501.2365466243793
501.2366802497699
501.2368137356361
501.236947082059
501.23708028911955
501.2372133568985
501.23734628547635
501.23747907493356
501.23761172535063
501.2377442368078
501.23787660938564
501.23800884316455
501.2381409382253
501.23827289464856
501.2384047125153
501.2385363919065
501.23866793290307
501.2387993355857
501.2389306000352
501.2390617263322
501.2391927145572
501.2393235647905
501.2394542771121
501.2395848516018
501.23971528833926
501.23984558740375
501.23997574887443
501.2401057728302
501.24023565934993
501.2403654085128
501.2404950203981
501.240624495085
501.2407538326526
501.2408830331803
501.2410120967474
501.2411410234335
501.2412698133182
501.2413984664808
501.2415269830007
501.2416553629575
501.2417836064307
501.2419117135
501.24203968424507
501.24216751874604
501.2422952170829
501.2424227793355
501.2425502055839
501.24267749590825
501.2428046503889
501.2429316691059
501.2430585521392
501.2431852995689
501.24331191147525
501.2434383879385
501.24356472903895
501.24369093485706
501.2438170054731
501.2439429409671
501.2440687414191
501.24419440690934
501.24431993751836
501.2444453333266
501.24457059441505
501.2446957208646
501.24482071275673
501.244945570173
501.24507029319483
501.2451948819034
501.24531933637985
501.2454436567054
501.2455678429612
501.2456918952284
501.2458158135882
501.24593959812177
501.2460632489103
501.2461867660351
501.2463101495777
501.24643339961966
501.24655651624283
501.2466794995293
501.24680234956116
501.24692506642026
501.24704765018845
501.2471701009476
501.2472924187793
501.2474146037652
501.24753665598695
501.2476585755259
501.2477803624635
501.24790201688114
501.24802353885997
501.2481449284816
501.24826618582773
501.2483873109799
501.2485083040196
501.2486291650279
501.24874989408585
501.2488704912743
501.24899095667405
501.249111290366
501.2492314924313
501.2493515629512
501.24947150200654
501.2495913096786
501.24971098604846
501.2498305311971
501.2499499452055
501.2500692281548
501.2501883801262
501.2503074012006
501.25042629145895
501.2505450509822
501.25066367985136
501.2507821781475
501.2509005459521
501.2510187833463
501.2511368904115
501.2512548672293
501.2513727138816
501.25149043045025
501.25160801701753
501.251725473666
501.2518428004782
501.2519599975364
501.25207706492296
501.25219400272016
501.2523108110103
501.25242748987574
501.25254403939897
501.25266045966254
501.252776750749
501.25289291274106
501.25300894572155
501.2531248497732
501.2532406249788
501.25335627142107
501.2534717891826
501.25358717834564
501.25370243899255
501.25381757120584
501.2539325750683
501.25404745066265
501.2541621980719
501.2542768173791
501.25439130866715
501.25450567201887
501.254619907517
501.25473401524454
501.2548479952845
501.2549618477198
501.25507557263376
501.25518917010976
501.25530264023126
501.2554159830817
501.2555291987448
501.25564228730394
501.25575524884283
501.25586808344514
501.25598079119476
501.2560933721756
501.25620582647133
501.2563181541656
501.2564303553424
501.2565424300855
501.25665437847914
501.2567662006076
501.2568778965555
501.2569894664077
501.2571009102489
501.2572122281642
501.2573234202386
501.25743448655743
501.2575454272057
501.2576562422684
501.25776693183064
501.2578774959774
501.257987934794
501.2580982483659
501.25820843677815
501.25831850011576
501.258428438464
501.2585382519082
501.25864794053354
501.2587575044253
501.25886694366903
501.2589762583502
501.25908544855423
501.2591945143669
501.2593034558742
501.25941227316224
501.2595209663172
501.2596295354255
501.25973798057356
501.25984630184774
501.25995449933424
501.2600625731192
501.2601705232891
501.26027834993005
501.26038605312846
501.26049363297074
501.2606010895433
501.26070842293274
501.26081563322595
501.26092272051
501.26102968487197
501.2611365263992
501.2612432451787
501.26134984129766
501.26145631484286
501.2615626659012
501.2616688945595
501.26177500090483
501.2618809850241
501.26198684700415
501.26209258693206
501.2621982048947
501.2623037009791
501.26240907527216
501.26251432786097
501.2626194588326
501.26272446827437
501.2628293562738
501.26293412291824
501.2630387682952
501.2631432924922
501.2632476955968
501.2633519776966
501.2634561388788
501.263560179231
501.2636640988407
501.2637678977955
501.26387157618313
501.26397513409137
501.26407857160797
501.2641818888207
501.26428508581756
501.26438816268654
501.26449111951564
501.2645939563926
501.26469667340547
501.2647992706422
501.264901748191
501.2650041061401
501.26510634457776
501.26520846359193
501.26531046327085
501.26541234370274
501.2655141049758
501.2656157471783
501.2657172703984
501.26581867472436
501.2659199602444
501.26602112704694
501.2661221752207
501.26622310485453
501.2663239160376
501.2664246088595
501.26652518341
501.2666256397792
501.26672597805685
501.2668261983328
501.2669263006971
501.2670262852395
501.2671261520499
501.26722590121807
501.2673255328336
501.2674250469858
501.2675244437641
501.2676237232576
501.26772288555566
501.26782193074786
501.2679208589238
501.26801967017303
501.26811836458495
501.2682169422489
501.268315403254
501.2684137476894
501.268511975644
501.2686100872069
501.2687080824673
501.2688059615145
501.2689037244381
501.26900137132765
501.26909890227324
501.26919631736536
501.2692936166945
501.2693908003511
501.26948786842576
501.2695848210091
501.26968165819216
501.2697783800658
501.26987498672105
501.26997147824903
501.2700678547407
501.27016411628705
501.270260262979
501.2703562949077
501.27045221216434
501.27054801484013
501.270643703026
501.2707392768131
501.2708347362929
501.2709300815565
501.2710253126949
501.27112042979905
501.2712154329601
501.271310322269
501.27140509781674
501.2714997596942
501.27159430799264
501.2716887428032
501.2717830642168
501.2718772723244
501.27197136721674
501.27206534898477
501.2721592177192
501.2722529735108
501.2723466164504
501.2724401466291
501.27253356413775
501.2726268690671
501.27272006150787
501.2728131415508
501.27290610928657
501.27299896480616
501.2730917082005
501.2731843395608
501.27327685897825
501.27336926654397
501.27346156234915
501.273553746485
501.2736458190429
501.27373778011423
501.27382962979044
501.2739213681627
501.2740129953224
501.2741045113609
501.2741959163695
501.27428721043924
501.2743783936616
501.274469466128
501.27456042792954
501.27465127915747
501.27474201990293
501.2748326502569
501.2749231703105
501.2750135801552
501.2751038798826
501.27519406958453
501.2752841493529
501.27537411927955
501.2754639794561
501.275553729974
501.27564337092457
501.27573290239906
501.2758223244884
501.2759116372835
501.2760008408754
501.27608993535495
501.2761789208129
501.2762677973398
501.27635656502633
501.2764452239632
501.2765337742414
501.2766222159516
501.27671054918477
501.2767987740319
501.27688689058385
501.2769748989314
501.2770627991653
501.277150591376
501.2772382756538
501.27732585208895
501.2774133207715
501.2775006817914
501.2775879352393
501.27767508120536
501.2777621197799
501.2778490510531
501.2779358751156
501.27802259205754
501.27810920196924
501.27819570494074
501.2782821010621
501.27836839042305
501.2784545731135
501.2785406492232
501.27862661884177
501.2787124820588
501.2787982389638
501.27888388964624
501.27896943419563
501.2790548727018
501.2791402052546
501.279225431944
501.2793105528603
501.27939556809355
501.279480477734
501.2795652818722
501.27964998059855
501.2797345740034
501.2798190621767
501.2799034452086
501.2799877231891
501.2800718962084
501.2801559643569
501.28023992772495
501.28032378640313
501.2804075404819
501.2804911900518
501.2805747352033
501.2806581760271
501.28074151261416
501.2808247450552
501.2809078734412
501.2809908978631
501.2810738184118
501.28115663517787
501.2812393482515
501.28132195772304
501.2814044636827
501.28148686622075
501.2815691654277
501.28165136139427
501.2817334542112
501.28181544396915
501.28189733075914
501.2819791146721
501.2820607957987
501.28214237422975
501.2822238500557
501.2823052233668
501.28238649425356
501.2824676628065
501.28254872911606
501.28262969327255
501.28271055536646
501.28279131548805
501.2828719737276
501.28295253017535
501.2830329849218
501.2831133380575
501.28319358967286
501.28327373985866
501.2833537887056
501.28343373630463
501.2835135827467
501.28359332812255
501.2836729725229
501.2837525160384
501.2838319587599
501.28391130077824
501.2839905421844
501.28406968306916
501.2841487235232
501.2842276636372
501.2843065035019
501.2843852432081
501.2844638828464
501.2845424225074
501.284620862282
501.2846992022609
501.2847774425347
501.28485558319375
501.28493362432886
501.2850115660305
501.2850894083892
501.2851671514956
501.2852447954405
501.2853223403144
501.2853997862082
501.2854771332126
501.2855543814184
501.28563153091653
501.2857085817977
501.2857855341528
501.28586238807287
501.2859391436486
501.28601580097046
501.286092360129
501.2861688212144
501.28624518431724
501.28632144952775
501.2863976169362
501.28647368663263
501.28654965870686
501.28662553324824
501.2867013103457
501.28677699008784
501.2868525725632
501.2869280578604
501.28700344606835
501.2870787372762
501.28715393157285
501.28722902904696
501.28730402978744
501.2873789338834
501.28745374142426
501.2875284524993
501.28760306719795
501.2876775856093
501.2877520078227
501.28782633392774
501.287900564014
501.2879746981711
501.2880487364884
501.288122679055
501.28819652596025
501.2882702772933
501.28834393314304
501.2884174935986
501.2884909587489
501.28856432868287
501.2886376034891
501.28871078325636
501.28878386807304
501.2888568580276
501.2889297532087
501.28900255370485
501.2890752596042
501.289147870995
501.2892203879655
501.28929281060385
501.28936513899833
501.28943737323715
501.28950951340875
501.2895815596016
501.2896535119041
501.2897253704045
501.2897971351908
501.2898688063512
501.2899403839737
501.29001186814656
501.29008325895774
501.290154556495
501.2902257608459
501.29029687209794
501.2903678903385
501.2904388156548
501.29050964813445
501.2905803878652
501.2906510349348
501.29072158943103
501.29079205144166
501.2908624210542
501.29093269835647
501.2910028834362
501.29107297638114
501.2911429772793
501.2912128862185
501.2912827032864
501.29135242857063
501.2914220621589
501.291491604139
501.2915610545985
501.2916304136249
501.2916996813057
501.29176885772875
501.29183794298154
501.2919069371514
501.2919758403256
501.2920446525915
501.2921133740362
501.29218200474673
501.29225054481043
501.29231899431437
501.29238735334565
501.2924556219911
501.2925238003376
501.29259188847203
501.2926598864812
501.292727794452
501.2927956124715
501.29286334062675
501.2929309790049
501.29299852769276
501.29306598677744
501.29313335634623
501.29320063648623
501.29326782728475
501.29333492882887
501.2934019412059
501.2934688645027
501.2935356988061
501.29360244420303
501.2936691007803
501.2937356686247
501.2938021478232
501.29386853846285
501.2939348406309
501.29400105441454
501.29406717990054
501.29413321717556
501.294199166326
501.29426502743826
501.29433080059874
501.29439648589386
501.29446208341
501.29452759323334
501.29459301545006
501.29465835014634
501.29472359740856
501.29478875732315
501.2948538299767
501.2949188154557
501.2949837138464
501.29504852523536
501.29511324970866
501.2951778873525
501.29524243825307
501.2953069024965
501.29537128016926
501.2954355713577
501.29549977614823
501.29556389462726
501.29562792688097
501.2956918729955
501.2957557330573
501.29581950715254
501.29588319536737
501.29594679778796
501.2960103145005
501.2960737455912
501.29613709114614
501.29620035125157
501.2962635259934
501.29632661545764
501.2963896197302
501.29645253889674
501.29651537304284
501.2965781222542
501.2966407866165
501.2967033662157
501.29676586113754
501.29682827146775
501.296890597292
501.2969528386961
501.29701499576544
501.29707706858557
501.29713905724174
501.297200961819
501.29726278240236
501.29732451907665
501.2973861719267
501.29744774103705
501.2975092264923
501.2975706283773
501.29763194677656
501.29769318177495
501.29775433345725
501.2978154019085
501.297876387214
501.29793728945873
501.29799810872777
501.29805884510614
501.29811949867866
501.29818006953013
501.2982405577456
501.2983009634101
501.29836128660867
501.2984215274261
501.2984816859475
501.298541762258
501.2986017564428
501.29866166858704
501.2987214987758
501.2987812470944
501.29884091362777
501.298900498461
501.2989600016792
501.29901942336704
501.29907876360966
501.29913802249206
501.2991972000993
501.2992562965164
501.2993153118286
501.299374246121
501.29943309947856
501.2994918719866
501.2995505637302
501.2996091747943
501.2996677052642
501.2997261552252
501.2997845247625
501.29984281396145
501.29990102290725
501.29995915168473
501.30001720037893
501.30007516907466
501.3001330578567
501.3001908668095
501.3002485960175
501.30030624556565
501.3003638155387
501.3004213060214
501.3004787170989
501.30053604885615
501.3005933013782
501.30065047474994
501.3007075690561
501.3007645843815
501.300821520811
501.30087837842933
501.30093515732113
501.3009918575712
501.3010484792646
501.3011050224863
501.3011614873216
501.30121787385605
501.30127418217506
501.30133041236417
501.30138656450885
501.30144263869414
501.3014986350051
501.3015545535267
501.3016103943441
501.301666157542
501.30172184320526
501.3017774514187
501.30183298226706
501.301888435835
501.30194381220707
501.30199911146786
501.30205433370196
501.3021094789937
501.3021645474277
501.3022195390883
501.30227445405984
501.30232929242646
501.3023840542723
501.30243873968124
501.3024933487372
501.30254788152405
501.30260233812595
501.3026567186268
501.30271102311025
501.3027652516602
501.3028194043604
501.3028734812944
501.30292748254595
501.30298140819895
501.3030352583375
501.30308903304575
501.3031427324078
501.30319635650807
501.3032499054306
501.3033033792594
501.30335677807824
501.3034101019711
501.3034633510219
501.3035165253145
501.3035696249328
501.3036226499607
501.3036756004821
501.3037284765807
501.3037812783404
501.3038340058451
501.3038866591789
501.30393923842615
501.303991743671
501.3040441749974
501.3040965324887
501.3041488162284
501.3042010262997
501.30425316278587
501.30430522576984
501.30435721533485
501.3044091315641
501.30446097454086
501.3045127443481
501.30456444106875
501.3046160647859
501.3046676155827
501.30471909354213
501.304770498747
501.3048218312801
501.3048730912239
501.30492427866096
501.3049753936736
501.3050264363439
501.30507740675415
501.3051283049869
501.3051791311245
501.30522988524916
501.30528056744305
501.305331177788
501.3053817163656
501.30543218325755
501.30548257854565
501.30553290231154
501.30558315463685
501.305633335603
501.3056834452911
501.3057334837824
501.305783451158
501.3058333474991
501.3058831728869
501.3059329274028
501.3059826111282
501.3060322241444
501.30608176653294
501.3061312383749
501.3061806397515
501.3062299707437
501.30627923143214
501.3063284218974
501.30637754221965
501.306426592479
501.30647557275546
501.30652448312907
501.3065733236801
501.3066220944888
501.3066707956356
501.30671942720113
501.30676798926555
501.3068164819089
501.30686490521106
501.306913259252
501.30696154411174
501.3070097598706
501.3070579066088
501.30710598440663
501.30715399334434
501.307201933502
501.3072498049593
501.3072976077962
501.3073453420922
501.3073930079269
501.3074406053799
501.30748813453073
501.3075355954592
501.3075829882452
501.30763031296823
501.30767756970766
501.30772475854263
501.30777187955226
501.30781893281545
501.30786591841087
501.3079128364172
501.30795968691285
501.3080064699763
501.308053185686
501.3080998341201
501.30814641535693
501.30819292947484
501.3082393765521
501.30828575666663
501.3083320698965
501.30837831631965
501.3084244960143
501.3084706090587
501.30851665553104
501.3085626355093
501.3086085490715
501.30865439629514
501.3087001772578
501.30874589203694
501.30879154071016
501.308837123355
501.3088826400487
501.3089280908686
501.30897347589206
501.3090187951963
501.3090640488587
501.3091092369568
501.3091543595678
501.3091994167691
501.309244408638
501.30928933525155
501.3093341966871
501.30937899302165
501.30942372433213
501.30946839069514
501.3095129921871
501.3095575288841
501.3096020008624
501.30964640819815
501.3096907509675
501.3097350292464
501.30977924311054
501.30982339263545
501.3098674778966
501.30991149896926
501.30995545592845
501.309999348849
501.3100431778059
501.3100869428744
501.31013064412963
501.3101742816463
501.3102178554988
501.3102613657615
501.3103048125085
501.31034819581413
501.31039151575254
501.3104347723981
501.3104779658249
501.31052109610704
501.3105641633185
501.31060716753285
501.3106501088236
501.3106929872642
501.31073580292804
501.31077855588836
501.31082124621815
501.3108638739902
501.31090643927695
501.31094894215124
501.3109913826858
501.31103376095365
501.3110760770275
501.3111183309799
501.3111605228834
501.31120265281055
501.3112447208336
501.3112867270249
501.3113286714567
501.3113705542011
501.31141237533024
501.31145413491635
501.31149583303153
501.31153746974786
501.3115790451374
501.3116205592723
501.31166201222453
501.311703404066
501.31174473486834
501.3117860047029
501.3118272136409
501.3118683617535
501.3119094491116
501.311950475786
501.31199144184706
501.31203234736535
501.31207319241133
501.31211397705505
501.3121547013663
501.31219536541465
501.31223596926947
501.3122765130001
501.31231699667563
501.31235742036546
501.3123977841389
501.3124380880651
501.3124783322132
501.312518516652
501.31255864145027
501.3125987066766
501.3126387123995
501.31267865868716
501.31271854560777
501.3127583732293
501.31279814162
501.3128378508481
501.31287750098176
501.3129170920892
501.31295662423867
501.31299609749834
501.3130355119362
501.31307486762006
501.3131141646174
501.3131534029953
501.3131925828208
501.31323170416107
501.3132707670829
501.31330977165265
501.3133487179368
501.3133876060014
501.31342643591273
501.3134652077369
501.31350392153985
501.3135425773875
501.31358117534563
501.3136197154799
501.313658197856
501.3136966225397
501.31373498959664
501.3137732990926
501.31381155109324
501.3138497456641
501.31388788287035
501.31392596277686
501.3139639854484
501.31400195094983
501.31403985934566
501.3140777107005
501.3141155050791
501.3141532425463
501.3141909231667
501.3142285470046
501.3142661141241
501.3143036245892
501.3143410784634
501.31437847581054
501.31441581669395
501.3144531011771
501.3144903293234
501.31452750119587
501.31456461685724
501.3146016763705
501.3146386797984
501.3146756272035
501.31471251864804
501.31474935419413
501.31478613390385
501.31482285783926
501.31485952606243
501.3148961386352
501.31493269561923
501.31496919707587
501.3150056430663
501.3150420336514
501.31507836889244
501.3151146488503
501.3151508735859
501.31518704315994
501.3152231576327
501.31525921706424
501.31529522151476
501.3153311710443
501.3153670657129
501.3154029055806
501.31543869070714
501.3154744211526
501.31551009697677
501.31554571823943
501.3155812850002
501.31561679731857
501.3156522552537
501.31568765886453
501.3157230082099
501.31575830334845
501.3157935443389
501.3158287312394
501.31586386410817
501.3158989430032
501.3159339679825
501.3159689391038
501.31600385642486
501.3160387200034
501.31607352989676
501.3161082861622
501.3161429888568
501.3161776380377
501.31621223376163
501.3162467760853
501.316281265065
501.31631570075746
501.31635008321877
501.3163844125051
501.3164186886724
501.31645291177637
501.3164870818727
501.31652119901713
501.31655526326534
501.31658927467305
501.31662323329573
501.31665713918886
501.3166909924077
501.3167247930075
501.3167585410435
501.31679223657096
501.31682587964514
501.3168594703213
501.3168930086542
501.31692649469863
501.31695992850945
501.31699331014096
501.3170266396473
501.3170599170823
501.3170931424999
501.3171263159538
501.31715943749754
501.31719250718464
501.31722552506807
501.3172584912008
501.31729140563533
501.3173242684242
501.31735707961974
501.31738983927397
501.31742254743875
501.3174552041657
501.31748780950596
501.3175203635107
501.31755286623087
501.31758531771715
501.31761771802
501.31765006718973
501.31768236527654
501.31771461233046
501.3177468084013
501.31777895353883
501.3178110477929
501.317843091213
501.3178750838485
501.3179070257485
501.31793891696174
501.31797075753656
501.3180025475214
501.31803428696475
501.3180659759152
501.31809761442145
501.31812920253213
501.3181607402957
501.3181922277601
501.31822366497335
501.31825505198316
501.3182863888373
501.3183176755835
501.3183489122695
501.3183800989431
501.3184112356518
501.31844232244333
501.31847335936544
501.3185043464659
501.3185352837924
501.3185661713928
501.3185970093145
501.3186277976051
501.31865853631206
501.31868922548296
501.31871986516506
501.3187504554057
501.3187809962521
501.3188114877516
501.31884192995125
501.31887232289813
501.3189026666393
501.3189329612216
501.3189632066919
501.3189934030967
501.31902355048254
501.3190536488955
501.31908369838146
501.3191136989864
501.31914365075653
501.3191735537377
501.31920340797564
501.3192332135158
501.3192629704035
501.31929267868367
501.31932233840115
501.31935194960073
501.3193815123272
501.3194110266249
501.3194404925384
501.319469910112
501.31949927938985
501.3195286004158
501.31955787323403
501.3195870978886
501.3196162744236
501.31964540288317
501.3196744833114
501.31970351575245
501.3197325002499
501.3197614368473
501.3197903255877
501.31981916651415
501.31984795966963
501.3198767050971
501.31990540283977
501.3199340529408
501.31996265544325
501.31999121039
501.3200197178241
501.32004817778846
501.32007659032587
501.3201049554788
501.3201332732894
501.32016154379966
501.32018976705166
501.32021794308724
501.32024607194825
501.3202741536763
501.32030218831295
501.32033017589964
501.3203581164775
501.3203860100875
501.32041385677024
501.3204416565663
501.3204694095161
501.32049711565986
501.3205247750379
501.32055238769016
501.32057995365693
501.320607472978
501.3206349456929
501.320662371841
501.32068975146166
501.3207170845939
501.32074437127693
501.32077161154956
501.32079880545047
501.3208259530181
501.3208530542908
501.32088010930664
501.32090711810355
501.3209340807195
501.32096099719246
501.32098786755995
501.3210146918595
501.3210414701288
501.3210682024057
501.3210948887278
501.321121529133
501.3211481236587
501.32117467234224
501.32120117522044
501.3212276323299
501.3212540437068
501.32128040938704
501.32130672940633
501.3213330037999
501.32135923260256
501.3213854158491
501.321411553574
501.32143764581195
501.3214636925972
501.32148969396366
501.3215156499452
501.32154156057544
501.32156742588785
501.32159324591584
501.3216190206926
501.32164475025087
501.3216704346234
501.3216960738427
501.3217216679413
501.32174721695145
501.32177272090524
501.32179817983473
501.32182359377197
501.32184896274856
501.3218742867959
501.3218995659449
501.3219248002262
501.3219499896704
501.3219751343078
501.322000234169
501.322025289284
501.32205029968276
501.3220752653953
501.3221001864512
501.32212506288005
501.3221498947111
501.322174681974
501.32219942469777
501.32222412291156
501.32224877664424
501.32227338592446
501.3222979507804
501.3223224712403
501.3223469473323
501.32237137908436
501.32239576652404
501.3224201096786
501.3224444085749
501.3224686632395
501.32249287369876
501.3225170399789
501.3225411621058
501.32256524010535
501.32258927400306
501.32261326382417
501.3226372095939
501.322661111337
501.32268496907835
501.32270878284265
501.3227325526547
501.32275627853886
501.3227799605194
501.3228035986203
501.3228271928651
501.32285074327723
501.32287424987993
501.32289771269615
501.3229211317486
501.3229445070596
501.3229678386512
501.322991126545
501.3230143707621
501.32303757132325
501.3230607282491
501.32308384156016
501.3231069112764
501.3231299374176
501.32315292000357
501.32317585905406
501.3231987545889
501.32322160662756
501.3232444151892
501.3232671802925
501.32328990195555
501.3233125801964
501.3233352150327
501.3233578064821
501.3233803545617
501.32340285928893
501.32342532068077
501.32344773875406
501.3234701135254
501.32349244501137
501.32351473322814
501.32353697819184
501.3235591799186
501.3235813384246
501.3236034537262
501.32362552584
501.32364755478255
501.3236695405703
501.32369148322
501.3237133827485
501.32373523917244
501.32375705250837
501.3237788227729
501.3238005499824
501.3238222341535
501.32384387530254
501.3238654734459
501.3238870285997
501.3239085407801
501.3239300100035
501.32395143628645
501.32397281964535
501.32399416009633
501.32401545765555
501.3240367123389
501.3240579241621
501.32407909314037
501.32410021928894
501.3241213026228
501.3241423431568
501.32416334090584
501.324184295885
501.32420520810905
501.32422607759275
501.3242469043509
501.32426768839827
501.32428842974986
501.3243091284209
501.32432978442665
501.3243503977823
501.32437096850293
501.3243914966035
501.324411982099
501.32443242500466
501.32445282533575
501.3244731831073
501.32449349833445
501.3245137710325
501.32453400121693
501.32455418890316
501.32457433410667
501.3245944368429
501.32461449712736
501.32463451497523
501.32465449040177
501.32467442342244
501.3246943140527
501.324714162308
501.3247339682038
501.3247537317556
501.32477345297906
501.32479313188986
501.3248127685037
501.32483236283605
501.3248519149021
501.3248714247174
501.3248908922971
501.3249103176565
501.32492970081074
501.32494904177514
501.3249683405647
501.32498759719414
501.32500681167807
501.32502598403124
501.3250451142687
501.32506420240514
501.3250832484552
501.3251022524334
501.3251212143543
501.3251401342324
501.32515901208234
501.3251778479186
501.325196641756
501.3252153936093
501.3252341034933
501.32525277142275
501.3252713974127
501.32528998147785
501.32530852363305
501.3253270238933
501.3253454822736
501.32536389878913
501.325382273455
501.32540060628634
501.32541889729845
501.3254371465063
501.3254553539252
501.3254735195705
501.3254916434582
501.32550972560415
501.32552776602455
501.3255457647353
501.3255637217523
501.3255816370917
501.3255995107697
501.32561734280256
501.32563513320673
501.32565288199856
501.32567058919443
501.3256882548109
501.3257058788644
501.3257234613713
501.3257410023479
501.3257585018104
501.32577595977494
501.32579337625765
501.3258107512747
501.3258280848424
501.32584537697716
501.32586262769513
501.32587983701245
501.3258970049455
501.32591413151084
501.3259312167251
501.32594826060466
501.32596526316587
501.3259822244251
501.32599914439874
501.32601602310314
501.3260328605547
501.3260496567697
501.3260664117649
501.3260831255565
501.326099798161
501.3261164295945
501.32613301987334
501.3261495690139
501.3261660770326
501.3261825439458
501.3261989697698
501.32621535452125
501.326231698217
501.3262480008736
501.3262642625079
501.3262804831365
501.3262966627762
501.32631280144386
501.3263288991563
501.3263449559301
501.3263609717821
501.32637694672934
501.3263928807889
501.3264087739778
501.3264246263133
501.3264404378128
501.3264562084934
501.32647193837255
501.3264876274672
501.32650327579444
501.32651888337153
501.3265344502158
501.32654997634444
501.3265654617748
501.32658090652393
501.32659631060886
501.3266116740469
501.3266269968555
501.32664227905224
501.3266575206546
501.32667272168027
501.32668788214704
501.32670300207263
501.3267180814748
501.326733120371
501.32674811877877
501.3267630767156
501.3267779941993
501.3267928712475
501.32680770787823
501.3268225041092
501.3268372599584
501.32685197544373
501.32686665058344
501.3268812853957
501.3268958798985
501.3269104341097
501.32692494804763
501.3269394217304
501.326953855176
501.32696824840235
501.3269826014277
501.3269969142704
501.32701118694916
501.3270254194826
501.3270396118891
501.3270537641874
501.32706787639603
501.32708194853325
501.32709598061723
501.32710997266594
501.32712392469733
501.32713783672915
501.32715170877935
501.3271655408659
501.32717933300677
501.3271930852199
501.32720679752373
501.32722046993666
501.3272341024771
501.32724769516375
501.32726124801496
501.3272747610492
501.3272882342848
501.3273016677405
501.32731506143494
501.3273284153865
501.3273417296136
501.32735500413486
501.327368238969
501.32738143413457
501.3273945896503
501.327407705535
501.3274207818078
501.3274338184878
501.3274468155941
501.3274597731458
501.327472691162
501.32748556966175
501.3274984086642
501.32751120818847
501.3275239682534
501.32753668887784
501.32754937008116
501.32756201188266
501.3275746143019
501.32758717735845
501.3275997010716
501.32761218546096
501.32762463054604
501.3276370363464
501.3276494028816
501.3276617301714
501.32767401823565
501.32768626709384
501.32769847676553
501.3277106472705
501.3277227786288
501.3277348708604
501.3277469239851
501.3277589380229
501.3277709129938
501.3277828489183
501.3277947458168
501.3278066037096
501.3278184226169
501.32783020255914
501.3278419435566
501.32785364562955
501.3278653087979
501.327876933082
501.327888518502
501.32790006507815
501.3279115728305
501.327923041779
501.3279344719435
501.3279458633435
501.32795721599854
501.32796852992846
501.3279798051528
501.32799104169106
501.3280022395631
501.3280133987882
501.32802451938545
501.32803560137376
501.3280466447722
501.32805764959966
501.32806861587545
501.3280795436187
501.3280904328487
501.32810128358454
501.32811209584537
501.32812286965026
501.3281336050181
501.3281443019677
501.328154960518
501.3281655806879
501.32817616249616
501.32818670596174
501.32819721110326
501.32820767793936
501.32821810648846
501.3282284967692
501.3282388488
501.32824916259955
501.3282594381862
501.3282696755784
501.32827987479453
501.32829003585306
501.3283001587724
501.3283102435709
501.32832029026684
501.3283302988779
501.32834026942186
501.3283502019164
501.3283600963793
501.32836995282804
501.3283797712799
501.3283895517524
501.32839929426285
501.3284089988285
501.3284186654666
501.3284282941947
501.32843788503027
501.32844743799086
501.32845695309396
501.3284664303571
501.3284758697975
501.3284852714325
501.3284946352796
501.32850396135626
501.32851324968027
501.32852250026957
501.3285317131421
501.3285408883159
501.32855002580885
501.32855912563895
501.3285681878244
501.32857721238287
501.32858619933216
501.32859514869
501.32860406047456
501.32861293470404
501.3286217713964
501.3286305705696
501.32863933224183
501.32864805643106
501.32865674315525
501.3286653924326
501.32867400428125
501.3286825787192
501.328691115764
501.3286996154331
501.3287080777438
501.32871650271335
501.32872489035907
501.3287332406982
501.32874155374833
501.3287498295269
501.3287580680514
501.3287662693394
501.32877443340834
501.3287825602758
501.3287906499592
501.32879870247615
501.3288067178443
501.3288146960817
501.3288226372062
501.3288305412361
501.32883840818926
501.3288462380837
501.3288540309372
501.3288617867674
501.3288695055921
501.328877187429
501.32888483229607
501.3288924402113
501.3289000111926
501.328907545258
501.3289150424254
501.3289225027128
501.3289299261384
501.3289373127206
501.3289446624778
501.3289519754284
501.3289592515909
501.3289664909839
501.328973693626
501.3289808595359
501.3289879887322
501.3289950812336
501.3290021370587
501.32900915622594
501.32901613875396
501.3290230846612
501.329029993966
501.32903686668686
501.32904370284217
501.32905050245057
501.3290572655305
501.3290639921003
501.3290706821785
501.3290773357832
501.3290839529324
501.3290905336441
501.3290970779364
501.3291035858278
501.3291100573369
501.32911649248257
501.3291228912837
501.32912925375916
501.3291355799278
501.32914186980855
501.32914812342045
501.3291543407826
501.3291605219144
501.3291666668351
501.329172775564
501.32917884812053
501.3291848845242
501.3291908847945
501.32919684895154
501.3292027770155
501.32920866900685
501.32921452494605
501.3292203448536
501.3292261287499
501.3292318766557
501.32923758859187
501.3292432645796
501.32924890464
501.32925450879424
501.329260077063
501.32926560946674
501.32927110602594
501.32927656676105
501.32928199169254
501.32928738084087
501.3292927342267
501.32929805187104
501.32930333379494
501.3293085800196
501.3293137905661
501.3293189654559
501.32932410471034
501.32932920835077
501.3293342763988
501.32933930887583
501.3293443058032
501.3293492672021
501.3293541930936
501.3293590834989
501.32936393843914
501.32936875793547
501.3293735420088
501.3293782906796
501.32938300396853
501.3293876818961
501.32939232448274
501.32939693174893
501.32940150371536
501.3294060404025
501.3294105418308
501.3294150080205
501.32941943899203
501.3294238347659
501.32942819536305
501.32943252080435
501.32943681111095
501.329441066304
501.32944528640445
501.3294494714334
501.3294536214118
501.32945773636055
501.3294618163008
501.3294658612537
501.3294698712404
501.32947384628204
501.32947778639976
501.3294816916145
501.32948556194737
501.32948939741976
501.32949319805306
501.32949696386885
501.32950069488874
501.32950439113387
501.32950805262516
501.32951167938353
501.3295152714299
501.3295188287852
501.3295223514703
501.3295258395064
501.3295292929144
501.329532711715
501.32953609592863
501.329539445576
501.3295427606776
501.3295460412539
501.3295492873255
501.3295524989132
501.3295556760376
501.3295588187195
501.32956192697947
501.3295650008383
501.3295680403168
501.3295710454358
501.3295740162159
501.329576952678
501.3295798548433
501.32958272273294
501.3295855563683
501.3295883557707
501.32959112096154
501.329593851962
501.32959654879295
501.32959921147534
501.3296018400301
501.3296044344783
501.3296069948414
501.329609521141
501.3296120133986
501.32961447163615
501.3296168958754
501.329619286138
501.32962164244526
501.3296239648186
501.3296262532792
501.3296285078481
501.32963072854676
501.32963291539676
501.3296350684197
501.3296371876374
501.3296392730717
501.3296413247446
501.32964334267825
501.32964532689465
501.32964727741563
501.32964919426325
501.3296510774596
501.32965292702687
501.32965474298766
501.32965652536444
501.32965827417974
501.3296599894563
501.3296616712168
501.32966331948427
501.32966493428165
501.32966651563214
501.32966806355915
501.3296695780861
501.32967105923643
501.3296725070333
501.32967392149993
501.32967530265927
501.32967665053405
501.329677965147
501.3296792465209
501.3296804946785
501.32968170964267
501.32968289143645
501.32968404008255
501.3296851556037
501.3296862380227
501.3296872873622
501.329688303645
501.32968928689405
501.3296902371323
501.3296911543825
501.32969203866736
501.32969289000965
501.32969370843233
501.3296944939586
501.3296952466116
501.3296959664146
501.32969665339095
501.32969730756435
501.3296979289584
501.32969851759725
501.3296990735052
501.3296995967068
501.3297000872264
501.32970054508854
501.32970097031756
501.3297013629378
501.32970172297377
501.3297020504503
501.32970234539215
501.3297026078239
501.3297028377703
501.3297030352557
501.32970320030444
501.3297033329408
501.3297034331892
501.3297035010741
501.3297035366201
501.3297035398518
501.32970351079365
501.32970344947006
501.32970335590556
501.32970323012427
501.3297030721505
501.3297028820086
501.32970265972284
501.3297024053174
501.32970211881656
501.32970180024466
501.3297014496258
501.3297010669841
501.32970065234366
501.3297002057288
501.3296997271638
501.3296992166733
501.32969867428204
501.3296981000146
501.3296974938955
501.32969685594907
501.32969618619944
501.3296954846707
501.32969475138697
501.3296939863723
501.32969318965064
501.32969236124603
501.3296915011828
501.32969060948557
501.3296896861786
501.32968873128624
501.3296877448326
501.329686726842
501.3296856773388
501.3296845963475
501.32968348389267
501.3296823399989
501.3296811646907
501.3296799579925
501.32967871992827
501.3296774505222
501.3296761497981
501.3296748177797
501.32967345449055
501.32967205995436
501.32967063419454
501.3296691772343
501.32966768909654
501.32966616980406
501.32966461937957
501.32966303784605
501.3296614252267
501.3296597815444
501.329658106822
501.32965640108176
501.3296546643459
501.329652896637
501.32965109797755
501.32964926839
501.32964740789674
501.32964551652
501.3296435942818
501.32964164120443
501.3296396573102
501.32963764262144
501.3296355971601
501.3296335209481
501.3296314140072
501.3296292763595
501.3296271080275
501.3296249090335
501.3296226793995
501.3296204191476
501.32961812829984
501.3296158068783
501.329613454905
501.329611072402
501.32960865939134
501.3296062158951
501.32960374193516
501.32960123753327
501.3295987027115
501.3295961374917
501.3295935418957
501.3295909159453
501.32958825966233
501.32958557306864
501.32958285618605
501.3295801090364
501.32957733164125
501.32957452402223
501.32957168620095
501.329568818199
501.32956592003796
501.3295629917397
501.3295600333258
501.3295570448178
501.3295540262372
501.3295509776055
501.32954789894455
501.329544790276
501.32954165162135
501.3295384830023
501.3295352844406
501.3295320559584
501.3295287975779
501.3295255093214
501.3295221912114
501.3295188432705
501.32951546552107
501.3295120579857
501.3295086206867
501.32950515364604
501.32950165688584
501.32949813042814
501.3294945742952
501.3294909885096
501.32948737309374
501.32948372807
501.3294800534604
501.32947634928695
501.3294726155718
501.3294688523369
501.3294650596044
501.3294612373965
501.32945738573534
501.3294535046429
501.3294495941415
501.32944565425345
501.329441685001
501.3294376864064
501.3294336584922
501.3294296012809
501.329425514795
501.32942139905725
501.3294172540904
501.3294130799174
501.3294088765612
501.32940464404504
501.32940038239184
501.3293960916246
501.32939177176644
501.32938742284085
501.32938304487146
501.32937863788214
501.32937420189654
501.3293697369383
501.32936524303085
501.32936072019737
501.32935616846083
501.3293515878444
501.32934697837135
501.3293423400648
501.32933767294816
501.3293329770449
501.3293282523786
501.3293234989732
501.3293187168528
501.3293139060415
501.32930906656355
501.3293041984436
501.3292993017057
501.3292943763742
501.32928942247366
501.32928444002886
501.3292794290648
501.3292743896065
501.32926932167896
501.32926422530744
501.32925910051716
501.3292539473336
501.32924876578244
501.3292435558894
501.32923831768034
501.32923305118123
501.329227756418
501.32922243341676
501.3292170822039
501.32921170280605
501.3292062952498
501.3292008595619
501.32919539576955
501.3291899038997
501.32918438397945
501.3291788360361
501.32917326009687
501.3291676561891
501.32916202433984
501.32915636457614
501.32915067692505
501.32914496141365
501.3291392180692
501.3291334469188
501.32912764798965
501.32912182130957
501.3291159669065
501.32911008480863
501.3291041750444
501.329098237642
501.32909227262934
501.32908628003423
501.32908025988417
501.3290742122069
501.32906813703033
501.32906203438273
501.32905590429226
501.32904974678735
501.3290435618964
501.3290373496479
501.3290311100704
501.32902484319237
501.329018549042
501.3290122276475
501.32900587903686
501.328999503238
501.32899310027864
501.32898667018657
501.3289802129895
501.3289737287152
501.32896721739183
501.3289606790476
501.32895411371095
501.32894752141004
501.3289409021733
501.32893425602896
501.32892758300494
501.32892088312946
501.3289141564307
501.3289074029364
501.32890062267455
501.32889381567287
501.32888698195933
501.3288801215619
501.32887323450854
501.328866320827
501.3288593805452
501.32885241369144
501.3288454202938
501.32883840038056
501.3288313539801
501.32882428112106
501.3288171818321
501.3288100561419
501.3288029040793
501.32879572567316
501.3287885209524
501.3287812899459
501.3287740326825
501.3287667491913
501.3287594395012
501.3287521036411
501.3287447416398
501.32873735352604
501.3287299393282
501.3287224990747
501.3287150327937
501.3287075405132
501.328700022261
501.32869247806474
501.32868490795266
501.32867731195296
501.32866969009405
501.32866204240435
501.32865436891205
501.3286466696458
501.3286389446345
501.32863119390726
501.32862341749313
501.32861561542103
501.32860778772005
501.3285999344193
501.32859205554763
501.3285841511342
501.32857622120827
501.32856826579945
501.3285602849373
501.32855227865156
501.32854424697206
501.32853618992857
501.3285281075509
501.3285199998688
501.32851186691227
501.3285037087116
501.3284955252972
501.3284873166994
501.3284790829484
501.32847082407415
501.32846254010695
501.3284542310773
501.32844589701557
501.3284375379521
501.32842915391683
501.3284207449398
501.32841231105107
501.3284038522806
501.3283953686586
501.32838686021495
501.32837832697936
501.3283697689819
501.32836118625227
501.32835257882056
501.32834394671676
501.32833528997065
501.3283266086118
501.32831790266977
501.3283091721741
501.32830041715437
501.3282916376401
501.3282828336609
501.3282740052463
501.3282651524259
501.32825627522897
501.3282473736851
501.32823844782337
501.3282294976727
501.3282205232619
501.3282115246197
501.3282025017747
501.3281934547553
501.3281843835902
501.3281752883083
501.3281661689386
501.32815702551005
501.3281478580515
501.3281386665921
501.3281294511609
501.32812021178705
501.3281109484996
501.3281016613277
501.32809235030066
501.3280830154478
501.3280736567985
501.32806427438203
501.3280548682275
501.3280454383641
501.32803598482104
501.3280265076277
501.32801700681324
501.3280074824069
501.32799793443786
501.3279883629352
501.32797876792796
501.32796914944555
501.3279595075175
501.3279498421734
501.32794015344297
501.3279304413563
501.32792070594354
501.3279109472348
501.32790116526024
501.32789136004993
501.32788153163386
501.3278716800423
501.3278618053052
501.32785190745284
501.32784198651547
501.3278320425233
501.3278220755064
501.3278120854947
501.32780207251807
501.32779203660647
501.3277819777897
501.32777189609754
501.3277617915598
501.32775166420623
501.3277415140662
501.327731341169
501.327721145544
501.3277109272205
501.32770068622807
501.3276904225963
501.3276801363549
501.32766982753395
501.3276594961637
501.32764914227454
501.327638765897
501.32762836706155
501.32761794579864
501.32760750213896
501.327597036113
501.3275865477512
501.32757603708404
501.327565504142
501.3275549489553
501.32754437155444
501.3275337719696
501.32752315023134
501.3275125063703
501.3275018404169
501.3274911524017
501.3274804423551
501.3274697103072
501.3274589562879
501.3274481803275
501.327437382456
501.3274265627037
501.3274157211005
501.3274048576765
501.3273939724617
501.3273830654861
501.32737213677996
501.3273611863735
501.3273502142967
501.3273392205794
501.3273282052514
501.3273171683424
501.3273061098825
501.3272950299019
501.32728392843063
501.32727280549847
501.3272616611352
501.3272504953706
501.32723930823425
501.3272280997557
501.3272168699643
501.32720561888954
501.3271943465608
501.3271830530072
501.32717173825785
501.3271604023418
501.3271490452882
501.3271376671261
501.3271262678849
501.32711484759415
501.32710340628313
501.3270919439812
501.3270804607177
501.32706895652194
501.3270574314235
501.3270458854517
501.3270343186361
501.32702273100625
501.32701112259195
501.32699949342276
501.326987843528
501.326976172937
501.3269644816791
501.3269527697834
501.326941037279
501.32692928419505
501.3269175105608
501.32690571640563
501.3268939017591
501.32688206665097
501.32687021111127
501.3268583351698
501.3268464388563
501.3268345222006
501.3268225852325
501.32681062798173
501.3267986504781
501.32678665275165
501.32677463483213
501.3267625967491
501.32675053853217
501.32673846021106
501.32672636181536
501.3267142433746
501.3267021049184
501.3266899464763
501.32667776807756
501.3266655697518
501.3266533515286
501.32664111343723
501.32662885550707
501.32661657776765
501.32660428024855
501.3265919629791
501.3265796259886
501.3265672693064
501.32655489296184
501.326542496984
501.32653008140204
501.326517646245
501.326505191542
501.3264927173222
501.3264802236146
501.32646771044887
501.32645517785426
501.3264426258601
501.3264300544956
501.3264174637897
501.32640485377186
501.3263922244716
501.3263795759187
501.3263669081429
501.32635422117386
501.32634151504107
501.32632878977387
501.3263160454016
501.3263032819536
501.3262904994596
501.3262776979495
501.32626487745296
501.32625203800006
501.3262391796208
501.326226302345
501.32621340620216
501.32620049122187
501.3261875574337
501.3261746048674
501.3261616335528
501.32614864351984
501.3261356347984
501.3261226074182
501.32610956140906
501.32609649680074
501.32608341362305
501.32607031190554
501.326057191678
501.3260440529704
501.32603089581306
501.32601772023594
501.32600452626906
501.3259913139422
501.3259780832852
501.325964834328
501.3259515671006
501.32593828163334
501.32592497795616
501.3259116560991
501.32589831609215
501.3258849579649
501.32587158174687
501.3258581874679
501.3258447751577
501.3258313448461
501.3258178965627
501.325804430337
501.3257909461983
501.325777444176
501.3257639242997
501.3257503865986
501.3257368311021
501.32572325783957
501.3257096668405
501.3256960581347
501.325682431752
501.3256687877221
501.3256551260749
501.3256414468398
501.32562775004675
501.32561403572544
501.3256003039059
501.32558655461816
501.3255727878922
501.3255590037581
501.3255452022458
501.3255313833851
501.3255175472056
501.32550369373683
501.3254898230081
501.3254759350488
501.3254620298878
501.32544810755365
501.3254341680749
501.32542021147987
501.3254062377968
501.3253922470537
501.3253782392787
501.32536421449976
501.3253501727449
501.3253361140418
501.32532203841805
501.3253079459011
501.3252938365187
501.3252797102984
501.32526556726765
501.325251407454
501.32523723088497
501.32522303758805
501.32520882759053
501.3251946009195
501.3251803576017
501.32516609766384
501.32515182113224
501.3251375280333
501.32512321839334
501.3251088922388
501.32509454959603
501.3250801904912
501.3250658149504
501.3250514229996
501.3250370146647
501.3250225899714
501.32500814894496
501.3249936916106
501.32497921799353
501.324964728119
501.32495022201255
501.32493569969955
501.32492116120574
501.3249066065568
501.3248920357782
501.3248774488954
501.3248628459341
501.3248482269202
501.32483359187967
501.3248189408384
501.32480427382205
501.3247895908566
501.32477489196816
501.3247601771831
501.32474544652786
501.3247307000285
501.32471593771123
501.32470115960217
501.3246863657275
501.3246715561133
501.32465673078576
501.32464188977127
501.3246270330962
501.32461216078667
501.32459727286863
501.32458236936776
501.32456745030976
501.32455251572054
501.32453756562626
501.32452260005306
501.3245076190271
501.3244926225747
501.32447761072257
501.324462583497
501.32444754092415
501.3244324830302
501.32441740984126
501.3244023213835
501.32438721768307
501.32437209876633
501.3243569646599
501.3243418153906
501.3243266509855
501.32431147147184
501.32429627687696
501.3242810672281
501.3242658425526
501.3242506028777
501.32423534823096
501.3242200786396
501.32420479413094
501.32418949473225
501.3241741804706
501.32415885137283
501.324143507466
501.3241281487771
501.3241127753335
501.32409738716245
501.324081984291
501.32406656674624
501.3240511345554
501.32403568774583
501.32402022634454
501.3240047503786
501.3239892598751
501.323973754861
501.32395823536325
501.3239427014086
501.32392715302393
501.32391159023604
501.32389601307176
501.3238804215577
501.32386481572047
501.32384919558666
501.3238335611829
501.32381791253596
501.32380224967227
501.3237865726182
501.32377088139987
501.32375517604345
501.3237394565751
501.3237237230209
501.3237079754069
501.3236922137589
501.32367643810284
501.3236606484647
501.3236448448701
501.3236290273448
501.32361319591445
501.32359735060476
501.3235814914412
501.3235656184492
501.32354973165405
501.32353383108074
501.32351791675427
501.32350198869966
501.3234860469419
501.32347009150607
501.3234541224171
501.3234381396998
501.32342214337876
501.3234061334785
501.3233901100236
501.32337407303856
501.323358022548
501.32334195857646
501.3233258811485
501.3233097902884
501.32329368602035
501.3232775683684
501.3232614373564
501.32324529300826
501.32322913534784
501.32321296439903
501.3231967801857
501.32318058273194
501.32316437206185
501.32314814819955
501.32313191116936
501.32311566099537
501.3230993977019
501.3230831213136
501.3230668318549
501.3230505293499
501.32303421382284
501.32301788529793
501.32300154379953
501.322985189352
501.3229688219796
501.3229524417065
501.32293604855676
501.3229196425547
501.32290322372495
501.322886792092
501.32287034768063
501.3228538905159
501.32283742062276
501.32282093802627
501.3228044427514
501.32278793482345
501.3227714142674
501.3227548811082
501.32273833537073
501.32272177707995
501.3227052062609
501.32268862293853
501.32267202713814
501.32265541888495
501.32263879820397
501.32262216512
501.32260551965777
501.3225888618421
501.3225721916978
501.3225555092494
501.32253881452147
501.32252210753876
501.3225053883263
501.3224886569089
501.3224719133113
501.32245515755807
501.322438389674
501.3224216096839
501.3224048176125
501.3223880134844
501.3223711973241
501.32235436915624
501.32233752900555
501.3223206768968
501.32230381285484
501.3222869369044
501.3222700490705
501.3222531493779
501.3222362378514
501.3222193145161
501.32220237939686
501.322185432519
501.32216847390754
501.32215150358746
501.3221345215838
501.3221175279211
501.3221005226239
501.32208350571653
501.3220664772229
501.32204943716664
501.32203238557116
501.3220153224599
501.321998247856
501.3219811617825
501.3219640642623
501.3219469553184
501.3219298349738
501.32191270325114
501.32189556017323
501.3218784057628
501.32186124004255
501.3218440630355
501.32182687476455
501.3218096752525
501.3217924645223
501.32177524259686
501.321758009499
501.3217407652514
501.321723509877
501.32170624339864
501.3216889658392
501.32167167722145
501.3216543775681
501.3216370669019
501.32161974524587
501.32160241262267
501.32158506905506
501.3215677145658
501.32155034917804
501.3215329729148
501.3215155857992
501.3214981878543
501.32148077910296
501.32146335956844
501.3214459292739
501.3214284882426
501.3214110364974
501.3213935740616
501.32137610095805
501.32135861720957
501.3213411228389
501.3213236178685
501.3213061023211
501.3212885762193
501.3212710395855
501.3212534924423
501.32123593481236
501.32121836671826
501.32120078818247
501.3211831992273
501.321165599875
501.32114799014784
501.32113037006815
501.3211127396582
501.32109509894025
501.32107744793683
501.3210597866702
501.3210421151627
501.32102443343655
501.3210067415143
501.32098903941863
501.32097132717234
501.32095360479815
501.3209358723188
501.32091812975676
501.3209003771346
501.3208826144748
501.3208648418001
501.3208470591334
501.3208292664978
501.3208114639164
501.32079365141243
501.32077582900905
501.3207579967297
501.3207401545978
501.32072230263697
501.3207044408709
501.3206865693234
501.3206686880182
501.3206507969789
501.32063289622914
501.32061498579236
501.32059706569174
501.3205791359505
501.32056119659154
501.3205432476379
501.3205252891125
501.3205073210385
501.32048934343896
501.32047135633655
501.320453359754
501.3204353537141
501.32041733823957
501.3203993133531
501.3203812790775
501.3203632354354
501.32034518244944
501.32032712014205
501.320309048536
501.32029096765376
501.3202728775179
501.32025477815085
501.3202366695752
501.3202185518134
501.320200424888
501.3201822888215
501.3201641436364
501.32014598935524
501.32012782600026
501.32010965359376
501.320091472158
501.32007328171557
501.3200550822889
501.3200368739005
501.3200186565729
501.3200004303289
501.31998219519113
501.3199639511824
501.31994569832517
501.31992743664176
501.31990916615445
501.3198908868855
501.3198725988572
501.31985430209187
501.31983599661174
501.3198176824391
501.31979935959674
501.31978102810734
501.31976268799366
501.31974433927843
501.3197259819846
501.3197076161352
501.31968924175334
501.319670858862
501.3196524674842
501.3196340676429
501.31961565936075
501.31959724266056
501.31957881756483
501.31956038409606
501.31954194227677
501.3195234921297
501.3195050336778
501.319486566944
501.31946809195114
501.31944960872187
501.31943111727895
501.3194126176451
501.31939410984336
501.3193755938966
501.31935706982784
501.31933853766026
501.31931999741704
501.3193014491216
501.31928289279716
501.31926432846666
501.31924575615284
501.31922717587844
501.3192085876662
501.31918999153885
501.31917138751936
501.3191527756307
501.3191341558958
501.3191155283377
501.3190968929793
501.3190782498438
501.3190595989542
501.3190409403334
501.3190222740047
501.31900359999116
501.3189849183163
501.3189662290035
501.3189475320764
501.3189288275584
501.31891011547276
501.3188913958426
501.3188726686912
501.31885393404167
501.3188351919168
501.3188164423395
501.31879768533275
501.3187789209193
501.3187601491217
501.3187413699624
501.3187225834642
501.31870378964976
501.31868498854186
501.318666180163
501.3186473645355
501.31862854168156
501.31860971162354
501.3185908743837
501.3185720299843
501.31855317844787
501.3185343197969
501.31851545405374
501.31849658124037
501.3184777013791
501.3184588144922
501.31843992060175
501.3184210197298
501.31840211189837
501.31838319712955
501.31836427544516
501.31834534686703
501.318326411417
501.31830746911686
501.31828851998847
501.31826956405365
501.3182506013342
501.31823163185203
501.31821265562866
501.31819367268594
501.3181746830457
501.31815568672977
501.31813668375975
501.31811767415724
501.31809865794384
501.31807963514115
501.31806060577077
501.3180415698541
501.31802252741244
501.318003478467
501.3179844230389
501.31796536114933
501.3179462928196
501.31792721807113
501.31790813692504
501.31788904940225
501.31786995552346
501.31785085530936
501.31783174878063
501.3178126359582
501.31779351686276
501.3177743915148
501.3177552599345
501.31773612214187
501.31771697815697
501.31769782799955
501.3176786716892
501.3176595092452
501.31764034068686
501.3176211660336
501.3176019853044
501.31758279851846
501.3175636056946
501.3175444068515
501.31752520200797
501.31750599118294
501.31748677439504
501.3174675516629
501.31744832300495
501.31742908843984
501.3174098479862
501.3173906016627
501.3173713494877
501.3173520914799
501.3173328276577
501.31731355803953
501.3172942826438
501.3172750014889
501.3172557145935
501.3172364219765
501.3172171236569
501.31719781965415
501.3171785099875
501.3171591946761
501.3171398737392
501.3171205471967
501.31710121506825
501.31708187737394
501.3170625341335
501.3170431853668
501.3170238310933
501.3170044713324
501.3169851061036
501.3169657354262
501.3169463593194
501.31692697780244
501.3169075908947
501.31688819861546
501.3168688009841
501.3168493980201
501.3168299897431
501.3168105761726
501.31679115732817
501.31677173322913
501.3167523038948
501.31673286934455
501.3167134295974
501.3166939846723
501.31667453458834
501.31665507936435
501.316635619019
501.3166161535707
501.31659668303763
501.3165772074378
501.3165577267891
501.31653824110975
501.31651875041774
501.31649925473124
501.3164797540682
501.3164602484464
501.31644073788374
501.3164212223982
501.3164017020078
501.3163821767309
501.3163626465859
501.31634311159127
501.3163235717654
501.3163040271267
501.3162844776936
501.31626492348454
501.31624536451767
501.3162258008112
501.31620623238354
501.3161866592531
501.3161670814383
501.31614749895783
501.3161279118303
501.31610832007453
501.31608872370947
501.31606912275396
501.31604951722665
501.3160299071462
501.31601029253073
501.3159906733985
501.3159710497677
501.3159514216565
501.3159317890833
501.31591215206635
501.31589251062354
501.31587286477287
501.3158532145323
501.3158335599198
501.3158139009533
501.3157942376503
501.31577457002817
501.3157548981041
501.3157352218954
501.3157155414196
501.31569585669394
501.3156761677355
501.3156564745613
501.31563677718844
501.31561707563395
501.3155973699149
501.3155776600483
501.315557946051
501.31553822794007
501.31551850573254
501.315498779445
501.3154790490941
501.31545931469617
501.3154395762676
501.3154198338245
501.315400087383
501.31538033695955
501.31536058257046
501.3153408242321
501.3153210619607
501.31530129577203
501.31528152568234
501.3152617517075
501.31524197386324
501.315222192165
501.315202406628
501.3151826172672
501.31516282409774
501.3151430271343
501.3151232263912
501.3151034218826
501.31508361362256
501.3150638016254
501.3150439859057
501.3150241664777
501.31500434335584
501.3149845165544
501.31496468608765
501.31494485196976
501.31492501421457
501.31490517283595
501.314885327848
501.31486547926505
501.3148456271012
501.31482577137075
501.31480591208805
501.3147860492674
501.3147661829234
501.31474631307054
501.3147264397234
501.31470656289633
501.3146866826036
501.31466679885983
501.3146469116795
501.314627021077
501.31460712706684
501.3145872296636
501.31456732888176
501.3145474247362
501.31452751724163
501.31450760641263
501.31448769226375
501.3144677748093
501.31444785406364
501.31442793004106
501.3144080027559
501.31438807222247
501.3143681384549
501.314348201467
501.31432826127246
501.3143083178849
501.31428837131824
501.31426842158606
501.31424846870203
501.3142285126798
501.314208553533
501.31418859127524
501.31416862592
501.3141486574804
501.3141286859695
501.31410871140014
501.31408873378535
501.3140687531383
501.3140487694722
501.3140287828002
501.31400879313577
501.31398880049204
501.31396880488245
501.3139488063204
501.31392880481957
501.3139088003938
501.31388879305695
501.3138687828227
501.31384876970486
501.3138287537176
501.3138087348747
501.3137887131899
501.3137686886766
501.31374866134814
501.313728631218
501.31370859829957
501.3136885626065
501.31366852415243
501.313648482951
501.31362843901564
501.31360839236
501.31358834299766
501.3135682909421
501.3135482362065
501.31352817880355
501.31350811874603
501.3134880560464
501.31346799071724
501.313447922771
501.3134278522202
501.3134077790775
501.3133877033558
501.31336762506766
501.3133475442257
501.31332746084234
501.31330737493016
501.31328728650186
501.31326719556995
501.31324710214693
501.3132270062451
501.31320690787646
501.3131868070531
501.3131667037871
501.3131465980902
501.3131264899741
501.3131063794503
501.31308626653
501.31306615122406
501.31304603354346
501.31302591349885
501.3130057911009
501.31298566636036
501.3129655392881
501.3129454098948
501.31292527819113
501.3129051441876
501.3128850078944
501.3128648693218
501.3128447284798
501.31282458537834
501.3128044400275
501.312784292437
501.31276414261646
501.31274399057537
501.3127238363233
501.31270367987
501.3126835212253
501.3126633603992
501.31264319740166
501.3126230322427
501.31260286493233
501.31258269548056
501.3125625238974
501.3125423501928
501.31252217437685
501.3125019964595
501.31248181645077
501.31246163436043
501.3124414501985
501.31242126397495
501.3124010756996
501.31238088538197
501.31236069303185
501.312340498659
501.312320302273
501.3123001038834
501.3122799034995
501.31225970113036
501.3122394967849
501.3122192904722
501.3121990822014
501.31217887198153
501.3121586598217
501.31213844573125
501.3121182297197
501.31209801179665
501.3120777919714
501.31205757025344
501.31203734665263
501.31201712117894
501.3119968938419
501.3119766646511
501.3119564336161
501.3119362007464
501.31191596605134
501.31189572954025
501.31187549122245
501.31185525110726
501.311835009204
501.311814765522
501.31179452007035
501.31177427285814
501.31175402389425
501.31173377318777
501.3117135207478
501.31169326658363
501.31167301070485
501.311652753121
501.3116324938414
501.31161223287535
501.311591970232
501.31157170592036
501.31155143994937
501.3115311723281
501.31151090306565
501.3114906321709
501.31147035965245
501.31145008551874
501.31142980977796
501.3114095324385
501.31138925350837
501.31136897299547
501.3113486909073
501.31132840725144
501.3113081220353
501.3112878352667
501.31126754695305
501.31124725710214
501.31122696572123
501.3112066728176
501.31118637839876
501.3111660824722
501.3111457850454
501.31112548612595
501.31110518572126
501.3110848838389
501.31106458048606
501.3110442756701
501.31102396939804
501.31100366167715
501.3109833525147
501.3109630419182
501.310942729895
501.31092241645223
501.31090210159704
501.3108817853367
501.3108614676782
501.3108411486284
501.31082082819415
501.310800506382
501.3107801831986
501.31075985865044
501.310739532744
501.31071920548555
501.31069887688153
501.31067854693805
501.3106582156608
501.3106378830557
501.31061754912884
501.3105972138862
501.31057687733363
501.3105565394771
501.31053620032225
501.3105158598748
501.3104955181406
501.31047517512565
501.310454830836
501.3104344852779
501.3104141384576
501.3103937903813
501.3103734410549
501.3103530904843
501.3103327386752
501.31031238563327
501.310292031364
501.310271675873
501.31025131916607
501.3102309612488
501.3102106021267
501.3101902418052
501.3101698802895
501.3101495175849
501.31012915369655
501.31010878863
501.3100884223906
501.3100680549837
501.3100476864142
501.31002731668667
501.31000694580547
501.3099865737749
501.30996620059926
501.30994582628267
501.309925450829
501.30990507424184
501.30988469652465
501.30986431768105
501.30984393771445
501.30982355662803
501.309803174425
501.3097827911085
501.3097624066817
501.3097420211479
501.30972163451014
501.3097012467719
501.3096808579366
501.3096604680076
501.30964007698816
501.3096196848816
501.30959929169165
501.3095788974219
501.30955850207596
501.3095381056575
501.30951770816995
501.30949730961646
501.3094769100002
501.30945650932443
501.30943610759226
501.30941570480667
501.3093953009706
501.30937489608704
501.3093544901589
501.3093340831894
501.3093136751817
501.30929326613904
501.3092728560643
501.30925244496024
501.3092320328296
501.30921161967507
501.3091912054994
501.30917079030536
501.3091503740956
501.30912995687294
501.30910953864026
501.3090891194003
501.3090686991556
501.30904827790863
501.30902785566167
501.30900743241676
501.30898700817596
501.3089665829411
501.3089461567137
501.3089257294957
501.3089053012888
501.3088848720949
501.3088644419158
501.30884401075326
501.3088235786092
501.30880314548534
501.30878271138357
501.3087622763057
501.3087418402535
501.30872140322884
501.3087009652333
501.30868052626846
501.3086600863357
501.3086396454366
501.30861920357273
501.3085987607457
501.30857831695715
501.3085578722084
501.308537426501
501.3085169798364
501.3084965322161
501.3084760836418
501.308455634115
501.3084351836373
501.30841473221034
501.3083942798359
501.30837382651583
501.30835337225216
501.3083329170467
501.30831246090105
501.3082920038168
501.30827154579555
501.3082510868389
501.3082306269484
501.30821016612543
501.3081897043714
501.3081692416876
501.3081487780757
501.3081283135372
501.30810784807403
501.3080873816877
501.3080669143796
501.3080464461513
501.3080259770042
501.30800550693965
501.30798503595923
501.3079645640643
501.3079440912563
501.30792361753646
501.307903142906
501.3078826673661
501.307862190918
501.3078417135634
501.30782123530383
501.3078007561409
501.30778027607624
501.30775979511117
501.30773931324705
501.30771883048527
501.3076983468272
501.3076778622744
501.30765737682844
501.3076368904912
501.3076164032647
501.30759591515124
501.3075754261528
501.30755493627174
501.3075344455105
501.3075139538716
501.3074934613575
501.3074729679708
501.3074524737137
501.30743197858845
501.3074114825976
501.30739098574344
501.3073704880282
501.30734998945417
501.3073294900234
501.3073089897377
501.3072884885991
501.3072679866097
501.30724748377173
501.30722698008725
501.3072064755581
501.30718597018625
501.30716546397383
501.3071449569231
501.3071244490365
501.3071039403166
501.3070834307661
501.30706292038775
501.307042409184
501.3070218971572
501.30700138430956
501.3069808706434
501.3069603561609
501.30693984086423
501.30691932475537
501.3068988078364
501.30687829010907
501.30685777157504
501.30683725223565
501.3068167320925
501.3067962111474
501.3067756894024
501.30675516685955
501.30673464352066
501.30671411938755
501.3066935944623
501.3066730687469
501.30665254224317
501.30663201495275
501.306611486877
501.306590958017
501.30657042837396
501.30654989794874
501.3065293667425
501.30650883475636
501.30648830199146
501.30646776844895
501.30644723412973
501.3064266990345
501.3064061631639
501.3063856265184
501.3063650890985
501.30634455090484
501.30632401193833
501.30630347219966
501.3062829316895
501.30626239040834
501.3062418483566
501.30622130553496
501.30620076194435
501.3061802175857
501.3061596724596
501.3061391265666
501.3061185799074
501.3060980324828
501.306077484294
501.30605693534216
501.30603638562815
501.3060158351529
501.3059952839173
501.3059747319223
501.30595417916874
501.3059336256578
501.3059130713909
501.3058925163695
501.3058719605953
501.3058514040701
501.3058308467959
501.30581028877504
501.30578973000996
501.3057691705032
501.30574861025724
501.3057280492746
501.30570748755775
501.305686925109
501.30566636193083
501.3056457980255
501.3056252333951
501.30560466804144
501.3055841019663
501.30556353517176
501.30554296765985
501.3055223994324
501.3055018304912
501.3054812608379
501.30546069047404
501.3054401194012
501.30541954762083
501.30539897513444
501.30537840194364
501.3053578280505
501.305337253457
501.3053166781653
501.30529610217735
501.30527552549546
501.3052549481221
501.3052343700596
501.3052137913102
501.3051932118762
501.3051726317596
501.3051520509625
501.30513146948687
501.3051108873348
501.3050903045084
501.3050697210094
501.30504913683984
501.30502855200183
501.30500796649716
501.30498738032765
501.3049667934951
501.3049462060014
501.304925617848
501.30490502903666
501.3048844395691
501.3048638494474
501.3048432586733
501.3048226672485
501.3048020751748
501.30478148245396
501.30476088908785
501.30474029507803
501.3047197004261
501.3046991051339
501.30467850920326
501.3046579126357
501.3046373154329
501.3046167175966
501.3045961191287
501.3045755200307
501.30455492030427
501.30453431995096
501.3045137189724
501.3044931173701
501.30447251514596
501.304451912302
501.30443130884026
501.3044107047628
501.3043901000719
501.3043694947698
501.3043488888588
501.30432828234115
501.30430767521915
501.30428706749507
501.3042664591712
501.30424585024997
501.30422524073373
501.3042046306247
501.30418401992523
501.3041634086375
501.30414279676364
501.30412218430564
501.3041015712658
501.3040809576466
501.3040603434503
501.30403972867924
501.30401911333587
501.3039984974229
501.3039778809429
501.3039572638981
501.30393664629077
501.3039160281232
501.3038954093974
501.30387479011546
501.30385417027964
501.30383354989243
501.3038129289561
501.303792307473
501.3037716854455
501.30375106287596
501.30373043976687
501.30370981612094
501.3036891919409
501.3036685672295
501.30364794198925
501.3036273162226
501.30360668993256
501.3035860631223
501.3035654357947
501.3035448079526
501.3035241795987
501.3035035507357
501.3034829213663
501.30346229149285
501.3034416611176
501.30342103024253
501.30340039887
501.30337976700247
501.3033591346427
501.3033385017931
501.3033178684563
501.30329723463495
501.3032766003318
501.30325596554957
501.30323533029076
501.3032146945579
501.3031940583532
501.303173421679
501.30315278453753
501.3031321469311
501.30311150886195
501.30309087033237
501.30307023134463
501.30304959190124
501.3030289520047
501.3030083116575
501.30298767086236
501.3029670296216
501.3029463879374
501.30292574581193
501.3029051032474
501.3028844602458
501.3028638168095
501.302843172941
501.30282252864225
501.3028018839154
501.3027812387624
501.3027605931856
501.3027399471875
501.3027193007701
501.30269865393547
501.30267800668565
501.3026573590227
501.30263671094843
501.30261606246466
501.302595413573
501.302574764275
501.30255411457205
501.3025334644655
501.302512813957
501.3024921630485
501.3024715117421
501.30245086003987
501.3024302079438
501.3024095554562
501.30238890257937
501.3023682493153
501.30234759566605
501.30232694163345
501.3023062872193
501.3022856324255
501.30226497725374
501.3022443217057
501.30222366578295
501.30220300948685
501.302182352819
501.30216169578097
501.3021410383744
501.3021203806008
501.30209972246183
501.3020790639593
501.3020584050948
501.3020377458699
501.3020170862862
501.3019964263453
501.301975766049
501.30195510539914
501.30193444439755
501.30191378304625
501.3018931213475
501.30187245930364
501.3018517969169
501.3018311341895
501.30181047112404
501.30178980772297
501.301769143989
501.3017484799249
501.30172781553387
501.301707150819
501.3016864857836
501.30166582043074
501.3016451547639
501.30162448878644
501.3016038225016
501.3015831559125
501.3015624890224
501.30154182183463
501.3015211543529
501.301500486581
501.30147981852264
501.3014591501812
501.30143848155984
501.30141781266155
501.3013971434895
501.3013764740471
501.30135580433756
501.30133513436425
501.3013144641308
501.3012937936409
501.3012731228982
501.30125245190624
501.3012317806685
501.3012111091884
501.30119043746953
501.30116976551534
501.301149093329
501.3011284209137
501.3011077482724
501.301087075408
501.3010664023238
501.30104572902286
501.30102505550843
501.30100438178346
501.3009837078509
501.3009630337137
501.3009423593746
501.3009216848363
501.3009010101013
501.30088033517194
501.30085966005043
501.3008389847393
501.30081830924104
501.3007976335577
501.3007769576913
501.3007562816435
501.30073560541535
501.3007149290085
501.30069425242453
501.30067357566526
501.3006528987325
501.30063222162806
501.3006115443538
501.3005908669115
501.30057018930296
501.3005495115303
501.3005288335957
501.3005081555015
501.30048747725
501.3004667988434
501.3004461202842
501.300425441575
501.30040476271796
501.3003840837154
501.3003634045696
501.30034272528286
501.3003220458574
501.30030136629574
501.3002806866006
501.300260006775
501.3002393268218
501.30021864674376
501.30019796654364
501.3001772862237
501.3001566057864
501.30013592523454
501.3001152445708
501.3000945637977
501.3000738829175
501.3000532019327
501.30003252084583
501.30001183965936
501.2999911583758
501.29997047699766
501.2999497955274
501.2999291139676
501.2999084323207
501.299887750589
501.2998670687752
501.29984638688205
501.29982570491205
501.2998050228677
501.2997843407515
501.2997636585657
501.29974297631287
501.2997222939952
501.29970161161503
501.2996809291748
501.2996602466771
501.29963956412433
501.29961888151905
501.2995981988635
501.29957751616
501.29955683341103
501.2995361506191
501.2995154677869
501.29949478491716
501.2994741020124
501.29945341907563
501.29943273610974
501.2994120531177
501.2993913701022
501.2993706870661
501.2993500040122
501.29932932094374
501.29930863786393
501.29928795477593
501.2992672716827
501.29924658858744
501.29922590549353
501.29920522240417
501.2991845393223
501.29916385625114
501.29914317319384
501.29912249015337
501.2991018071329
501.29908112413585
501.2990604411654
501.2990397582245
501.29901907531615
501.2989983924435
501.2989777096099
501.29895702681887
501.2989363440735
501.2989156613775
501.29889497873495
501.2988742961499
501.2988536136267
501.29883293116944
501.29881224878244
501.2987915664698
501.2987708842356
501.2987502020837
501.29872952001773
501.29870883804114
501.2986881561573
501.29866747436944
501.2986467926807
501.2986261110943
501.2986054296136
501.2985847482418
501.2985640669821
501.2985433858377
501.298522704812
501.2985020239084
501.2984813431305
501.298460662482
501.2984399819665
501.2984193015879
501.29839862135026
501.29837794125746
501.29835726131336
501.2983365815216
501.29831590188604
501.29829522241033
501.2982745430981
501.298253863953
501.29823318497887
501.2982125061798
501.29819182755995
501.29817114912333
501.2981504708743
