512.3576359701742
512.3581110894586
512.3585863569681
512.3590617726713
512.359537336537
512.3600130485338
512.3604889086309
512.3609649167975
512.3614410730022
512.361917377214
512.3623938294015
512.3628704295334
512.3633471775781
512.3638240735045
512.364301117281
512.3647783088763
512.3652556482589
512.3657331353966
512.3662107702576
512.3666885528098
512.3671664830213
512.3676445608601
512.3681227862944
512.3686011592927
512.369079679823
512.3695583478534
512.3700371633515
512.3705161262851
512.3709952366219
512.3714744943297
512.3719538993771
512.3724334517326
512.3729131513646
512.3733929982413
512.3738729923311
512.3743531336027
512.3748334220245
512.3753138575655
512.3757944401946
512.3762751698807
512.3767560465931
512.3772370703007
512.3777182409726
512.3781995585782
512.3786810230868
512.3791626344675
512.3796443926901
512.380126297724
512.3806083495385
512.3810905481027
512.3815728933855
512.3820553853557
512.3825380239819
512.3830208092322
512.383503741075
512.3839868194782
512.3844700444101
512.3849534158389
512.3854369337325
512.3859205980589
512.3864044087857
512.3868883658802
512.3873724693094
512.3878567190402
512.3883411150393
512.3888256572734
512.3893103457092
512.3897951803131
512.3902801610511
512.390765287889
512.3912505607923
512.3917359797258
512.3922215446541
512.3927072555423
512.3931931123552
512.3936791150579
512.3941652636149
512.3946515579905
512.3951379981488
512.3956245840538
512.3961113156702
512.3965981929623
512.3970852158945
512.3975723844314
512.3980596985375
512.3985471581773
512.3990347633155
512.3995225139172
512.4000104099475
512.4004984513715
512.4009866381543
512.4014749702615
512.4019634476585
512.4024520703113
512.4029408381853
512.4034297512462
512.4039188094596
512.404408012791
512.4048973612059
512.4053868546694
512.4058764931463
512.4063662766018
512.4068562050008
512.4073462783078
512.4078364964876
512.4083268595045
512.4088173673231
512.4093080199073
512.4097988172209
512.4102897592279
512.4107808458923
512.411272077178
512.4117634530487
512.4122549734684
512.4127466384007
512.4132384478091
512.4137304016576
512.4142224999098
512.4147147425292
512.4152071294795
512.4156996607244
512.4161923362271
512.4166851559512
512.4171781198602
512.4176712279177
512.4181644800874
512.4186578763329
512.4191514166175
512.4196451009047
512.4201389291579
512.4206329013409
512.4211270174176
512.4216212773517
512.4221156811072
512.422610228648
512.4231049199377
512.4235997549404
512.4240947336198
512.4245898559398
512.4250851218644
512.4255805313578
512.4260760843842
512.426571780908
512.4270676208935
512.4275636043051
512.4280597311072
512.4285560012636
512.4290524147384
512.4295489714955
512.4300456714986
512.4305425147115
512.431039501098
512.4315366306221
512.4320339032479
512.4325313189395
512.4330288776607
512.4335265793757
512.4340244240484
512.434522411643
512.4350205421233
512.435518815453
512.4360172315958
512.4365157905158
512.437014492177
512.4375133365429
512.4380123235769
512.4385114532422
512.4390107255022
512.4395101403202
512.4400096976597
512.4405093974838
512.4410092397554
512.4415092244378
512.4420093514939
512.4425096208865
512.4430100325785
512.4435105865323
512.4440112827101
512.4445121210745
512.4450131015876
512.4455142242116
512.4460154889082
512.446516895639
512.4470184443653
512.4475201350485
512.4480219676498
512.4485239421299
512.4490260584498
512.4495283165706
512.4500307164537
512.4505332580604
512.4510359413521
512.45153876629
512.4520417328356
512.4525448409499
512.4530480905942
512.4535514817289
512.4540550143151
512.4545586883137
512.4550625036857
512.455566460392
512.4560705583935
512.456574797651
512.4570791781248
512.4575836997751
512.4580883625617
512.4585931664444
512.4590981113827
512.459603197336
512.460108424264
512.4606137921262
512.4611193008823
512.4616249504918
512.4621307409145
512.4626366721104
512.4631427440395
512.4636489566619
512.4641553099377
512.4646618038269
512.4651684382891
512.4656752132839
512.4661821287705
512.4666891847075
512.4671963810538
512.467703717768
512.4682111948086
512.4687188121338
512.4692265697017
512.4697344674705
512.4702425053983
512.4707506834432
512.4712590015627
512.471767459715
512.4722760578584
512.4727847959509
512.4732936739506
512.4738026918153
512.4743118495026
512.47482114697
512.4753305841755
512.475840161077
512.4763498776331
512.4768597338016
512.4773697295404
512.4778798648074
512.4783901395597
512.4789005537541
512.4794111073475
512.4799218002963
512.4804326325568
512.4809436040846
512.4814547148358
512.4819659647667
512.4824773538339
512.4829888819938
512.4835005492027
512.4840123554168
512.484524300592
512.4850363846847
512.4855486076503
512.4860609694447
512.4865734700231
512.4870861093409
512.487598887353
512.4881118040144
512.4886248592798
512.4891380531037
512.4896513854405
512.4901648562443
512.4906784654688
512.491192213068
512.4917060989958
512.4922201232064
512.492734285654
512.493248586293
512.4937630250774
512.4942776019614
512.4947923168991
512.4953071698451
512.4958221607542
512.4963372895813
512.4968525562815
512.4973679608092
512.4978835031193
512.4983991831668
512.4989150009073
512.4994309562962
512.4999470492892
512.5004632798416
512.5009796479089
512.5014961534466
512.5020127964099
512.5025295767541
512.5030464944348
512.5035635494071
512.5040807416265
512.5045980710481
512.505115537627
512.505633141318
512.5061508820759
512.5066687598558
512.5071867746126
512.5077049263018
512.5082232148784
512.5087416402971
512.5092602025129
512.509778901481
512.5102977371569
512.5108167094959
512.5113358184535
512.5118550639854
512.5123744460473
512.5128939645947
512.5134136195834
512.5139334109692
512.5144533387081
512.5149734027555
512.515493603067
512.5160139395985
512.5165344123059
512.5170550211456
512.5175757660741
512.5180966470477
512.5186176640227
512.5191388169551
512.5196601058005
512.5201815305152
512.5207030910551
512.5212247873762
512.5217466194347
512.5222685871863
512.5227906905866
512.5233129295907
512.5238353041539
512.524357814231
512.524880459777
512.5254032407465
512.5259261570945
512.5264492087763
512.526972395747
512.5274957179618
512.5280191753754
512.5285427679426
512.5290664956176
512.5295903583551
512.5301143561096
512.5306384888354
512.5311627564865
512.5316871590171
512.5322116963814
512.5327363685337
512.5332611754284
512.5337861170194
512.5343111932607
512.534836404106
512.5353617495093
512.5358872294239
512.5364128438034
512.5369385926019
512.537464475773
512.5379904932704
512.5385166450474
512.5390429310571
512.5395693512532
512.5400959055892
512.5406225940183
512.5411494164937
512.5416763729686
512.5422034633959
512.5427306877286
512.5432580459196
512.5437855379218
512.544313163688
512.544840923171
512.5453688163236
512.5458968430987
512.5464250034493
512.5469532973284
512.5474817246891
512.5480102854842
512.5485389796668
512.5490678071897
512.5495967680058
512.550125862068
512.550655089329
512.5511844497419
512.5517139432598
512.5522435698363
512.5527733294252
512.5533032219805
512.5538332474559
512.5543634058054
512.5548936969824
512.5554241209406
512.5559546776335
512.5564853670144
512.5570161890366
512.5575471436532
512.5580782308175
512.5586094504829
512.559140802603
512.5596722871314
512.5602039040216
512.5607356532266
512.5612675347002
512.5617995483958
512.562331694267
512.5628639722668
512.5633963823482
512.5639289244637
512.5644615985659
512.5649944046077
512.5655273425418
512.5660604123213
512.5665936138992
512.5671269472284
512.5676604122621
512.568194008953
512.5687277372544
512.5692615971193
512.5697955885007
512.5703297113516
512.570863965625
512.5713983512742
512.5719328682526
512.5724675165134
512.5730022960097
512.5735372066945
512.5740722485209
512.5746074214424
512.5751427254124
512.5756781603848
512.5762137263132
512.5767494231511
512.5772852508521
512.5778212093696
512.578357298657
512.5788935186679
512.5794298693561
512.579966350675
512.5805029625781
512.5810397050186
512.5815765779498
512.5821135813251
512.5826507150975
512.5831879792204
512.5837253736465
512.5842628983291
512.5848005532214
512.585338338276
512.5858762534451
512.5864142986811
512.5869524739362
512.5874907791629
512.5880292143133
512.5885677793394
512.5891064741932
512.5896452988263
512.5901842531907
512.5907233372379
512.5912625509195
512.591801894187
512.5923413669923
512.5928809692869
512.5934207010223
512.59396056215
512.5945005526212
512.5950406723871
512.5955809213988
512.5961212996076
512.5966618069647
512.5972024434213
512.5977432089294
512.5982841034404
512.5988251269057
512.5993662792766
512.5999075605048
512.600448970542
512.6009905093399
512.6015321768505
512.6020739730252
512.6026158978159
512.6031579511744
512.6037001330524
512.6042424434015
512.6047848821731
512.6053274493183
512.6058701447885
512.6064129685351
512.6069559205098
512.6074990006643
512.6080422089501
512.6085855453182
512.6091290097199
512.6096726021065
512.6102163224289
512.6107601706381
512.6113041466847
512.6118482505194
512.6123924820924
512.612936841354
512.6134813282542
512.6140259427436
512.6145706847728
512.6151155542921
512.615660551252
512.6162056756032
512.6167509272964
512.6172963062818
512.6178418125094
512.6183874459293
512.6189332064919
512.6194790941477
512.6200251088469
512.6205712505403
512.6211175191784
512.6216639147121
512.6222104370922
512.6227570862688
512.6233038621926
512.6238507648143
512.624397794084
512.6249449499519
512.6254922323683
512.6260396412836
512.626587176648
512.6271348384116
512.627682626525
512.6282305409381
512.6287785816007
512.6293267484625
512.629875041473
512.6304234605818
512.6309720057384
512.6315206768923
512.6320694739929
512.63261839699
512.6331674458324
512.6337166204694
512.6342659208499
512.6348153469228
512.6353648986371
512.6359145759425
512.6364643787879
512.6370143071224
512.6375643608951
512.6381145400546
512.6386648445496
512.6392152743283
512.639765829339
512.6403165095298
512.6408673148487
512.6414182452436
512.6419693006621
512.6425204810519
512.64307178636
512.6436232165336
512.6441747715196
512.6447264512649
512.6452782557162
512.6458301848206
512.6463822385249
512.6469344167758
512.6474867195202
512.6480391467053
512.6485916982779
512.6491443741847
512.6496971743727
512.6502500987885
512.6508031473791
512.651356320091
512.6519096168715
512.6524630376678
512.6530165824267
512.6535702510955
512.6541240436211
512.6546779599507
512.6552320000314
512.6557861638103
512.6563404512342
512.6568948622503
512.6574493968058
512.6580040548479
512.6585588363241
512.6591137411822
512.6596687693695
512.6602239208339
512.6607791955232
512.6613345933852
512.6618901143675
512.6624457584176
512.6630015254832
512.6635574155121
512.6641134284516
512.6646695642492
512.6652258228519
512.6657822042071
512.666338708262
512.6668953349638
512.6674520842598
512.6680089560975
512.6685659504244
512.6691230671881
512.6696803063362
512.6702376678159
512.6707951515746
512.6713527575598
512.6719104857193
512.6724683360005
512.6730263083509
512.6735844027182
512.6741426190497
512.6747009572928
512.675259417395
512.6758179993035
512.6763767029656
512.6769355283286
512.6774944753397
512.6780535439461
512.6786127340954
512.6791720457352
512.6797314788134
512.6802910332779
512.6808507090759
512.6814105061551
512.6819704244626
512.6825304639456
512.6830906245507
512.6836509062246
512.6842113089137
512.684771832565
512.685332477125
512.6858932425403
512.6864541287568
512.6870151357209
512.6875762633786
512.6881375116761
512.6886988805604
512.689260369978
512.6898219798759
512.6903837102013
512.690945560902
512.6915075319257
512.69206962322
512.6926318347328
512.6931941664111
512.6937566182023
512.6943191900534
512.6948818819114
512.6954446937234
512.6960076254363
512.6965706769975
512.697133848354
512.6976971394529
512.698260550241
512.6988240806654
512.6993877306734
512.6999515002124
512.7005153892298
512.7010793976735
512.7016435254911
512.7022077726306
512.70277213904
512.7033366246674
512.7039012294608
512.7044659533685
512.7050307963384
512.7055957583184
512.7061608392562
512.7067260391
512.7072913577977
512.7078567952967
512.7084223515449
512.70898802649
512.7095538200801
512.7101197322627
512.7106857629847
512.7112519121931
512.7118181798351
512.7123845658577
512.7129510702086
512.7135176928352
512.7140844336855
512.714651292707
512.7152182698478
512.7157853650554
512.7163525782773
512.7169199094619
512.7174873585573
512.7180549255113
512.7186226102715
512.7191904127849
512.7197583329985
512.7203263708593
512.7208945263144
512.7214627993105
512.722031189795
512.7225996977147
512.7231683230166
512.7237370656476
512.7243059255547
512.7248749026851
512.7254439969856
512.7260132084034
512.726582536885
512.7271519823769
512.7277215448257
512.7282912241781
512.7288610203807
512.7294309333802
512.7300009631228
512.7305711095551
512.7311413726229
512.7317117522725
512.7322822484498
512.7328528611006
512.7334235901708
512.7339944356061
512.7345653973523
512.7351364753554
512.7357076695612
512.7362789799154
512.7368504063634
512.7374219488506
512.7379936073226
512.7385653817246
512.7391372720022
512.7397092781005
512.7402813999647
512.7408536375401
512.7414259907719
512.7419984596052
512.7425710439854
512.7431437438584
512.7437165591696
512.744289489865
512.7448625358902
512.7454356971909
512.7460089737128
512.7465823654015
512.7471558722025
512.7477294940609
512.7483032309217
512.7488770827299
512.7494510494303
512.7500251309675
512.7505993272862
512.7511736383308
512.7517480640458
512.7523226043759
512.7528972592654
512.7534720286587
512.7540469125001
512.7546219107335
512.7551970233023
512.7557722501501
512.7563475912198
512.7569230464537
512.7574986157942
512.7580742991836
512.7586500965642
512.7592260078782
512.7598020330672
512.7603781720732
512.7609544248376
512.7615307913024
512.7621072714098
512.762683865102
512.7632605723211
512.7638373930092
512.7644143271086
512.7649913745613
512.7655685353091
512.7661458092934
512.7667231964556
512.7673006967368
512.7678783100782
512.768456036421
512.7690338757061
512.7696118278745
512.7701898928669
512.7707680706242
512.7713463610871
512.7719247641962
512.7725032798917
512.7730819081139
512.7736606488033
512.7742395019
512.7748184673435
512.7753975450737
512.7759767350303
512.7765560371527
512.77713545138
512.7777149776514
512.7782946159059
512.7788743660822
512.7794542281185
512.7800342019532
512.7806142875238
512.7811944847676
512.7817747936219
512.7823552140235
512.7829357459091
512.7835163892157
512.7840971438804
512.7846780098398
512.7852589870306
512.7858400753898
512.7864212748545
512.7870025853613
512.7875840068464
512.7881655392462
512.7887471824965
512.7893289365334
512.7899108012928
512.7904927767108
512.7910748627241
512.791657059269
512.7922393662816
512.7928217836975
512.7934043114526
512.793986949483
512.7945696977249
512.7951525561139
512.7957355245853
512.7963186030747
512.7969017915175
512.7974850898495
512.7980684980066
512.7986520159247
512.7992356435393
512.7998193807857
512.8004032275994
512.8009871839158
512.8015712496708
512.8021554247998
512.8027397092383
512.8033241029214
512.8039086057843
512.8044932177622
512.8050779387904
512.8056627688038
512.8062477077376
512.806832755527
512.8074179121072
512.8080031774139
512.8085885513824
512.8091740339482
512.8097596250473
512.8103453246154
512.8109311325884
512.8115170489025
512.8121030734937
512.8126892062983
512.8132754472522
512.8138617962913
512.8144482533517
512.8150348183692
512.8156214912804
512.8162082720214
512.8167951605287
512.8173821567384
512.8179692605863
512.8185564720084
512.8191437909409
512.8197312173206
512.8203187510844
512.820906392169
512.8214941405113
512.8220819960477
512.8226699587146
512.8232580284489
512.8238462051872
512.8244344888662
512.8250228794222
512.8256113767916
512.8261999809104
512.8267886917147
512.8273775091404
512.8279664331235
512.8285554636
512.829144600506
512.8297338437774
512.8303231933501
512.8309126491599
512.8315022111428
512.8320918792347
512.8326816533713
512.8332715334891
512.8338615195239
512.8344516114112
512.8350418090863
512.835632112485
512.8362225215428
512.8368130361955
512.8374036563785
512.8379943820269
512.8385852130757
512.83917614946
512.8397671911143
512.8403583379736
512.8409495899728
512.841540947047
512.8421324091319
512.8427239761636
512.8433156480783
512.843907424812
512.8444993063008
512.8450912924807
512.8456833832872
512.8462755786559
512.8468678785216
512.8474602828194
512.8480527914842
512.848645404451
512.8492381216547
512.8498309430304
512.8504238685127
512.851016898036
512.8516100315346
512.852203268943
512.852796610196
512.8533900552286
512.8539836039756
512.8545772563725
512.8551710123543
512.8557648718561
512.8563588348129
512.8569529011597
512.8575470708317
512.8581413437641
512.8587357198921
512.8593301991509
512.8599247814757
512.8605194668016
512.8611142550642
512.861709146199
512.8623041401415
512.8628992368267
512.8634944361895
512.8640897381649
512.8646851426879
512.8652806496934
512.8658762591162
512.8664719708909
512.8670677849516
512.8676637012327
512.8682597196685
512.8688558401927
512.8694520627396
512.8700483872431
512.8706448136377
512.8712413418582
512.8718379718387
512.8724347035131
512.8730315368157
512.8736284716801
512.8742255080404
512.8748226458301
512.8754198849833
512.8760172254333
512.8766146671132
512.8772122099567
512.8778098538974
512.8784075988692
512.8790054448059
512.879603391641
512.8802014393084
512.8807995877419
512.8813978368748
512.8819961866409
512.8825946369734
512.883193187806
512.8837918390718
512.884390590704
512.8849894426357
512.8855883947999
512.8861874471295
512.8867865995576
512.8873858520174
512.8879852044417
512.8885846567641
512.8891842089179
512.8897838608366
512.8903836124537
512.8909834637025
512.8915834145166
512.8921834648299
512.8927836145767
512.8933838636913
512.8939842121076
512.8945846597599
512.8951852065825
512.89578585251
512.896386597477
512.8969874414179
512.8975883842672
512.8981894259593
512.8987905664285
512.899391805609
512.899993143435
512.9005945798408
512.9011961147605
512.9017977481285
512.9023994798788
512.9030013099455
512.9036032382623
512.9042052647633
512.9048073893816
512.905409612051
512.9060119327053
512.906614351278
512.9072168677026
512.9078194819122
512.9084221938397
512.9090250034178
512.9096279105793
512.910230915257
512.9108340173836
512.911437216892
512.9120405137148
512.9126439077854
512.9132473990373
512.9138509874042
512.9144546728196
512.9150584552171
512.9156623345305
512.9162663106931
512.9168703836388
512.917474553301
512.9180788196131
512.9186831825082
512.9192876419188
512.9198921977777
512.9204968500176
512.9211015985711
512.921706443371
512.92231138435
512.9229164214405
512.9235215545752
512.9241267836869
512.9247321087082
512.9253375295716
512.9259430462093
512.9265486585537
512.9271543665373
512.9277601700928
512.9283660691531
512.9289720636507
512.9295781535182
512.9301843386882
512.9307906190938
512.9313969946686
512.9320034653458
512.9326100310589
512.9332166917411
512.9338234473257
512.9344302977461
512.9350372429356
512.9356442828275
512.9362514173552
512.9368586464516
512.9374659700497
512.9380733880826
512.9386809004832
512.9392885071845
512.9398962081193
512.9405040032204
512.9411118924211
512.9417198756541
512.9423279528523
512.9429361239481
512.9435443888742
512.9441527475628
512.9447611999458
512.9453697459544
512.94597838552
512.9465871185739
512.9471959450475
512.9478048648721
512.9484138779787
512.9490229842982
512.949632183761
512.9502414762978
512.9508508618392
512.9514603403154
512.9520699116567
512.9526795757934
512.9532893326552
512.9538991821719
512.9545091242726
512.9551191588864
512.9557292859422
512.956339505369
512.9569498170958
512.9575602210516
512.9581707171656
512.958781305367
512.9593919855852
512.9600027577499
512.960613621791
512.9612245776384
512.9618356252215
512.9624467644699
512.9630579953132
512.9636693176813
512.9642807315042
512.9648922367123
512.9655038332357
512.9661155210047
512.9667272999493
512.9673391699998
512.967951131086
512.9685631831378
512.969175326085
512.9697875598572
512.970399884384
512.9710122995948
512.9716248054183
512.9722374017829
512.9728500886167
512.973462865848
512.9740757334048
512.9746886912153
512.9753017392077
512.9759148773103
512.9765281054515
512.9771414235602
512.9777548315653
512.9783683293958
512.9789819169807
512.9795955942491
512.9802093611302
512.9808232175535
512.9814371634484
512.9820511987446
512.9826653233717
512.9832795372599
512.9838938403391
512.9845082325394
512.9851227137913
512.9857372840256
512.9863519431733
512.9869666911654
512.9875815279331
512.9881964534072
512.9888114675189
512.9894265701992
512.990041761379
512.9906570409894
512.9912724089613
512.9918878652259
512.9925034097141
512.993119042357
512.9937347630853
512.9943505718302
512.994966468523
512.9955824530953
512.996198525479
512.9968146856065
512.9974309334095
512.9980472688196
512.9986636917681
512.9992802021861
512.999896800005
513.0005134851563
513.0011302575713
513.0017471171814
513.0023640639176
513.0029810977112
513.0035982184934
513.0042154261953
513.004832720748
513.0054501020825
513.0060675701293
513.0066851248189
513.0073027660819
513.007920493849
513.0085383080509
513.0091562086186
513.0097741954833
513.0103922685757
513.0110104278269
513.0116286731677
513.012247004529
513.0128654218411
513.0134839250345
513.0141025140395
513.0147211887866
513.0153399492065
513.0159587952296
513.016577726786
513.0171967438055
513.0178158462186
513.0184350339555
513.0190543069461
513.0196736651205
513.0202931084086
513.0209126367406
513.0215322500467
513.0221519482568
513.0227717313014
513.0233915991107
513.0240115516149
513.0246315887443
513.02525171043
513.0258719166027
513.0264922071935
513.0271125821337
513.0277330413537
513.0283535847843
513.0289742123562
513.0295949239999
513.0302157196461
513.0308365992257
513.0314575626694
513.0320786099078
513.032699740872
513.0333209554929
513.0339422537008
513.0345636354259
513.0351851005978
513.0358066491465
513.0364282810019
513.0370499960941
513.0376717943527
513.0382936757073
513.038915640087
513.0395376874208
513.0401598176375
513.0407820306659
513.0414043264348
513.0420267048721
513.0426491659059
513.0432717094641
513.0438943354748
513.0445170438666
513.0451398345685
513.0457627075102
513.0463856626213
513.0470086998316
513.0476318190708
513.0482550202687
513.048878303355
513.0495016682592
513.0501251149105
513.0507486432382
513.0513722531714
513.0519959446392
513.0526197175709
513.0532435718956
513.0538675075422
513.0544915244404
513.0551156225197
513.0557398017095
513.0563640619393
513.0569884031383
513.0576128252355
513.0582373281602
513.0588619118416
513.0594865762087
513.0601113211901
513.0607361467146
513.0613610527107
513.0619860391071
513.062611105832
513.0632362528136
513.0638614799796
513.0644867872579
513.0651121745761
513.0657376418617
513.0663631890422
513.0669888160453
513.0676145227981
513.0682403092283
513.0688661752638
513.0694921208326
513.0701181458621
513.0707442502799
513.0713704340128
513.0719966969882
513.0726230391333
513.0732494603756
513.0738759606425
513.0745025398617
513.0751291979614
513.0757559348694
513.0763827505139
513.0770096448223
513.077636617722
513.0782636691401
513.0788907990041
513.079518007241
513.0801452937783
513.0807726585435
513.0814001014646
513.0820276224695
513.082655221486
513.0832828984419
513.0839106532646
513.0845384858821
513.0851663962226
513.0857943842138
513.0864224497841
513.0870505928615
513.0876788133742
513.0883071112505
513.0889354864187
513.089563938807
513.090192468344
513.0908210749576
513.0914497585763
513.0920785191283
513.0927073565413
513.0933362707424
513.0939652616589
513.0945943292181
513.0952234733472
513.0958526939733
513.0964819910232
513.0971113644239
513.097740814102
513.0983703399845
513.098999941998
513.0996296200697
513.1002593741264
513.1008892040952
513.1015191099036
513.1021490914786
513.1027791487472
513.1034092816367
513.1040394900742
513.1046697739873
513.1053001333034
513.10593056795
513.1065610778546
513.1071916629444
513.1078223231466
513.1084530583887
513.1090838685977
513.1097147537005
513.1103457136232
513.1109767482926
513.1116078576351
513.1122390415771
513.1128703000445
513.1135016329631
513.1141330402588
513.1147645218575
513.1153960776851
513.1160277076676
513.1166594117312
513.1172911898025
513.1179230418079
513.1185549676743
513.1191869673285
513.1198190406976
513.1204511877095
513.1210834082924
513.1217157023752
513.122348069887
513.1229805107569
513.1236130249135
513.1242456122859
513.1248782728028
513.125511006393
513.1261438129854
513.1267766925084
513.1274096448901
513.1280426700589
513.1286757679432
513.1293089384712
513.1299421815716
513.1305754971725
513.1312088852023
513.1318423455893
513.1324758782614
513.1331094831467
513.1337431601733
513.1343769092691
513.1350107303622
513.1356446233804
513.1362785882516
513.1369126249035
513.1375467332641
513.1381809132613
513.1388151648225
513.1394494878757
513.1400838823486
513.1407183481688
513.1413528852638
513.1419874935609
513.1426221729876
513.1432569234714
513.14389174494
513.1445266373207
513.1451616005406
513.145796634527
513.1464317392065
513.1470669145056
513.1477021603505
513.1483374766676
513.1489728633828
513.1496083204217
513.15024384771
513.1508794451734
513.1515151127369
513.152150850326
513.1527866578663
513.153422535283
513.1540584825016
513.1546944994475
513.1553305860461
513.1559667422227
513.1566029679022
513.1572392630092
513.1578756274682
513.1585120612042
513.159148564142
513.1597851362064
513.1604217773222
513.1610584874138
513.1616952664058
513.1623321142231
513.1629690307905
513.1636060160326
513.1642430698744
513.1648801922402
513.1655173830543
513.1661546422406
513.1667919697234
513.1674293654264
513.1680668292734
513.168704361188
513.169341961094
513.1699796289149
513.1706173645744
513.1712551679957
513.1718930391021
513.1725309778167
513.1731689840626
513.173807057763
513.1744451988411
513.17508340722
513.1757216828228
513.176360025572
513.1769984353903
513.1776369121999
513.1782754559233
513.1789140664828
513.1795527438007
513.1801914877997
513.1808302984018
513.181469175529
513.1821081191028
513.1827471290455
513.1833862052792
513.1840253477267
513.18466455631
513.1853038309519
513.1859431715745
513.1865825781006
513.1872220504529
513.1878615885544
513.1885011923282
513.1891408616971
513.1897805965837
513.1904203969107
513.1910602626006
513.1917001935758
513.1923401897589
513.1929802510722
513.1936203774385
513.1942605687805
513.1949008250203
513.1955411460804
513.196181531883
513.1968219823507
513.1974624974057
513.1981030769703
513.1987437209666
513.1993844293172
513.2000252019443
513.2006660387701
513.2013069397171
513.2019479047078
513.2025889336646
513.2032300265096
513.2038711831647
513.2045124035517
513.2051536875924
513.2057950352091
513.206436446324
513.2070779208589
513.207719458735
513.2083610598738
513.209002724197
513.2096444516262
513.2102862420829
513.2109280954883
513.2115700117633
513.2122119908295
513.2128540326084
513.2134961370216
513.2141383039902
513.2147805334359
513.2154228252803
513.216065179445
513.2167075958514
513.2173500744207
513.2179926150739
513.2186352177323
513.2192778823173
513.21992060875
513.220563396952
513.2212062468448
513.2218491583499
513.2224921313887
513.2231351658822
513.2237782617517
513.2244214189177
513.2250646373006
513.225707916821
513.2263512573991
513.2269946589554
513.2276381214101
513.2282816446832
513.2289252286951
513.2295688733657
513.230212578615
513.230856344363
513.2315001705299
513.2321440570358
513.2327880038015
513.2334320107475
513.2340760777943
513.2347202048618
513.23536439187
513.2360086387389
513.2366529453884
513.2372973117381
513.2379417377078
513.2385862232172
513.2392307681857
513.2398753725329
513.2405200361784
513.241164759042
513.2418095410433
513.2424543821016
513.2430992821367
513.2437442410678
513.2443892588149
513.2450343352975
513.2456794704353
513.246324664148
513.246969916355
513.247615226976
513.2482605959306
513.2489060231385
513.2495515085197
513.2501970519941
513.250842653481
513.2514883128997
513.2521340301691
513.2527798052076
513.2534256379333
513.2540715282648
513.2547174761207
513.2553634814194
513.2560095440795
513.2566556640197
513.2573018411586
513.2579480754143
513.2585943667054
513.2592407149505
513.2598871200678
513.2605335819758
513.261180100593
513.2618266758379
513.2624733076286
513.2631199958832
513.2637667405202
513.264413541458
513.2650603986153
513.2657073119108
513.2663542812629
513.2670013065904
513.2676483878115
513.2682955248445
513.2689427176074
513.2695899660182
513.270237269995
513.2708846294563
513.2715320443206
513.2721795145067
513.2728270399339
513.2734746205215
513.2741222561885
513.2747699468541
513.2754176924373
513.2760654928572
513.2767133480336
513.2773612578858
513.2780092223334
513.2786572412956
513.279305314692
513.2799534424423
513.2806016244663
513.281249860684
513.2818981510159
513.2825464953814
513.2831948937005
513.2838433458928
513.2844918518786
513.2851404115781
513.285789024912
513.2864376918005
513.2870864121642
513.2877351859233
513.2883840129987
513.2890328933111
513.2896818267809
513.2903308133289
513.2909798528754
513.2916289453408
513.2922780906456
513.2929272887104
513.2935765394554
513.2942258428013
513.294875198668
513.2955246069755
513.2961740676437
513.2968235805924
513.2974731457412
513.2981227630091
513.2987724323154
513.2994221535791
513.3000719267193
513.3007217516545
513.3013716283033
513.3020215565844
513.3026715364163
513.3033215677174
513.3039716504063
513.3046217844017
513.305271969622
513.3059222059858
513.3065724934115
513.3072228318174
513.3078732211216
513.3085236612424
513.309174152098
513.3098246936065
513.3104752856862
513.311125928255
513.3117766212313
513.312427364533
513.3130781580785
513.3137290017858
513.314379895573
513.3150308393581
513.315681833059
513.3163328765936
513.3169839698799
513.3176351128359
513.3182863053798
513.3189375474299
513.3195888389041
513.3202401797212
513.3208915697996
513.3215430090581
513.3221944974152
513.3228460347896
513.3234976210997
513.3241492562643
513.3248009402018
513.325452672831
513.32610445407
513.3267562838371
513.3274081620505
513.3280600886287
513.32871206349
513.3293640865525
513.330016157734
513.3306682769526
513.331320444126
513.3319726591722
513.3326249220088
513.3332772325539
513.3339295907253
513.3345819964413
513.3352344496197
513.3358869501787
513.336539498036
513.3371920931088
513.3378447353143
513.3384974245696
513.3391501607916
513.3398029438972
513.3404557738031
513.3411086504261
513.341761573683
513.3424145434903
513.3430675597647
513.3437206224223
513.3443737313796
513.3450268865531
513.3456800878594
513.3463333352149
513.3469866285363
513.3476399677397
513.3482933527407
513.348946783455
513.3496002597981
513.3502537816862
513.3509073490357
513.3515609617625
513.3522146197827
513.352868323012
513.3535220713663
513.3541758647614
513.3548297031125
513.3554835863354
513.3561375143456
513.3567914870591
513.3574455043922
513.3580995662614
513.3587536725831
513.3594078232736
513.3600620182492
513.3607162574258
513.3613705407192
513.3620248680454
513.36267923932
513.3633336544585
513.3639881133768
513.3646426159908
513.3652971622164
513.3659517519691
513.3666063851642
513.3672610617168
513.3679157815418
513.3685705445541
513.3692253506686
513.3698801997998
513.3705350918626
513.3711900267717
513.3718450044416
513.3725000247866
513.373155087721
513.3738101931588
513.3744653410145
513.3751205312024
513.3757757636363
513.3764310382298
513.3770863548964
513.3777417135489
513.3783971141002
513.3790525564632
513.3797080405513
513.380363566278
513.3810191335567
513.3816747423011
513.3823303924246
513.3829860838405
513.3836418164619
513.3842975902021
513.3849534049741
513.3856092606907
513.3862651572649
513.38692109461
513.387577072639
513.3882330912652
513.3888891504016
513.3895452499614
513.3902013898578
513.3908575700038
513.3915137903127
513.3921700506976
513.3928263510711
513.393482691346
513.3941390714349
513.3947954912505
513.3954519507056
513.3961084497128
513.3967649881843
513.3974215660319
513.3980781831674
513.3987348395024
513.3993915349483
513.4000482694171
513.4007050428204
513.40136185507
513.4020187060778
513.402675595755
513.4033325240127
513.4039894907623
513.4046464959147
513.4053035393808
513.4059606210715
513.4066177408972
513.4072748987687
513.4079320945971
513.4085893282936
513.4092465997696
513.409903908936
513.4105612557041
513.4112186399852
513.4118760616911
513.4125335207334
513.4131910170236
513.413848550473
513.4145061209931
513.4151637284958
513.4158213728931
513.4164790540967
513.4171367720182
513.4177945265692
513.4184523176614
513.4191101452066
513.4197680091168
513.4204259093037
513.4210838456793
513.4217418181554
513.4223998266436
513.4230578710558
513.4237159513038
513.4243740672996
513.4250322189546
513.4256904061804
513.4263486288883
513.4270068869894
513.4276651803948
513.4283235090161
513.4289818727648
513.4296402715527
513.430298705292
513.430957173895
513.4316156772734
513.4322742153392
513.4329327880046
513.4335913951816
513.434250036782
513.4349087127175
513.4355674228996
513.4362261672395
513.4368849456487
513.4375437580384
513.4382026043199
513.4388614844047
513.439520398204
513.4401793456293
513.4408383265927
513.4414973410057
513.44215638878
513.4428154698267
513.4434745840574
513.4441337313833
513.4447929117152
513.445452124964
513.4461113710406
513.4467706498558
513.4474299613203
513.4480893053449
513.4487486818405
513.4494080907175
513.4500675318859
513.4507270052559
513.4513865107374
513.4520460482404
513.4527056176744
513.4533652189493
513.4540248519752
513.4546845166619
513.45534421292
513.4560039406599
513.4566636997927
513.4573234902296
513.4579833118819
513.4586431646612
513.4593030484789
513.4599629632462
513.4606229088743
513.4612828852739
513.4619428923556
513.4626029300298
513.4632629982066
513.4639230967964
513.4645832257097
513.4652433848566
513.4659035741474
513.4665637934927
513.4672240428033
513.4678843219901
513.4685446309641
513.4692049696359
513.4698653379169
513.4705257357175
513.4711861629485
513.4718466195204
513.4725071053442
513.4731676203305
513.4738281643902
513.4744887374345
513.4751493393746
513.4758099701214
513.4764706295855
513.4771313176775
513.4777920343081
513.4784527793879
513.479113552828
513.4797743545391
513.4804351844318
513.4810960424168
513.4817569284044
513.4824178423053
513.4830787840306
513.4837397534911
513.4844007505978
513.4850617752616
513.4857228273934
513.4863839069042
513.4870450137053
513.4877061477077
513.4883673088225
513.4890284969601
513.4896897120313
513.490350953947
513.4910122226179
513.4916735179554
513.4923348398709
513.4929961882758
513.4936575630813
513.4943189641986
513.4949803915388
513.4956418450133
513.4963033245331
513.4969648300089
513.4976263613521
513.4982879184745
513.4989495012878
513.4996111097039
513.5002727436349
513.5009344029927
513.501596087689
513.5022577976356
513.5029195327443
513.5035812929268
513.5042430780948
513.5049048881594
513.5055667230317
513.5062285826225
513.5068904668428
513.5075523756036
513.5082143088152
513.5088762663881
513.5095382482327
513.5102002542594
513.5108622843786
513.5115243385007
513.512186416536
513.512848518395
513.5135106439889
513.5141727932291
513.5148349660274
513.5154971622951
513.5161593819439
513.5168216248853
513.5174838910307
513.5181461802913
513.5188084925783
513.5194708278027
513.5201331858757
513.5207955667086
513.5214579702124
513.5221203962976
513.5227828448747
513.5234453158539
513.5241078091462
513.5247703246623
513.5254328623128
513.5260954220082
513.5267580036593
513.527420607177
513.528083232472
513.5287458794553
513.529408548038
513.5300712381309
513.5307339496446
513.5313966824901
513.532059436578
513.5327222118194
513.5333850081252
513.5340478254061
513.5347106635732
513.5353735225369
513.5360364022083
513.5366993024977
513.5373622233155
513.5380251645722
513.5386881261782
513.5393511080435
513.5400141100788
513.5406771321939
513.5413401742985
513.5420032363022
513.5426663181147
513.5433294196455
513.5439925408036
513.5446556814982
513.5453188416382
513.5459820211327
513.5466452198907
513.5473084378214
513.5479716748332
513.5486349308349
513.5492982057349
513.5499614994419
513.5506248118647
513.5512881429122
513.5519514924931
513.5526148605163
513.5532782468908
513.5539416515257
513.5546050743305
513.5552685152147
513.5559319740876
513.5565954508584
513.5572589454359
513.5579224577291
513.5585859876469
513.5592495350986
513.559913099994
513.5605766822428
513.5612402817546
513.5619038984394
513.5625675322062
513.5632311829645
513.5638948506235
513.5645585350921
513.5652222362796
513.5658859540947
513.5665496884458
513.5672134392407
513.5678772063875
513.5685409897942
513.5692047893685
513.5698686050184
513.5705324366518
513.5711962841765
513.5718601475005
513.5725240265319
513.5731879211794
513.5738518313515
513.5745157569565
513.575179697903
513.5758436540989
513.576507625452
513.5771716118702
513.5778356132614
513.5784996295338
513.5791636605952
513.5798277063532
513.5804917667149
513.5811558415876
513.5818199308783
513.5824840344935
513.5831481523401
513.5838122843243
513.5844764303522
513.58514059033
513.5858047641634
513.5864689517584
513.5871331530207
513.5877973678557
513.5884615961695
513.5891258378679
513.5897900928567
513.5904543610422
513.5911186423305
513.5917829366276
513.5924472438396
513.5931115638723
513.5937758966315
513.594440242023
513.5951045999518
513.595768970323
513.5964333530419
513.5970977480142
513.5977621551456
513.5984265743414
513.5990910055068
513.5997554485471
513.6004199033678
513.601084369875
513.6017488479752
513.602413337574
513.603077838578
513.6037423508933
513.6044068744261
513.6050714090823
513.6057359547676
513.6064005113881
513.6070650788497
513.6077296570586
513.6083942459209
513.6090588453426
513.6097234552303
513.6103880754904
513.6110527060291
513.6117173467533
513.6123819975701
513.6130466583872
513.6137113291124
513.6143760096529
513.6150406999159
513.615705399809
513.6163701092396
513.6170348281148
513.6176995563419
513.6183642938281
513.6190290404809
513.6196937962079
513.6203585609164
513.6210233345134
513.6216881169062
513.6223529080016
513.623017707707
513.6236825159299
513.6243473325776
513.6250121575576
513.6256769907773
513.6263418321439
513.6270066815646
513.6276715389458
513.6283364041942
513.629001277216
513.6296661579177
513.6303310462054
513.6309959419855
513.6316608451643
513.632325755648
513.6329906733429
513.6336555981552
513.6343205299911
513.6349854687564
513.6356504143573
513.6363153667
513.6369803256912
513.6376452912373
513.6383102632453
513.6389752416221
513.6396402262744
513.6403052171095
513.6409702140347
513.6416352169576
513.6423002257854
513.6429652404258
513.6436302607867
513.6442952867758
513.644960318301
513.6456253552697
513.6462903975889
513.646955445166
513.6476204979085
513.6482855557244
513.6489506185221
513.6496156862095
513.6502807586946
513.6509458358858
513.651610917691
513.6522760040186
513.6529410947771
513.6536061898751
513.6542712892212
513.6549363927245
513.6556015002934
513.6562666118364
513.6569317272615
513.6575968464767
513.65826196939
513.6589270959089
513.6595922259407
513.6602573593932
513.6609224961737
513.6615876361902
513.6622527793511
513.6629179255647
513.6635830747391
513.6642482267821
513.6649133816013
513.6655785391044
513.6662436991994
513.6669088617941
513.6675740267963
513.6682391941138
513.6689043636547
513.6695695353269
513.6702347090377
513.6708998846943
513.6715650622045
513.672230241476
513.6728954224163
513.6735606049335
513.6742257889355
513.6748909743296
513.675556161023
513.6762213489228
513.6768865379358
513.6775517279686
513.6782169189282
513.6788821107211
513.6795473032539
513.6802124964329
513.6808776901648
513.6815428843563
513.6822080789138
513.682873273744
513.6835384687533
513.6842036638484
513.6848688589362
513.6855340539241
513.6861992487193
513.6868644432288
513.6875296373601
513.6881948310202
513.6888600241168
513.689525216558
513.6901904082517
513.690855599106
513.6915207890293
513.6921859779297
513.6928511657159
513.6935163522958
513.6941815375776
513.6948467214695
513.6955119038794
513.6961770847154
513.6968422638854
513.6975074412971
513.6981726168578
513.6988377904745
513.6995029620539
513.7001681315028
513.7008332987275
513.7014984636344
513.7021636261293
513.7028287861181
513.7034939435061
513.7041590981989
513.7048242501019
513.7054893991203
513.7061545451602
513.7068196881273
513.7074848279274
513.7081499644664
513.7088150976508
513.7094802273866
513.71014535358
513.7108104761369
513.7114755949638
513.7121407099667
513.7128058210517
513.7134709281254
513.7141360310943
513.714801129865
513.715466224344
513.7161313144379
513.7167964000532
513.7174614810965
513.7181265574741
513.7187916290918
513.7194566958556
513.7201217576712
513.7207868144442
513.7214518660799
513.7221169124834
513.7227819535601
513.7234469892151
513.7241120193535
513.7247770438805
513.7254420627016
513.7261070757222
513.7267720828477
513.7274370839832
513.728102079034
513.7287670679052
513.7294320505018
513.7300970267293
513.7307619964927
513.731426959697
513.7320919162473
513.7327568660485
513.7334218090057
513.7340867450243
513.7347516740101
513.7354165958686
513.7360815105058
513.7367464178271
513.7374113177384
513.7380762101452
513.7387410949536
513.7394059720698
513.7400708414002
513.7407357028519
513.7414005563323
513.7420654017492
513.7427302390101
513.7433950680229
513.7440598886953
513.7447247009352
513.7453895046501
513.7460542997478
513.7467190861362
513.7473838637234
513.748048632418
513.7487133921286
513.7493781427634
513.7500428842309
513.7507076164402
513.7513723393004
513.7520370527204
513.7527017566094
513.753366450876
513.7540311354285
513.7546958101752
513.7553604750244
513.7560251298842
513.7566897746624
513.757354409267
513.7580190336057
513.7586836475862
513.7593482511165
513.760012844105
513.7606774264598
513.7613419980896
513.7620065589031
513.762671108809
513.7633356477158
513.7640001755321
513.7646646921662
513.7653291975262
513.7659936915202
513.7666581740568
513.7673226450447
513.767987104392
513.7686515520068
513.7693159877972
513.7699804116714
513.7706448235374
513.7713092233028
513.7719736108752
513.7726379861622
513.7733023490714
513.7739666995108
513.7746310373882
513.7752953626118
513.7759596750902
513.776623974732
513.7772882614458
513.7779525351402
513.7786167957238
513.7792810431051
513.7799452771924
513.7806094978935
513.7812737051163
513.7819378987688
513.782602078759
513.783266244995
513.7839303973847
513.7845945358363
513.7852586602585
513.7859227705599
513.786586866649
513.7872509484343
513.787915015824
513.7885790687255
513.7892431070468
513.7899071306956
513.7905711395797
513.7912351336067
513.7918991126844
513.79256307672
513.7932270256201
513.7938909592913
513.7945548776397
513.7952187805718
513.7958826679935
513.7965465398115
513.7972103959319
513.7978742362607
513.7985380607042
513.7992018691684
513.7998656615594
513.8005294377833
513.8011931977462
513.8018569413541
513.8025206685134
513.80318437913
513.8038480731104
513.8045117503611
513.8051754107887
513.8058390542997
513.8065026808008
513.8071662901991
513.8078298824021
513.8084934573167
513.8091570148499
513.8098205549088
513.8104840774004
513.8111475822311
513.8118110693072
513.8124745385344
513.8131379898186
513.813801423066
513.8144648381831
513.8151282350766
513.8157916136531
513.816454973819
513.8171183154807
513.8177816385448
513.8184449429182
513.819108228508
513.8197714952216
513.8204347429664
513.8210979716494
513.8217611811774
513.8224243714571
513.8230875423951
513.8237506938983
513.8244138258738
513.8250769382284
513.8257400308694
513.8264031037038
513.8270661566389
513.8277291895815
513.8283922024384
513.8290551951163
513.8297181675221
513.8303811195628
513.8310440511459
513.8317069621785
513.8323698525678
513.8330327222213
513.8336955710463
513.8343583989499
513.8350212058392
513.8356839916212
513.8363467562026
513.8370094994898
513.8376722213893
513.8383349218075
513.8389976006508
513.8396602578264
513.8403228932414
513.8409855068028
513.8416480984176
513.8423106679929
513.8429732154357
513.8436357406531
513.8442982435522
513.8449607240404
513.8456231820253
513.8462856174137
513.8469480301128
513.8476104200295
513.8482727870705
513.8489351311432
513.849597452155
513.8502597500128
513.8509220246237
513.8515842758948
513.8522465037329
513.8529087080451
513.8535708887384
513.8542330457199
513.8548951788966
513.8555572881762
513.8562193734665
513.856881434675
513.8575434717086
513.8582054844746
513.8588674728805
513.8595294368338
513.8601913762418
513.8608532910123
513.8615151810527
513.862177046271
513.8628388865745
513.8635007018706
513.8641624920667
513.8648242570703
513.865485996789
513.8661477111305
513.8668094000022
513.8674710633113
513.8681327009649
513.8687943128702
513.8694558989346
513.8701174590651
513.8707789931689
513.8714405011526
513.8721019829231
513.8727634383872
513.8734248674516
513.8740862700231
513.8747476460085
513.8754089953145
513.876070317848
513.8767316135159
513.8773928822256
513.8780541238848
513.878715338401
513.8793765256819
513.880037685635
513.8806988181673
513.8813599231858
513.8820210005974
513.8826820503091
513.883343072228
513.8840040662615
513.8846650323171
513.8853259703028
513.8859868801262
513.8866477616953
513.8873086149174
513.8879694397001
513.888630235951
513.8892910035777
513.889951742487
513.8906124525861
513.8912731337821
513.8919337859825
513.892594409095
513.8932550030279
513.8939155676894
513.8945761029877
513.8952366088306
513.8958970851259
513.8965575317811
513.8972179487041
513.8978783358025
513.898538692984
513.8991990201562
513.8998593172269
513.9005195841037
513.9011798206941
513.9018400269056
513.902500202646
513.9031603478234
513.903820462345
513.9044805461183
513.9051405990504
513.9058006210485
513.9064606120196
513.9071205718708
513.907780500509
513.9084403978413
513.9091002637751
513.9097600982179
513.9104199010771
513.9110796722603
513.9117394116745
513.9123991192268
513.9130587948241
513.913718438373
513.9143780497807
513.915037628954
513.9156971758002
513.9163566902273
513.9170161721427
513.9176756214536
513.9183350380672
513.9189944218908
513.9196537728321
513.920313090799
513.9209723756992
513.9216316274403
513.9222908459299
513.9229500310753
513.9236091827843
513.9242683009643
513.9249273855226
513.9255864363663
513.9262454534028
513.9269044365387
513.9275633856812
513.9282223007376
513.9288811816155
513.9295400282222
513.930198840465
513.9308576182507
513.9315163614865
513.9321750700797
513.9328337439374
513.9334923829672
513.9341509870765
513.9348095561731
513.9354680901649
513.9361265889593
513.9367850524638
513.9374434805861
513.9381018732338
513.9387602303148
513.9394185517367
513.9400768374071
513.9407350872334
513.9413933011233
513.9420514789845
513.9427096207248
513.9433677262521
513.9440257954743
513.9446838282997
513.9453418246367
513.9459997843937
513.9466577074795
513.9473155938026
513.9479734432716
513.9486312557951
513.9492890312818
513.9499467696403
513.9506044707796
513.9512621346089
513.9519197610375
513.952577349975
513.9532349013307
513.9538924150138
513.9545498909331
513.9552073289974
513.9558647291153
513.9565220911959
513.957179415148
513.9578367008805
513.9584939483027
513.9591511573235
513.9598083278524
513.960465459799
513.9611225530728
513.9617796075831
513.9624366232392
513.9630935999503
513.9637505376259
513.9644074361756
513.9650642955098
513.9657211155381
513.9663778961708
513.9670346373177
513.9676913388894
513.9683480007961
513.9690046229482
513.9696612052562
513.9703177476308
513.9709742499826
513.9716307122221
513.9722871342597
513.9729435160057
513.9735998573706
513.9742561582646
513.9749124185978
513.9755686382807
513.9762248172235
513.9768809553361
513.9775370525285
513.9781931087109
513.9788491237937
513.9795050976868
513.9801610303002
513.9808169215439
513.9814727713278
513.9821285795624
513.982784346158
513.9834400710251
513.9840957540741
513.9847513952154
513.9854069943592
513.9860625514157
513.986718066295
513.9873735389074
513.9880289691628
513.9886843569711
513.989339702242
513.9899950048848
513.9906502648089
513.9913054819233
513.9919606561366
513.9926157873572
513.9932708754934
513.9939259204534
513.9945809221454
513.9952358804771
513.9958907953569
513.9965456666928
513.9972004943925
513.9978552783634
513.9985100185133
513.9991647147499
513.9998193669808
514.0004739751139
514.0011285390569
514.0017830587176
514.0024375340035
514.0030919648225
514.0037463510821
514.0044006926901
514.0050549895541
514.0057092415818
514.006363448681
514.0070176107588
514.0076717277223
514.0083257994784
514.0089798259341
514.0096338069966
514.0102877425729
514.0109416325702
514.0115954768953
514.0122492754551
514.0129030281564
514.0135567349059
514.0142103956102
514.0148640101761
514.0155175785101
514.0161711005187
514.0168245761088
514.0174780051871
514.0181313876606
514.0187847234365
514.0194380124221
514.0200912545247
514.0207444496518
514.0213975977115
514.022050698612
514.0227037522614
514.0233567585674
514.024009717438
514.0246626287817
514.0253154925067
514.0259683085214
514.026621076734
514.0272737970524
514.0279264693845
514.028579093638
514.0292316697205
514.02988419754
514.0305366770044
514.0311891080216
514.0318414904998
514.0324938243466
514.0331461094697
514.0337983457771
514.0344505331768
514.0351026715766
514.035754760884
514.0364068010065
514.0370587918519
514.0377107333279
514.038362625342
514.0390144678015
514.039666260614
514.0403180036874
514.0409696969298
514.0416213402498
514.042272933556
514.042924476757
514.0435759697612
514.0442274124769
514.0448788048125
514.0455301466764
514.0461814379769
514.0468326786222
514.0474838685204
514.0481350075793
514.048786095706
514.0494371328077
514.0500881187918
514.0507390535656
514.0513899370367
514.0520407691124
514.0526915497003
514.0533422787075
514.0539929560418
514.0546435816111
514.0552941553233
514.0559446770862
514.0565951468079
514.057245564396
514.0578959297582
514.0585462428021
514.059196503435
514.0598467115638
514.0604968670953
514.0611469699365
514.0617970199949
514.0624470171779
514.0630969613933
514.0637468525488
514.0643966905518
514.0650464753098
514.0656962067303
514.0663458847205
514.0669955091876
514.0676450800383
514.0682945971798
514.0689440605188
514.0695934699615
514.0702428254144
514.0708921267842
514.0715413739772
514.0721905668997
514.0728397054581
514.0734887895587
514.0741378191076
514.0747867940106
514.0754357141736
514.0760845795025
514.0767333899032
514.0773821452813
514.0780308455423
514.0786794905921
514.0793280803359
514.0799766146797
514.0806250935293
514.0812735167906
514.0819218843694
514.0825701961717
514.0832184521032
514.0838666520697
514.0845147959769
514.0851628837308
514.0858109152368
514.0864588904001
514.0871068091258
514.0877546713186
514.0884024768832
514.0890502257239
514.0896979177451
514.0903455528507
514.0909931309448
514.0916406519307
514.0922881157121
514.0929355221926
514.0935828712761
514.0942301628661
514.094877396866
514.0955245731791
514.0961716917086
514.0968187523572
514.0974657550273
514.0981126996214
514.098759586042
514.0994064141914
514.1000531839718
514.1006998952848
514.1013465480326
514.101993142117
514.10263967744
514.1032861539038
514.1039325714105
514.1045789298623
514.1052252291615
514.1058714692103
514.1065176499108
514.1071637711652
514.1078098328762
514.1084558349462
514.1091017772778
514.1097476597745
514.1103934823395
514.1110392448763
514.1116849472883
514.1123305894782
514.1129761713487
514.1136216928021
514.1142671537411
514.1149125540685
514.1155578936873
514.1162031725007
514.1168483904116
514.1174935473234
514.1181386431394
514.1187836777628
514.119428651097
514.120073563045
514.1207184135096
514.1213632023932
514.1220079295986
514.1226525950283
514.1232971985853
514.1239417401723
514.1245862196924
514.1252306370491
514.1258749921453
514.1265192848846
514.1271635151704
514.1278076829067
514.1284517879972
514.1290958303457
514.1297398098561
514.1303837264322
514.1310275799781
514.1316713703977
514.1323150975948
514.1329587614728
514.1336023619351
514.1342458988845
514.1348893722238
514.1355327818562
514.1361761276848
514.136819409613
514.1374626275442
514.1381057813815
514.1387488710279
514.1393918963863
514.1400348573588
514.1406777538477
514.1413205857557
514.1419633529852
514.1426060554381
514.1432486930166
514.1438912656229
514.1445337731589
514.1451762155266
514.1458185926281
514.1464609043651
514.1471031506394
514.1477453313532
514.1483874464088
514.1490294957089
514.1496714791558
514.1503133966521
514.1509552481002
514.1515970334028
514.1522387524628
514.1528804051832
514.1535219914672
514.154163511218
514.1548049643388
514.1554463507327
514.1560876703027
514.1567289229515
514.1573701085824
514.1580112270985
514.1586522784028
514.1592932623976
514.1599341789856
514.1605750280692
514.1612158095502
514.1618565233312
514.162497169315
514.1631377474046
514.163778257503
514.1644186995138
514.1650590733407
514.1656993788874
514.1663396160584
514.166979784758
514.1676198848911
514.1682599163623
514.1688998790762
514.1695397729372
514.1701795978502
514.1708193537197
514.1714590404508
514.1720986579483
514.1727382061167
514.1733776848612
514.174017094087
514.1746564337
514.1752957036056
514.1759349037095
514.1765740339174
514.1772130941347
514.1778520842668
514.1784910042188
514.179129853896
514.1797686332034
514.1804073420458
514.181045980328
514.1816845479548
514.1823230448308
514.1829614708613
514.1835998259512
514.1842381100057
514.1848763229304
514.1855144646311
514.1861525350132
514.1867905339827
514.1874284614455
514.1880663173074
514.1887041014743
514.1893418138516
514.1899794543444
514.1906170228581
514.1912545192977
514.1918919435686
514.1925292955762
514.1931665752254
514.1938037824218
514.194440917071
514.1950779790786
514.1957149683503
514.196351884792
514.1969887283094
514.1976254988085
514.1982621961952
514.1988988203752
514.1995353712546
514.200171848739
514.2008082527345
514.2014445831462
514.2020808398797
514.2027170228407
514.2033531319348
514.2039891670679
514.2046251281458
514.2052610150747
514.2058968277606
514.2065325661097
514.207168230028
514.2078038194213
514.2084393341956
514.2090747742568
514.2097101395109
514.2103454298635
514.2109806452204
514.2116157854871
514.2122508505695
514.2128858403732
514.2135207548044
514.2141555937692
514.2147903571738
514.2154250449248
514.2160596569288
514.2166941930918
514.2173286533202
514.2179630375206
514.2185973455994
514.2192315774632
514.2198657330187
514.220499812172
514.22113381483
514.2217677408996
514.222401590288
514.223035362902
514.2236690586487
514.2243026774349
514.2249362191671
514.2255696837519
514.226203071096
514.2268363811058
514.2274696136876
514.2281027687477
514.2287358461922
514.2293688459272
514.2300017678592
514.2306346118949
514.2312673779411
514.2319000659052
514.2325326756945
514.2331652072166
514.233797660379
514.2344300350892
514.2350623312545
514.235694548782
514.2363266875786
514.2369587475514
514.2375907286073
514.2382226306534
514.2388544535968
514.2394861973446
514.2401178618036
514.240749446881
514.2413809524842
514.2420123785209
514.2426437248987
514.2432749915247
514.2439061783059
514.2445372851494
514.2451683119621
514.2457992586512
514.2464301251241
514.2470609112879
514.2476916170499
514.2483222423175
514.2489527869984
514.2495832510001
514.25021363423
514.2508439365956
514.2514741580042
514.2521042983626
514.252734357578
514.253364335558
514.2539942322101
514.2546240474417
514.2552537811603
514.2558834332735
514.2565130036892
514.2571424923149
514.2577718990583
514.2584012238274
514.25903046653
514.2596596270741
514.2602887053677
514.2609177013182
514.2615466148336
514.2621754458214
514.2628041941894
514.2634328598451
514.264061442696
514.264689942649
514.2653183596112
514.2659466934892
514.2665749441903
514.2672031116217
514.2678311956902
514.268459196303
514.2690871133677
514.2697149467924
514.2703426964849
514.2709703623532
514.2715979443051
514.2722254422488
514.2728528560924
514.2734801857446
514.2741074311143
514.2747345921107
514.2753616686427
514.2759886606195
514.2766155679503
514.2772423905442
514.2778691283102
514.2784957811573
514.2791223489949
514.2797488317319
514.280375229278
514.2810015415423
514.2816277684337
514.2822539098615
514.282879965735
514.2835059359631
514.2841318204551
514.2847576191198
514.2853833318666
514.2860089586045
514.2866344992428
514.2872599536911
514.2878853218583
514.2885106036538
514.289135798987
514.2897609077672
514.2903859299036
514.291010865305
514.2916357138809
514.2922604755399
514.2928851501911
514.2935097377429
514.2941342381032
514.2947586511798
514.2953829768805
514.2960072151136
514.2966313657871
514.297255428809
514.2978794040869
514.2985032915285
514.2991270910411
514.2997508025319
514.3003744259081
514.300997961077
514.3016214079462
514.3022447664234
514.3028680364164
514.303491217833
514.3041143105816
514.3047373145705
514.3053602297084
514.3059830559037
514.3066057930641
514.3072284410978
514.3078509999127
514.3084734694171
514.309095849519
514.3097181401263
514.3103403411465
514.3109624524868
514.3115844740546
514.312206405757
514.3128282475013
514.3134499991952
514.3140716607463
514.3146932320624
514.3153147130511
514.3159361036201
514.3165574036766
514.3171786131284
514.3177997318833
514.3184207598492
514.3190416969346
514.3196625430485
514.3202832980996
514.3209039619969
514.3215245346494
514.3221450159663
514.3227654058569
514.3233857042305
514.3240059109967
514.3246260260644
514.3252460493425
514.3258659807398
514.3264858201651
514.3271055675273
514.3277252227354
514.3283447856986
514.3289642563263
514.329583634528
514.3302029202132
514.3308221132916
514.3314412136729
514.3320602212668
514.3326791359832
514.3332979577312
514.3339166864203
514.3345353219595
514.3351538642587
514.3357723132276
514.336390668776
514.3370089308132
514.3376270992487
514.3382451739917
514.3388631549515
514.3394810420368
514.3400988351568
514.3407165342205
514.341334139137
514.3419516498147
514.3425690661625
514.3431863880883
514.3438036155005
514.3444207483076
514.3450377864176
514.3456547297387
514.3462715781789
514.3468883316464
514.3475049900494
514.3481215532959
514.3487380212937
514.3493543939508
514.3499706711748
514.3505868528732
514.3512029389533
514.3518189293222
514.3524348238873
514.3530506225552
514.353666325233
514.3542819318277
514.3548974422465
514.3555128563967
514.3561281741854
514.35674339552
514.3573585203076
514.3579735484552
514.3585884798704
514.3592033144607
514.3598180521337
514.3604326927966
514.3610472363566
514.3616616827212
514.362276031798
514.3628902834946
514.3635044377183
514.3641184943772
514.3647324533788
514.3653463146311
514.365960078042
514.3665737435192
514.3671873109706
514.3678007803046
514.3684141514291
514.3690274242517
514.3696405986805
514.3702536746232
514.3708666519881
514.3714795306832
514.3720923106171
514.3727049916979
514.3733175738339
514.3739300569332
514.3745424409044
514.3751547256561
514.3757669110973
514.3763789971374
514.376990983686
514.3776028706525
514.3782146579456
514.378826345474
514.3794379331464
514.3800494208717
514.3806608085588
514.3812720961164
514.3818832834536
514.3824943704797
514.3831053571041
514.3837162432369
514.3843270287882
514.384937713668
514.3855482977863
514.3861587810529
514.386769163378
514.3873794446715
514.3879896248436
514.3885997038042
514.3892096814634
514.3898195577317
514.3904293325195
514.391039005737
514.3916485772947
514.3922580471035
514.3928674150739
514.3934766811162
514.394085845141
514.3946949070585
514.3953038667787
514.3959127242119
514.3965214792681
514.3971301318575
514.3977386818899
514.3983471292754
514.3989554739239
514.3995637157454
514.4001718546497
514.4007798905461
514.4013878233441
514.4019956529528
514.4026033792816
514.4032110022397
514.403818521736
514.4044259376794
514.4050332499794
514.4056404585453
514.406247563287
514.4068545641144
514.4074614609376
514.4080682536667
514.4086749422117
514.409281526483
514.4098880063905
514.4104943818438
514.4111006527528
514.4117068190276
514.4123128805786
514.4129188373163
514.4135246891512
514.4141304359941
514.4147360777556
514.4153416143465
514.4159470456777
514.4165523716599
514.4171575922041
514.4177627072218
514.4183677166243
514.4189726203233
514.4195774182303
514.420182110257
514.4207866963147
514.4213911763154
514.4219955501708
514.4225998177926
514.4232039790927
514.4238080339828
514.4244119823747
514.4250158241805
514.425619559312
514.4262231876814
514.4268267092007
514.4274301237815
514.4280334313357
514.4286366317751
514.4292397250119
514.4298427109584
514.4304455895262
514.4310483606273
514.4316510241733
514.4322535800766
514.4328560282495
514.4334583686045
514.4340606010542
514.4346627255106
514.4352647418862
514.435866650093
514.4364684500433
514.4370701416497
514.4376717248247
514.438273199481
514.4388745655315
514.4394758228887
514.4400769714653
514.4406780111742
514.4412789419284
514.4418797636408
514.4424804762245
514.443081079593
514.4436815736594
514.4442819583373
514.4448822335403
514.4454823991819
514.4460824551754
514.4466824014344
514.4472822378721
514.4478819644019
514.4484815809371
514.449081087392
514.4496804836804
514.4502797697169
514.4508789454158
514.4514780106915
514.4520769654584
514.4526758096304
514.4532745431213
514.4538731658454
514.4544716777168
514.4550700786499
514.4556683685591
514.4562665473595
514.4568646149664
514.4574625712951
514.4580604162607
514.4586581497783
514.4592557717633
514.4598532821306
514.460450680795
514.4610479676712
514.4616451426737
514.4622422057171
514.462839156716
514.4634359955853
514.4640327222401
514.4646293365954
514.4652258385663
514.4658222280677
514.4664185050151
514.467014669324
514.4676107209102
514.4682066596893
514.4688024855768
514.4693981984885
514.46999379834
514.470589285047
514.4711846585255
514.4717799186917
514.4723750654618
514.4729700987523
514.4735650184796
514.4741598245598
514.4747545169093
514.4753490954442
514.4759435600804
514.4765379107334
514.4771321473188
514.4777262697517
514.4783202779468
514.4789141718186
514.4795079512821
514.4801016162523
514.4806951666442
514.4812886023726
514.4818819233526
514.4824751294993
514.483068220728
514.4836611969542
514.4842540580939
514.4848468040627
514.4854394347763
514.4860319501499
514.4866243500985
514.4872166345367
514.4878088033788
514.4884008565391
514.4889927939316
514.4895846154704
514.4901763210696
514.4907679106427
514.4913593841038
514.4919507413674
514.492541982348
514.4931331069602
514.4937241151183
514.4943150067368
514.4949057817303
514.4954964400131
514.4960869814995
514.4966774061036
514.4972677137393
514.4978579043213
514.498447977764
514.4990379339822
514.4996277728906
514.5002174944036
514.5008070984359
514.5013965849021
514.5019859537172
514.5025752047964
514.5031643380551
514.5037533534087
514.5043422507731
514.5049310300642
514.5055196911981
514.5061082340903
514.5066966586564
514.5072849648118
514.507873152472
514.5084612215533
514.5090491719711
514.5096370036413
514.5102247164789
514.5108123103996
514.5113997853191
514.5119871411525
514.5125743778149
514.5131614952211
514.5137484932864
514.5143353719261
514.5149221310558
514.5155087705907
514.5160952904466
514.5166816905391
514.5172679707844
514.5178541310986
514.5184401713982
514.5190260915992
514.5196118916174
514.5201975713685
514.5207831307685
514.5213685697331
514.5219538881784
514.5225390860203
514.5231241631752
514.5237091195597
514.5242939550908
514.5248786696857
514.5254632632614
514.5260477357349
514.5266320870237
514.5272163170448
514.527800425715
514.5283844129513
514.5289682786704
514.5295520227892
514.5301356452242
514.5307191458917
514.5313025247078
514.5318857815887
514.5324689164502
514.5330519292079
514.5336348197775
514.5342175880746
514.5348002340147
514.5353827575132
514.5359651584849
514.536547436845
514.5371295925079
514.5377116253883
514.5382935354014
514.5388753224624
514.5394569864868
514.5400385273904
514.540619945089
514.5412012394991
514.541782410537
514.5423634581196
514.5429443821631
514.5435251825843
514.5441058592996
514.5446864122255
514.5452668412784
514.5458471463753
514.5464273274333
514.5470073843699
514.5475873171022
514.5481671255477
514.5487468096239
514.5493263692483
514.5499058043379
514.5504851148094
514.5510643005796
514.5516433615653
514.5522222976833
514.5528011088504
514.5533797949834
514.5539583559989
514.5545367918139
514.5551151023451
514.5556932875093
514.5562713472227
514.5568492814023
514.5574270899651
514.558004772829
514.5585823299116
514.5591597611306
514.5597370664036
514.5603142456487
514.5608912987836
514.5614682257269
514.5620450263971
514.5626217007125
514.5631982485918
514.5637746699535
514.5643509647166
514.5649271327998
514.5655031741223
514.5660790886034
514.5666548761619
514.567230536717
514.5678060701875
514.5683814764925
514.568956755551
514.569531907282
514.5701069316046
514.570681828438
514.5712565977012
514.5718312393137
514.5724057531945
514.5729801392622
514.5735543974354
514.5741285276322
514.5747025297708
514.5752764037693
514.5758501495461
514.5764237670201
514.5769972561102
514.5775706167358
514.5781438488159
514.5787169522696
514.5792899270159
514.5798627729735
514.5804354900611
514.5810080781978
514.5815805373029
514.5821528672957
514.5827250680954
514.5832971396214
514.5838690817927
514.5844408945286
514.5850125777481
514.5855841313705
514.5861555553151
514.5867268495012
514.5872980138483
514.5878690482764
514.5884399527054
514.5890107270552
514.5895813712459
514.5901518851974
514.5907222688295
514.5912925220618
514.5918626448142
514.5924326370064
514.5930024985578
514.5935722293884
514.5941418294183
514.5947112985675
514.5952806367563
514.595849843905
514.5964189199335
514.5969878647625
514.5975566783122
514.598125360503
514.5986939112549
514.5992623304883
514.5998306181232
514.6003987740801
514.6009667982792
514.6015346906406
514.6021024510846
514.6026700795314
514.603237575901
514.6038049401132
514.604372172088
514.6049392717453
514.6055062390046
514.6060730737859
514.6066397760087
514.6072063455931
514.6077727824584
514.6083390865242
514.6089052577104
514.6094712959366
514.6100372011224
514.6106029731873
514.6111686120512
514.6117341176341
514.612299489856
514.6128647286369
514.6134298338968
514.6139948055559
514.614559643534
514.6151243477516
514.6156889181289
514.6162533545858
514.6168176570425
514.6173818254192
514.6179458596357
514.6185097596117
514.6190735252671
514.6196371565215
514.6202006532944
514.6207640155055
514.6213272430746
514.6218903359213
514.6224532939655
514.623016117127
514.6235788053259
514.6241413584826
514.6247037765174
514.6252660593514
514.6258282069052
514.6263902190999
514.626952095856
514.6275138370943
514.6280754427353
514.6286369126997
514.6291982469083
514.6297594452819
514.6303205077415
514.6308814342078
514.6314422246012
514.6320028788418
514.6325633968497
514.6331237785448
514.6336840238475
514.6342441326778
514.634804104956
514.6353639406016
514.6359236395342
514.6364832016732
514.6370426269377
514.6376019152476
514.6381610665221
514.6387200806803
514.6392789576412
514.6398376973239
514.6403962996474
514.6409547645308
514.6415130918931
514.642071281653
514.642629333729
514.6431872480398
514.6437450245044
514.6443026630418
514.6448601635714
514.6454175260124
514.645974750284
514.6465318363057
514.6470887839969
514.6476455932768
514.6482022640653
514.6487587962818
514.6493151898464
514.64987144468
514.6504275607026
514.650983537834
514.6515393759939
514.6520950751019
514.6526506350772
514.6532060558388
514.6537613373057
514.6543164793966
514.6548714820306
514.6554263451267
514.6559810686035
514.65653565238
514.6570900963743
514.6576444005048
514.6581985646894
514.6587525888467
514.6593064728954
514.6598602167546
514.6604138203436
514.6609672835816
514.661520606388
514.6620737886819
514.6626268303828
514.6631797314103
514.6637324916844
514.6642851111249
514.6648375896511
514.6653899271828
514.6659421236398
514.6664941789422
514.6670460930102
514.6675978657634
514.6681494971217
514.6687009870056
514.6692523353356
514.6698035420325
514.6703546070171
514.6709055302103
514.6714563115336
514.6720069509083
514.6725574482562
514.6731078034989
514.6736580165584
514.6742080873573
514.6747580158176
514.6753078018614
514.6758574454116
514.6764069463907
514.6769563047219
514.6775055203284
514.6780545931333
514.67860352306
514.6791523100314
514.6797009539707
514.680249454801
514.6807978124457
514.6813460268286
514.681894097873
514.6824420255025
514.6829898096403
514.68353745021
514.6840849471353
514.6846323003392
514.6851795097455
514.6857265752778
514.6862734968604
514.6868202744176
514.6873669078741
514.6879133971545
514.6884597421836
514.6890059428856
514.6895519991851
514.6900979110071
514.6906436782765
514.6911893009183
514.6917347788572
514.6922801120181
514.6928253003264
514.6933703437076
514.6939152420873
514.6944599953908
514.6950046035431
514.6955490664695
514.6960933840958
514.6966375563477
514.697181583151
514.6977254644316
514.6982692001161
514.6988127901307
514.6993562344019
514.6998995328563
514.7004426854205
514.7009856920217
514.7015285525872
514.7020712670442
514.7026138353197
514.7031562573402
514.7036985330324
514.7042406623227
514.7047826451378
514.7053244814044
514.7058661710496
514.7064077140003
514.7069491101838
514.7074903595276
514.7080314619589
514.7085724174049
514.7091132257929
514.7096538870501
514.7101944011033
514.7107347678798
514.7112749873068
514.7118150593114
514.7123549838211
514.712894760763
514.7134343900643
514.7139738716519
514.7145132054525
514.7150523913933
514.7155914294021
514.7161303194061
514.7166690613326
514.7172076551087
514.7177461006618
514.718284397919
514.7188225468076
514.7193605472544
514.7198983991864
514.720436102531
514.7209736572158
514.7215110631685
514.7220483203164
514.7225854285871
514.723122387908
514.7236591982064
514.7241958594095
514.7247323714444
514.7252687342379
514.7258049477168
514.7263410118076
514.7268769264372
514.7274126915327
514.727948307021
514.7284837728298
514.7290190888866
514.7295542551194
514.7300892714561
514.7306241378246
514.7311588541531
514.7316934203695
514.7322278364018
514.7327621021775
514.7332962176247
514.7338301826712
514.7343639972453
514.7348976612748
514.7354311746874
514.7359645374111
514.7364977493735
514.7370308105023
514.7375637207253
514.7380964799702
514.7386290881648
514.739161545237
514.7396938511147
514.7402260057256
514.740758008998
514.7412898608598
514.7418215612383
514.7423531100612
514.7428845072559
514.74341575275
514.7439468464713
514.744477788347
514.7450085783044
514.7455392162701
514.7460697021706
514.7466000359323
514.7471302174818
514.7476602467459
514.7481901236517
514.7487198481267
514.7492494200983
514.749778839494
514.7503081062409
514.7508372202665
514.751366181498
514.7518949898631
514.7524236452891
514.7529521477034
514.7534804970328
514.7540086932047
514.7545367361463
514.7550646257846
514.7555923620471
514.7561199448612
514.7566473741545
514.7571746498543
514.7577017718877
514.758228740182
514.7587555546643
514.7592822152619
514.7598087219021
514.7603350745119
514.7608612730182
514.7613873173482
514.7619132074287
514.7624389431869
514.7629645245502
514.7634899514455
514.7640152238002
514.7645403415415
514.7650653045966
514.7655901128933
514.7661147663589
514.766639264921
514.767163608507
514.7676877970441
514.7682118304599
514.7687357086816
514.7692594316363
514.7697829992512
514.7703064114532
514.7708296681699
514.7713527693286
514.7718757148566
514.772398504681
514.7729211387293
514.7734436169294
514.7739659392087
514.7744881054946
514.7750101157148
514.7755319697972
514.7760536676692
514.7765752092587
514.7770965944937
514.7776178233025
514.778138895613
514.778659811353
514.7791805704505
514.7797011728339
514.7802216184318
514.780741907173
514.7812620389864
514.7817820138009
514.7823018315462
514.7828214921519
514.7833409955479
514.7838603416637
514.7843795304293
514.7848985617743
514.7854174356285
514.7859361519218
514.7864547105839
514.7869731115447
514.7874913547344
514.788009440083
514.788527367521
514.7890451369792
514.7895627483881
514.7900802016779
514.7905974967794
514.7911146336232
514.79163161214
514.7921484322599
514.792665093913
514.7931815970296
514.7936979415399
514.7942141273743
514.7947301544637
514.7952460227386
514.7957617321301
514.796277282569
514.7967926739861
514.7973079063127
514.7978229794803
514.7983378934214
514.7988526480681
514.7993672433531
514.7998816792092
514.800395955569
514.8009100723652
514.8014240295304
514.8019378269969
514.8024514646972
514.8029649425644
514.8034782605312
514.8039914185306
514.8045044164953
514.8050172543587
514.8055299320545
514.8060424495159
514.8065548066761
514.8070670034685
514.8075790398266
514.8080909156838
514.8086026309738
514.8091141856307
514.8096255795886
514.8101368127818
514.8106478851446
514.8111587966112
514.811669547116
514.8121801365935
514.8126905649779
514.8132008322036
514.8137109382055
514.8142208829183
514.8147306662765
514.8152402882149
514.8157497486682
514.8162590475708
514.8167681848572
514.8172771604618
514.8177859743196
514.8182946263655
514.8188031165346
514.8193114447615
514.8198196109818
514.8203276151303
514.820835457142
514.821343136952
514.8218506544954
514.8223580097074
514.8228652025232
514.8233722328782
514.8238791007082
514.8243858059489
514.8248923485357
514.8253987284043
514.82590494549
514.8264109997288
514.8269168910563
514.8274226194085
514.827928184721
514.8284335869296
514.82893882597
514.8294439017782
514.8299488142898
514.8304535634404
514.8309581491658
514.8314625714017
514.8319668300842
514.8324709251492
514.8329748565336
514.8334786241744
514.8339822280086
514.8344856679728
514.8349889440037
514.8354920560382
514.8359950040133
514.8364977878659
514.8370004075332
514.8375028629521
514.8380051540598
514.8385072807937
514.8390092430911
514.8395110408899
514.8400126741274
514.8405141427409
514.8410154466678
514.841516585846
514.842017560213
514.8425183697068
514.8430190142653
514.8435194938265
514.8440198083285
514.84451995771
514.8450199419099
514.8455197608673
514.8460194145214
514.8465189028111
514.8470182256754
514.847517383053
514.8480163748827
514.8485152011037
514.8490138616555
514.8495123564778
514.8500106855108
514.8505088486945
514.8510068459691
514.8515046772745
514.8520023425508
514.8524998417386
514.8529971747785
514.8534943416112
514.8539913421778
514.8544881764196
514.8549848442781
514.8554813456951
514.8559776806126
514.8564738489724
514.8569698507167
514.8574656857875
514.8579613541269
514.8584568556776
514.8589521903823
514.8594473581838
514.8599423590249
514.8604371928482
514.8609318595968
514.8614263592144
514.8619206916446
514.8624148568315
514.8629088547193
514.8634026852524
514.863896348375
514.8643898440314
514.8648831721662
514.8653763327234
514.865869325647
514.8663621508817
514.8668548083715
514.8673472980606
514.8678396198934
514.8683317738141
514.8688237597671
514.8693155776969
514.8698072275481
514.8702987092661
514.870790022796
514.8712811680832
514.871772145073
514.8722629537101
514.8727535939397
514.8732440657072
514.8737343689584
514.8742245036383
514.874714469692
514.8752042670646
514.8756938957015
514.8761833555479
514.8766726465497
514.8771617686518
514.8776507217997
514.8781395059384
514.8786281210132
514.8791165669693
514.8796048437521
514.8800929513072
514.8805808895804
514.881068658517
514.8815562580626
514.8820436881624
514.882530948762
514.8830180398072
514.883504961244
514.8839917130185
514.8844782950775
514.8849647073675
514.8854509498351
514.885937022427
514.8864229250903
514.8869086577722
514.8873942204202
514.887879612982
514.8883648354056
514.888849887639
514.889334769631
514.8898194813305
514.8903040226867
514.8907883936486
514.8912725941655
514.8917566241864
514.8922404836608
514.8927241725378
514.8932076907668
514.893691038297
514.8941742150778
514.8946572210587
514.8951400561896
514.8956227204208
514.8961052137029
514.8965875359868
514.8970696872232
514.8975516673627
514.898033476356
514.8985151141537
514.8989965807064
514.8994778759643
514.899958999878
514.9004399523981
514.9009207334748
514.9014013430578
514.901881781097
514.9023620475423
514.9028421423441
514.9033220654528
514.9038018168194
514.9042813963945
514.904760804129
514.9052400399739
514.9057191038805
514.9061979957996
514.9066767156821
514.9071552634787
514.9076336391395
514.9081118426147
514.9085898738545
514.9090677328086
514.9095454194273
514.9100229336609
514.9105002754598
514.9109774447743
514.9114544415552
514.9119312657531
514.9124079173187
514.912884396203
514.9133607023573
514.9138368357326
514.9143127962798
514.9147885839498
514.915264198693
514.9157396404598
514.9162149092012
514.9166900048681
514.9171649274112
514.9176396767812
514.9181142529283
514.9185886558034
514.9190628853573
514.9195369415402
514.9200108243022
514.9204845335935
514.9209580693641
514.9214314315641
514.9219046201433
514.9223776350523
514.9228504762414
514.9233231436615
514.9237956372635
514.9242679569984
514.9247401028169
514.9252120746701
514.9256838725091
514.9261554962854
514.9266269459504
514.9270982214553
514.9275693227514
514.9280402497902
514.9285110025232
514.9289815809025
514.9294519848802
514.9299222144086
514.9303922694396
514.9308621499245
514.9313318558147
514.9318013870618
514.9322707436172
514.9327399254323
514.9332089324585
514.9336777646472
514.9341464219501
514.934614904319
514.9350832117059
514.9355513440628
514.9360193013417
514.9364870834947
514.9369546904738
514.937422122231
514.9378893787184
514.9383564598879
514.9388233656914
514.9392900960806
514.9397566510074
514.9402230304236
514.9406892342809
514.9411552625313
514.9416211151267
514.9420867920192
514.9425522931604
514.9430176185019
514.9434827679956
514.9439477415933
514.9444125392465
514.9448771609068
514.945341606526
514.9458058760556
514.9462699694473
514.9467338866525
514.9471976276227
514.9476611923092
514.9481245806633
514.9485877926363
514.9490508281799
514.9495136872456
514.949976369785
514.9504388757496
514.9509012050912
514.9513633577617
514.9518253337126
514.9522871328957
514.952748755263
514.9532102007668
514.9536714693595
514.9541325609935
514.9545934756211
514.9550542131951
514.9555147736683
514.955975156993
514.9564353631217
514.956895392007
514.9573552436013
514.9578149178574
514.9582744147278
514.9587337341659
514.9591928761247
514.9596518405574
514.9601106274172
514.9605692366574
514.9610276682315
514.9614859220933
514.9619439981968
514.9624018964962
514.9628596169455
514.9633171594985
514.9637745241089
514.96423171073
514.9646887193153
514.9651455498181
514.9656022021918
514.9660586763898
514.9665149723655
514.9669710900725
514.9674270294643
514.9678827904945
514.9683383731171
514.9687937772865
514.969249002957
514.9697040500832
514.9701589186197
514.970613608521
514.9710681197416
514.9715224522361
514.9719766059588
514.9724305808645
514.9728843769078
514.973337994043
514.9737914322245
514.9742446914065
514.9746977715431
514.9751506725884
514.9756033944968
514.9760559372232
514.9765083007219
514.9769604849466
514.9774124898518
514.9778643153916
514.9783159615206
514.9787674281931
514.9792187153635
514.9796698229859
514.9801207510145
514.9805714994036
514.9810220681074
514.9814724570801
514.9819226662758
514.9823726956486
514.9828225451524
514.9832722147407
514.9837217043666
514.9841710139831
514.984620143543
514.9850690929993
514.9855178623052
514.9859664514136
514.9864148602774
514.9868630888495
514.987311137083
514.9877590049309
514.9882066923469
514.9886541992846
514.9891015256976
514.9895486715395
514.989995636764
514.9904424213253
514.9908890251779
514.9913354482762
514.9917816905745
514.992227752027
514.9926736325881
514.9931193322118
514.9935648508526
514.9940101884654
514.9944553450046
514.9949003204251
514.9953451146826
514.9957897277327
514.9962341595315
514.9966784100347
514.9971224791987
514.9975663669793
514.9980100733328
514.9984535982153
514.9988969415826
514.9993401033908
514.999783083596
515.0002258821546
515.0006684990233
515.0011109341585
515.001553187517
515.0019952590551
515.0024371487298
515.002878856498
515.0033203823168
515.0037617261437
515.0042028879361
515.0046438676513
515.0050846652466
515.0055252806792
515.0059657139066
515.0064059648864
515.006846033576
515.0072859199329
515.0077256239144
515.0081651454784
515.0086044845825
515.0090436411851
515.0094826152449
515.0099214067202
515.0103600155692
515.01079844175
515.0112366852211
515.011674745941
515.0121126238687
515.0125503189633
515.0129878311845
515.0134251604918
515.0138623068449
515.0142992702035
515.014736050528
515.0151726477784
515.015609061915
515.0160452928981
515.0164813406875
515.0169172052433
515.0173528865257
515.0177883844945
515.0182236991093
515.0186588303304
515.0190937781185
515.0195285424343
515.0199631232385
515.0203975204927
515.020831734158
515.0212657641964
515.0216996105696
515.0221332732394
515.0225667521672
515.0230000473148
515.0234331586439
515.0238660861169
515.0242988296957
515.0247313893428
515.0251637650208
515.0255959566921
515.0260279643192
515.0264597878643
515.0268914272897
515.0273228825581
515.0277541536323
515.0281852404751
515.0286161430495
515.0290468613184
515.0294773952451
515.029907744793
515.0303379099262
515.0307678906083
515.0311976868034
515.0316272984751
515.0320567255876
515.032485968105
515.0329150259909
515.0333438992084
515.0337725877205
515.0342010914896
515.0346294104784
515.0350575446491
515.0354854939649
515.0359132583885
515.0363408378832
515.0367682324124
515.0371954419395
515.0376224664278
515.038049305841
515.0384759601425
515.0389024292956
515.0393287132642
515.0397548120122
515.0401807255037
515.0406064537024
515.0410319965724
515.0414573540779
515.0418825261831
515.0423075128524
515.0427323140498
515.0431569297393
515.0435813598851
515.0440056044508
515.0444296634
515.0448535366963
515.0452772243034
515.0457007261853
515.046124042306
515.0465471726297
515.0469701171205
515.0473928757424
515.0478154484597
515.0482378352363
515.0486600360357
515.0490820508217
515.049503879558
515.0499255222085
515.0503469787373
515.0507682491088
515.0511893332878
515.0516102312386
515.0520309429257
515.0524514683136
515.052871807366
515.0532919600469
515.0537119263199
515.0541317061488
515.0545512994977
515.0549707063303
515.0553899266106
515.0558089603023
515.0562278073694
515.0566464677759
515.0570649414858
515.0574832284635
515.0579013286733
515.0583192420795
515.0587369686464
515.0591545083382
515.0595718611198
515.0599890269561
515.0604060058126
515.060822797655
515.0612394024488
515.0616558201598
515.0620720507534
515.062488094195
515.0629039504499
515.0633196194833
515.0637351012604
515.0641503957463
515.0645655029066
515.0649804227069
515.065395155113
515.0658097000914
515.0662240576087
515.0666382276315
515.0670522101263
515.0674660050595
515.0678796123975
515.0682930321068
515.0687062641541
515.0691193085065
515.069532165131
515.0699448339949
515.0703573150654
515.0707696083095
515.0711817136948
515.0715936311885
515.0720053607579
515.0724169023704
515.0728282559935
515.0732394215947
515.0736503991416
515.0740611886017
515.0744717899429
515.0748822031333
515.0752924281412
515.0757024649351
515.0761123134835
515.0765219737546
515.0769314457168
515.0773407293386
515.0777498245882
515.0781587314336
515.0785674498429
515.078975979784
515.0793843212246
515.0797924741328
515.0802004384768
515.0806082142249
515.0810158013451
515.0814231998056
515.0818304095751
515.0822374306226
515.0826442629173
515.0830509064281
515.0834573611246
515.0838636269764
515.0842697039534
515.0846755920259
515.0850812911635
515.0854868013357
515.0858921225117
515.0862972546608
515.0867021977529
515.0871069517577
515.0875115166457
515.087915892387
515.0883200789517
515.0887240763104
515.0891278844338
515.0895315032928
515.0899349328588
515.0903381731023
515.090741223994
515.0911440855048
515.0915467576051
515.0919492402654
515.0923515334557
515.092753637146
515.0931555513057
515.0935572759045
515.0939588109122
515.094360156299
515.0947613120345
515.0951622780885
515.0955630544311
515.0959636410328
515.0963640378641
515.0967642448959
515.0971642620991
515.0975640894449
515.0979637269047
515.0983631744507
515.0987624320551
515.0991614996906
515.0995603773299
515.099959064946
515.1003575625118
515.1007558700003
515.1011539873844
515.1015519146367
515.1019496517301
515.1023471986373
515.1027445553307
515.1031417217828
515.1035386979659
515.1039354838526
515.104332079416
515.1047284846295
515.1051246994666
515.105520723901
515.1059165579063
515.1063122014566
515.1067076545264
515.1071029170907
515.1074979891248
515.1078928706042
515.1082875615045
515.1086820618016
515.1090763714715
515.1094704904904
515.1098644188346
515.1102581564805
515.1106517034048
515.1110450595841
515.1114382249953
515.1118311996152
515.1122239834206
515.1126165763883
515.1130089784947
515.1134011897163
515.11379321003
515.1141850394124
515.1145766778402
515.1149681252907
515.1153593817412
515.1157504471689
515.1161413215509
515.1165320048644
515.1169224970872
515.117312798197
515.1177029081716
515.1180928269891
515.1184825546275
515.1188720910645
515.1192614362785
515.1196505902476
515.12003955295
515.1204283243637
515.1208169044671
515.1212052932383
515.1215934906554
515.1219814966962
515.1223693113379
515.1227569345579
515.123144366333
515.1235316066404
515.1239186554571
515.12430551276
515.1246921785257
515.1250786527316
515.125464935355
515.1258510263733
515.1262369257643
515.1266226335058
515.1270081495759
515.1273934739525
515.1277786066134
515.1281635475373
515.1285482967023
515.128932854087
515.1293172196699
515.1297013934295
515.1300853753444
515.1304691653932
515.1308527635542
515.1312361698065
515.131619384129
515.1320024065005
515.1323852369005
515.1327678753084
515.1331503217039
515.133532576066
515.1339146383741
515.1342965086073
515.1346781867453
515.1350596727677
515.1354409666551
515.1358220683883
515.1362029779484
515.1365836953169
515.1369642204754
515.1373445534064
515.1377246940922
515.1381046425151
515.1384843986575
515.1388639625015
515.1392433340297
515.1396225132248
515.1400015000697
515.1403802945474
515.1407588966408
515.1411373063333
515.1415155236084
515.1418935484494
515.1422713808399
515.1426490207637
515.143026468204
515.1434037231443
515.143780785568
515.1441576554585
515.1445343327987
515.144910817572
515.1452871097622
515.1456632093532
515.1460391163293
515.1464148306752
515.1467903523753
515.1471656814138
515.1475408177744
515.1479157614413
515.1482905123985
515.1486650706302
515.1490394361203
515.1494136088536
515.1497875888144
515.1501613759874
515.1505349703571
515.1509083719084
515.1512815806261
515.1516545964951
515.1520274195004
515.1524000496274
515.1527724868613
515.1531447311875
515.1535167825914
515.1538886410588
515.1542603065757
515.1546317791285
515.1550030587036
515.1553741452872
515.1557450388652
515.156115739424
515.1564862469493
515.1568565614275
515.1572266828452
515.1575966111895
515.1579663464477
515.1583358886069
515.1587052376544
515.1590743935776
515.1594433563637
515.1598121259999
515.1601807024736
515.1605490857721
515.1609172758833
515.1612852727951
515.1616530764954
515.1620206869725
515.1623881042142
515.1627553282087
515.1631223589447
515.1634891964109
515.1638558405953
515.1642222914859
515.1645885490702
515.1649546133362
515.1653204842719
515.1656861618649
515.1660516461031
515.1664169369751
515.1667820344694
515.1671469385751
515.1675116492811
515.1678761665764
515.1682404904504
515.1686046208929
515.1689685578935
515.1693323014424
515.1696958515299
515.1700592081468
515.1704223712841
515.1707853409334
515.1711481170864
515.1715106997344
515.1718730888688
515.1722352844808
515.172597286562
515.1729590951036
515.1733207100974
515.1736821315358
515.1740433594107
515.1744043937142
515.1747652344388
515.1751258815773
515.1754863351225
515.1758465950677
515.176206661406
515.1765665341304
515.1769262132343
515.1772856987113
515.1776449905551
515.1780040887593
515.1783629933173
515.1787217042229
515.1790802214703
515.1794385450532
515.1797966749657
515.1801546112015
515.1805123537542
515.180869902618
515.1812272577872
515.1815844192561
515.1819413870194
515.1822981610724
515.1826547414103
515.1830111280285
515.1833673209226
515.1837233200881
515.1840791255213
515.184434737218
515.1847901551741
515.1851453793859
515.1855004098493
515.1858552465605
515.186209889516
515.1865643387123
515.1869185941462
515.1872726558145
515.1876265237138
515.187980197841
515.1883336781925
515.1886869647649
515.1890400575542
515.1893929565563
515.1897456617671
515.1900981731828
515.1904504907995
515.1908026146134
515.1911545446208
515.191506280818
515.1918578232016
515.1922091717686
515.1925603265154
515.1929112874386
515.1932620545354
515.1936126278026
515.1939630072375
515.1943131928372
515.194663184599
515.1950129825204
515.195362586599
515.195711996832
515.1960612132166
515.1964102357497
515.1967590644281
515.197107699249
515.1974561402099
515.1978043873078
515.1981524405405
515.1985002999058
515.1988479654019
515.1991954370267
515.1995427147781
515.1998897986543
515.2002366886538
515.2005833847752
515.2009298870171
515.2012761953779
515.2016223098562
515.2019682304508
515.2023139571602
515.2026594899826
515.2030048289162
515.2033499739591
515.2036949251099
515.2040396823668
515.2043842457283
515.2047286151928
515.2050727907585
515.2054167724236
515.2057605601863
515.2061041540446
515.2064475539971
515.2067907600422
515.2071337721782
515.2074765904035
515.2078192147167
515.2081616451158
515.2085038815994
515.2088459241663
515.2091877728153
515.2095294275455
515.2098708883561
515.2102121552466
515.2105532282158
515.2108941072624
515.211234792386
515.2115752835855
515.2119155808598
515.212255684208
515.212595593629
515.2129353091218
515.213274830686
515.2136141583214
515.2139532920273
515.214292231803
515.2146309776476
515.2149695295602
515.2153078875403
515.2156460515873
515.2159840217009
515.2163217978814
515.2166593801292
515.2169967684447
515.2173339628284
515.2176709632809
515.2180077698026
515.2183443823949
515.2186808010592
515.2190170257977
515.2193530566128
515.2196888935073
515.2200245364838
515.2203599855452
515.2206952406943
515.2210303019342
515.2213651692682
515.2216998427004
515.2220343222352
515.2223686078769
515.22270269963
515.223036597499
515.2233703014886
515.2237038116036
515.224037127849
515.2243702502296
515.2247031787506
515.2250359134168
515.2253684542334
515.2257008012052
515.2260329543374
515.2263649136348
515.2266966791026
515.2270282507461
515.2273596285709
515.2276908125823
515.2280218027865
515.22835259919
515.228683201799
515.2290136106199
515.229343825659
515.2296738469231
515.2300036744186
515.230333308152
515.2306627481303
515.2309919943605
515.2313210468496
515.2316499056053
515.2319785706354
515.2323070419475
515.2326353195494
515.2329634034497
515.233291293657
515.23361899018
515.2339464930278
515.2342738022089
515.2346009177322
515.2349278396068
515.2352545678423
515.2355811024486
515.235907443436
515.2362335908151
515.236559544597
515.2368853047922
515.2372108714117
515.2375362444668
515.2378614239688
515.2381864099284
515.2385112023567
515.2388358012643
515.2391602066618
515.2394844185601
515.2398084369702
515.240132261903
515.2404558933695
515.2407793313803
515.2411025759466
515.2414256270799
515.241748484792
515.2420711490945
515.2423936199989
515.2427158975165
515.2430379816587
515.2433598724367
515.2436815698618
515.2440030739458
515.244324384701
515.2446455021395
515.2449664262733
515.2452871571145
515.2456076946753
515.245928038968
515.246248190005
515.2465681477984
515.2468879123608
515.2472074837051
515.2475268618443
515.2478460467914
515.2481650385594
515.2484838371606
515.2488024426079
515.2491208549138
515.2494390740915
515.249757100154
515.2500749331148
515.2503925729866
515.2507100197827
515.2510272735165
515.2513443342013
515.2516612018508
515.2519778764783
515.2522943580975
515.2526106467219
515.2529267423654
515.2532426450421
515.2535583547663
515.2538738715525
515.2541891954156
515.2545043263704
515.2548192644313
515.2551340096129
515.25544856193
515.2557629213975
515.2560770880298
515.2563910618419
515.2567048428486
515.257018431065
515.2573318265063
515.2576450291874
515.2579580391239
515.2582708563314
515.258583480826
515.258895912624
515.2592081517414
515.2595201981944
515.2598320519994
515.2601437131725
515.2604551817299
515.2607664576876
515.2610775410619
515.2613884318694
515.2616991301265
515.2620096358501
515.2623199490567
515.2626300697639
515.262939997989
515.2632497337495
515.2635592770635
515.2638686279488
515.2641777864237
515.2644867525069
515.2647955262169
515.2651041075726
515.2654124965932
515.2657206932981
515.2660286977075
515.2663365098415
515.2666441297204
515.2669515573648
515.2672587927955
515.2675658360331
515.2678726870986
515.2681793460124
515.2684858127948
515.268792087466
515.2690981700462
515.2694040605556
515.2697097590149
515.270015265444
515.2703205798637
515.2706257022946
515.2709306327579
515.2712353712745
515.2715399178658
515.2718442725527
515.2721484353565
515.2724524062985
515.2727561853999
515.2730597726818
515.2733631681656
515.2736663718729
515.2739693838253
515.2742722040443
515.2745748325517
515.2748772693692
515.2751795145186
515.2754815680221
515.2757834299014
515.2760851001785
515.2763865788756
515.2766878660152
515.2769889616197
515.2772898657117
515.2775905783137
515.277891099448
515.278191429137
515.2784915674029
515.2787915142683
515.279091269756
515.2793908338886
515.2796902066882
515.2799893881775
515.2802883783788
515.2805871773148
515.2808857850082
515.2811842014812
515.2814824267562
515.2817804608553
515.2820783038014
515.2823759556172
515.2826734163255
515.2829706859488
515.2832677645101
515.283564652032
515.2838613485369
515.284157854047
515.284454168584
515.28475029217
515.2850462248268
515.2853419665767
515.285637517441
515.2859328774418
515.2862280466006
515.286523024939
515.2868178124788
515.2871124092417
515.2874068152491
515.2877010305233
515.2879950550862
515.2882888889599
515.2885825321664
515.2888759847281
515.2891692466674
515.289462318007
515.2897551987699
515.2900478889783
515.2903403886551
515.2906326978234
515.290924816507
515.2912167447296
515.2915084825149
515.2918000298869
515.2920913868691
515.2923825534854
515.2926735297601
515.2929643157174
515.2932549113816
515.2935453167765
515.2938355319259
515.294125556853
515.2944153915812
515.294705036134
515.2949944905354
515.2952837548091
515.2955728289792
515.2958617130694
515.2961504071034
515.2964389111048
515.2967272250971
515.2970153491037
515.2973032831478
515.2975910272526
515.2978785814414
515.2981659457375
515.2984531201641
515.2987401047442
515.2990268995009
515.2993135044578
515.2995999196391
515.2998861450692
515.3001721807723
515.300458026773
515.3007436830962
515.3010291497674
515.3013144268116
515.3015995142546
515.3018844121225
515.3021691204412
515.3024536392368
515.302737968535
515.3030221083618
515.3033060587431
515.3035898197047
515.3038733912722
515.3041567734713
515.3044399663274
515.3047229698659
515.3050057841119
515.3052884090907
515.3055708448276
515.3058530913477
515.3061351486763
515.3064170168386
515.3066986958597
515.306980185765
515.3072614865805
515.307542598332
515.3078235210455
515.3081042547474
515.308384799464
515.3086651552221
515.3089453220487
515.3092252999704
515.3095050890149
515.3097846892097
515.3100641005824
515.3103433231611
515.3106223569739
515.3109012020495
515.3111798584164
515.3114583261026
515.3117366051365
515.3120146955462
515.3122925973598
515.3125703106061
515.3128478353137
515.3131251715113
515.3134023192274
515.3136792784906
515.3139560493296
515.3142326317734
515.3145090258513
515.3147852315929
515.3150612490281
515.3153370781874
515.3156127191014
515.3158881718
515.316163436313
515.3164385126702
515.3167134009018
515.3169881010381
515.3172626131093
515.3175369371454
515.3178110731765
515.3180850212325
515.3183587813437
515.3186323535401
515.3189057378518
515.3191789343086
515.3194519429408
515.3197247637779
515.3199973968499
515.3202698421867
515.3205420998183
515.3208141697751
515.3210860520871
515.3213577467845
515.3216292538975
515.3219005734566
515.3221717054921
515.3224426500346
515.3227134071149
515.3229839767632
515.3232543590102
515.3235245538867
515.3237945614235
515.3240643816509
515.3243340145996
515.3246034602998
515.3248727187824
515.3251417900779
515.3254106742163
515.325679371228
515.3259478811433
515.3262162039921
515.3264843398042
515.3267522886092
515.3270200504367
515.3272876253159
515.3275550132762
515.3278222143467
515.3280892285566
515.3283560559348
515.3286226965108
515.3288891503134
515.3291554173716
515.3294214977143
515.329687391371
515.3299530983711
515.3302186187443
515.3304839525204
515.330749099729
515.3310140604003
515.331278834564
515.33154342225
515.3318078234879
515.3320720383081
515.3323360667409
515.3325999088172
515.3328635645678
515.3331270340236
515.3333903172156
515.3336534141749
515.3339163249327
515.3341790495201
515.3344415879683
515.3347039403084
515.3349661065718
515.3352280867898
515.3354898809937
515.335751489215
515.3360129114858
515.3362741478381
515.3365351983045
515.3367960629171
515.3370567417085
515.3373172347119
515.3375775419609
515.3378376634887
515.3380975993291
515.3383573495157
515.3386169140822
515.3388762930622
515.3391354864893
515.3393944943975
515.3396533168209
515.3399119537935
515.3401704053495
515.3404286715233
515.3406867523502
515.3409446478654
515.3412023581045
515.3414598831032
515.3417172228969
515.3419743775212
515.3422313470114
515.3424881314036
515.3427447307336
515.3430011450373
515.3432573743514
515.343513418713
515.3437692781592
515.344024952728
515.3442804424571
515.3445357473852
515.3447908675507
515.3450458029929
515.345300553751
515.3455551198647
515.3458095013739
515.3460636983186
515.3463177107392
515.3465715386756
515.3468251821682
515.3470786412581
515.3473319159862
515.3475850063933
515.3478379125204
515.3480906344087
515.3483431720992
515.3485955256338
515.3488476950538
515.3490996804007
515.3493514817158
515.34960309904
515.3498545324146
515.3501057818803
515.3503568474775
515.3506077292468
515.3508584272288
515.3511089414642
515.3513592719939
515.351609418859
515.3518593821004
515.3521091617595
515.3523587578775
515.3526081704954
515.3528573996541
515.3531064453946
515.3533553077573
515.3536039867831
515.3538524825126
515.3541007949859
515.3543489242438
515.3545968703268
515.3548446332752
515.3550922131299
515.3553396099312
515.3555868237199
515.3558338545374
515.3560807024253
515.3563273674251
515.3565738495781
515.3568201489252
515.3570662655075
515.3573121993661
515.3575579505423
515.3578035190767
515.3580489050105
515.358294108385
515.3585391292418
515.358783967622
515.3590286235676
515.3592730971209
515.3595173883239
515.3597614972184
515.3600054238468
515.3602491682516
515.3604927304752
515.3607361105603
515.3609793085495
515.3612223244857
515.3614651584116
515.3617078103707
515.3619502804063
515.362192568562
515.362434674882
515.3626765994106
515.3629183421922
515.363159903271
515.3634012826915
515.3636424804984
515.3638834967367
515.3641243314516
515.3643649846886
515.3646054564927
515.3648457469094
515.3650858559845
515.3653257837632
515.3655655302907
515.3658050956121
515.3660444797729
515.3662836828184
515.3665227047948
515.3667615457475
515.3670002057229
515.3672386847672
515.3674769829272
515.3677151002498
515.3679530367817
515.3681907925697
515.3684283676607
515.3686657621013
515.3689029759382
515.3691400092184
515.3693768619885
515.3696135342948
515.3698500261835
515.3700863377007
515.3703224688925
515.3705584198042
515.3707941904815
515.3710297809698
515.3712651913147
515.3715004215617
515.3717354717567
515.3719703419456
515.3722050321744
515.3724395424892
515.3726738729365
515.3729080235626
515.3731419944138
515.3733757855362
515.3736093969756
515.3738428287784
515.3740760809908
515.3743091536589
515.374542046829
515.3747747605471
515.3750072948596
515.375239649813
515.3754718254536
515.3757038218282
515.3759356389833
515.3761672769651
515.3763987358202
515.3766300155949
515.3768611163357
515.3770920380898
515.3773227809045
515.377553344827
515.3777837299049
515.3780139361861
515.3782439637189
515.3784738125514
515.3787034827319
515.3789329743088
515.3791622873307
515.3793914218465
515.3796203779052
515.3798491555553
515.3800777548458
515.3803061758254
515.3805344185425
515.3807624830463
515.3809903693855
515.381218077609
515.381445607766
515.3816729599057
515.3819001340776
515.3821271303309
515.3823539487153
515.3825805892802
515.3828070520753
515.3830333371507
515.3832594445566
515.3834853743438
515.3837111265625
515.3839367012629
515.3841620984949
515.3843873183087
515.3846123607539
515.3848372258808
515.3850619137397
515.3852864243809
515.3855107578543
515.3857349142097
515.3859588934974
515.3861826957677
515.3864063210708
515.3866297694569
515.3868530409763
515.3870761356795
515.387299053617
515.3875217948394
515.3877443593974
515.387966747342
515.3881889587244
515.3884109935962
515.3886328520089
515.3888545340142
515.3890760396637
515.389297369009
515.389518522102
515.3897394989949
515.3899602997401
515.3901809243898
515.3904013729966
515.390621645613
515.3908417422915
515.3910616630847
515.391281408045
515.3915009772254
515.3917203706785
515.391939588457
515.3921586306137
515.3923774972013
515.3925961882724
515.3928147038796
515.3930330440758
515.3932512089141
515.3934691984477
515.3936870127304
515.3939046518158
515.3941221157577
515.39433940461
515.3945565184263
515.3947734572596
515.3949902211634
515.3952068101912
515.3954232243964
515.3956394638321
515.3958555285521
515.3960714186101
515.39628713406
515.3965026749561
515.3967180413524
515.3969332333031
515.3971482508628
515.3973630940861
515.3975777630276
515.3977922577417
515.398006578283
515.3982207247057
515.3984346970642
515.3986484954135
515.3988621198082
515.3990755703035
515.3992888469543
515.3995019498157
515.3997148789426
515.3999276343902
515.4001402162135
515.4003526244678
515.4005648592088
515.4007769204918
515.4009888083726
515.401200522907
515.4014120641502
515.401623432158
515.4018346269854
515.4020456486883
515.4022564973229
515.4024671729458
515.4026776756136
515.4028880053834
515.4030981623123
515.4033081464574
515.4035179578764
515.4037275966268
515.403937062767
515.4041463563553
515.4043554774503
515.4045644261107
515.4047732023953
515.4049818063627
515.4051902380713
515.4053984975799
515.405606584947
515.4058145002318
515.4060222434937
515.4062298147921
515.406437214187
515.4066444417381
515.4068514975054
515.4070583815492
515.4072650939297
515.4074716347072
515.407678003942
515.4078842016945
515.4080902280252
515.4082960829951
515.4085017666646
515.4087072790937
515.4089126203426
515.4091177904718
515.4093227895423
515.4095276176151
515.4097322747511
515.4099367610115
515.4101410764574
515.4103452211498
515.4105491951495
515.4107529985176
515.4109566313155
515.4111600936046
515.4113633854467
515.4115665069035
515.4117694580364
515.4119722389073
515.4121748495782
515.4123772901112
515.4125795605692
515.4127816610148
515.412983591511
515.4131853521199
515.4133869429038
515.4135883639249
515.4137896152452
515.4139906969269
515.414191609033
515.4143923516262
515.4145929247697
515.4147933285269
515.4149935629612
515.4151936281362
515.4153935241156
515.4155932509634
515.4157928087436
515.4159921975206
515.4161914173585
515.4163904683212
515.4165893504728
515.4167880638774
515.416986608599
515.4171849847012
515.4173831922476
515.4175812313019
515.4177791019283
515.4179768041911
515.4181743381546
515.4183717038832
515.4185689014412
515.418765930893
515.4189627923029
515.4191594857357
515.419356011256
515.4195523689286
515.4197485588184
515.41994458099
515.4201404355085
515.4203361224395
515.4205316418484
515.4207269938006
515.4209221783617
515.4211171955974
515.4213120455736
515.421506728356
515.4217012440104
515.4218955926021
515.4220897741973
515.4222837888615
515.4224776366602
515.4226713176593
515.4228648319242
515.4230581795214
515.4232513605168
515.4234443749765
515.4236372229661
515.4238299045514
515.4240224197983
515.4242147687728
515.4244069515412
515.4245989681699
515.4247908187251
515.424982503273
515.4251740218797
515.4253653746114
515.4255565615342
515.4257475827146
515.4259384382192
515.4261291281143
515.4263196524662
515.4265100113412
515.4267002048057
515.4268902329263
515.42708009577
515.4272697934034
515.4274593258938
515.4276486933081
515.4278378957138
515.428026933178
515.4282158057681
515.4284045135516
515.4285930565966
515.4287814349711
515.4289696487438
515.4291576979831
515.4293455827578
515.4295333031366
515.4297208591884
515.429908250982
515.430095478586
515.4302825420696
515.4304694415018
515.4306561769522
515.4308427484902
515.4310291561856
515.4312154001075
515.4314014803258
515.4315873969099
515.4317731499289
515.431958739452
515.4321441655488
515.432329428289
515.4325145277426
515.43269946398
515.4328842370717
515.433068847088
515.4332532940998
515.4334375781782
515.4336216993943
515.433805657819
515.4339894535233
515.4341730865779
515.4343565570534
515.434539865021
515.4347230105514
515.4349059937156
515.4350888145848
515.4352714732304
515.4354539697235
515.4356363041354
515.435818476537
515.4360004869989
515.4361823355916
515.4363640223855
515.436545547451
515.4367269108586
515.4369081126788
515.4370891529818
515.4372700318377
515.4374507493167
515.4376313054893
515.4378117004262
515.4379919341982
515.4381720068759
515.4383519185305
515.438531669233
515.4387112590539
515.4388906880633
515.4390699563314
515.4392490639284
515.439428010925
515.4396067973919
515.4397854233991
515.4399638890166
515.4401421943139
515.4403203393608
515.4404983242271
515.4406761489827
515.4408538136977
515.4410313184426
515.4412086632879
515.441385848304
515.4415628735615
515.441739739131
515.4419164450833
515.4420929914891
515.442269378419
515.4424456059437
515.4426216741331
515.4427975830567
515.4429733327845
515.4431489233866
515.4433243549336
515.4434996274958
515.4436747411439
515.4438496959483
515.4440244919797
515.4441991293093
515.4443736080084
515.4445479281487
515.4447220898019
515.4448960930395
515.4450699379336
515.4452436245563
515.4454171529794
515.4455905232749
515.4457637355147
515.4459367897712
515.4461096861164
515.4462824246225
515.4464550053615
515.4466274284055
515.4467996938265
515.4469718016971
515.4471437520897
515.4473155450769
515.4474871807315
515.4476586591268
515.4478299803363
515.4480011444339
515.4481721514935
515.4483430015894
515.4485136947956
515.4486842311862
515.4488546108357
515.4490248338188
515.4491949002104
515.4493648100856
515.4495345635196
515.4497041605875
515.4498736013652
515.4500428859283
515.4502120143525
515.4503809867133
515.4505498030867
515.4507184635486
515.4508869681745
515.4510553170398
515.4512235102202
515.4513915477914
515.4515594298296
515.4517271564107
515.4518947276113
515.4520621435076
515.4522294041767
515.4523965096955
515.4525634601409
515.4527302555894
515.4528968961172
515.4530633818008
515.4532297127166
515.453395888941
515.4535619105504
515.4537277776208
515.4538934902275
515.454059048446
515.4542244523511
515.4543897020183
515.4545547975222
515.4547197389377
515.4548845263398
515.4550491598038
515.4552136394052
515.4553779652192
515.4555421373216
515.455706155788
515.4558700206944
515.4560337321172
515.4561972901333
515.4563606948195
515.4565239462531
515.4566870445117
515.456849989673
515.4570127818149
515.4571754210153
515.457337907352
515.4575002409024
515.4576624217441
515.4578244499551
515.4579863256135
515.4581480487977
515.4583096195861
515.4584710380573
515.45863230429
515.4587934183628
515.4589543803547
515.4591151903446
515.4592758484114
515.4594363546344
515.4595967090931
515.4597569118671
515.4599169630353
515.4600768626769
515.4602366108711
515.4603962076972
515.4605556532347
515.4607149475632
515.4608740907624
515.4610330829119
515.461191924091
515.4613506143796
515.4615091538576
515.4616675426046
515.4618257806997
515.461983868222
515.4621418052507
515.4622995918648
515.4624572281441
515.4626147141682
515.4627720500171
515.4629292357708
515.4630862715098
515.4632431573141
515.4633998932636
515.4635564794382
515.4637129159178
515.4638692027822
515.4640253401121
515.4641813279882
515.4643371664908
515.4644928557007
515.4646483956978
515.4648037865627
515.4649590283757
515.4651141212171
515.4652690651674
515.465423860307
515.4655785067166
515.4657330044761
515.4658873536655
515.4660415543651
515.4661956066554
515.466349510617
515.4665032663302
515.4666568738753
515.4668103333329
515.4669636447834
515.4671168083073
515.4672698239849
515.4674226918964
515.4675754121222
515.4677279847424
515.4678804098376
515.4680326874882
515.4681848177747
515.4683368007782
515.4684886365794
515.4686403252599
515.4687918669013
515.4689432615851
515.469094509393
515.4692456104069
515.4693965647084
515.4695473723787
515.4696980334988
515.4698485481499
515.4699989164133
515.4701491383703
515.4702992141024
515.4704491436908
515.4705989272165
515.4707485647609
515.4708980564051
515.4710474022302
515.4711966023169
515.4713456567465
515.4714945656006
515.4716433289609
515.4717919469092
515.4719404195271
515.4720887468961
515.4722369290985
515.4723849662164
515.4725328583322
515.4726806055282
515.4728282078868
515.4729756654901
515.4731229784206
515.4732701467606
515.4734171705923
515.4735640499978
515.4737107850592
515.4738573758589
515.4740038224793
515.4741501250028
515.4742962835116
515.474442298088
515.4745881688141
515.474733895772
515.4748794790439
515.4750249187118
515.4751702148578
515.4753153675638
515.4754603769118
515.4756052429836
515.4757499658617
515.4758945456283
515.4760389823655
515.4761832761551
515.4763274270786
515.4764714352173
515.4766153006531
515.4767590234683
515.476902603745
515.4770460415652
515.4771893370107
515.477332490163
515.4774755011038
515.477618369915
515.4777610966794
515.4779036814793
515.4780461243977
515.4781884255171
515.478330584921
515.4784726026926
515.4786144789161
515.4787562136758
515.4788978070551
515.4790392591381
515.4791805700083
515.47932173975
515.4794627684475
515.4796036561852
515.4797444030473
515.4798850091183
515.4800254744823
515.4801657992239
515.480305983428
515.4804460271803
515.4805859305657
515.4807256936695
515.4808653165769
515.4810047993737
515.4811441421457
515.4812833449785
515.4814224079573
515.4815613311675
515.4817001146944
515.4818387586229
515.4819772630383
515.4821156280257
515.4822538536703
515.4823919400571
515.4825298872715
515.4826676953985
515.4828053645233
515.482942894731
515.4830802861065
515.4832175387351
515.4833546527016
515.4834916280911
515.4836284649887
515.4837651634793
515.4839017236482
515.4840381455806
515.4841744293622
515.4843105750786
515.4844465828155
515.4845824526587
515.4847181846937
515.4848537790062
515.484989235682
515.4851245548064
515.4852597364652
515.4853947807446
515.4855296877313
515.4856644575116
515.4857990901723
515.4859335858
515.4860679444812
515.4862021663023
515.4863362513497
515.4864701997099
515.4866040114694
515.4867376867148
515.4868712255329
515.4870046280103
515.4871378942335
515.4872710242894
515.4874040182647
515.4875368762459
515.4876695983198
515.4878021845734
515.4879346350936
515.4880669499667
515.4881991292791
515.4883311731169
515.4884630815664
515.4885948547142
515.4887264926472
515.488857995452
515.4889893632153
515.4891205960234
515.4892516939631
515.489382657121
515.4895134855844
515.4896441794399
515.489774738774
515.4899051636739
515.4900354542269
515.4901656105201
515.4902956326409
515.490425520677
515.4905552747159
515.4906848948451
515.4908143811522
515.4909437337242
515.491072952648
515.4912020380109
515.4913309899
515.4914598084024
515.4915884936054
515.4917170455965
515.4918454644635
515.4919737502939
515.4921019031754
515.4922299231953
515.4923578104413
515.4924855650011
515.4926131869629
515.492740676415
515.4928680334456
515.4929952581426
515.4931223505941
515.4932493108879
515.4933761391121
515.4935028353552
515.4936293997057
515.4937558322517
515.493882133082
515.494008302285
515.4941343399491
515.4942602461624
515.4943860210128
515.4945116645888
515.494637176979
515.4947625582718
515.4948878085552
515.4950129279177
515.4951379164481
515.4952627742346
515.4953875013648
515.4955120979264
515.4956365640071
515.4957608996947
515.4958851050769
515.4960091802418
515.4961331252771
515.4962569402701
515.4963806253077
515.4965041804764
515.4966276058633
515.4967509015551
515.4968740676386
515.496997104201
515.4971200113291
515.49724278911
515.4973654376308
515.4974879569786
515.4976103472409
515.497732608505
515.4978547408577
515.497976744386
515.4980986191767
515.4982203653162
515.4983419828909
515.4984634719872
515.4985848326914
515.4987060650901
515.4988271692691
515.4989481453144
515.4990689933115
515.4991897133459
515.4993103055028
515.4994307698678
515.4995511065267
515.4996713155656
515.4997913970706
515.4999113511276
515.5000311778231
515.5001508772434
515.5002704494755
515.5003898946065
515.500509212724
515.5006284039146
515.5007474682657
515.5008664058641
515.5009852167964
515.5011039011488
515.5012224590077
515.5013408904601
515.5014591955933
515.501577374494
515.5016954272492
515.5018133539456
515.5019311546705
515.5020488295106
515.502166378553
515.5022838018851
515.502401099594
515.5025182717663
515.502635318489
515.5027522398486
515.5028690359327
515.5029857068289
515.503102252625
515.5032186734088
515.5033349692685
515.5034511402928
515.5035671865703
515.5036831081898
515.5037989052398
515.5039145778092
515.5040301259862
515.5041455498595
515.5042608495173
515.5043760250483
515.5044910765405
515.5046060040822
515.5047208077619
515.5048354876678
515.5049500438879
515.5050644765101
515.5051787856228
515.505292971314
515.5054070336719
515.5055209727843
515.5056347887391
515.5057484816239
515.5058620515263
515.5059754985339
515.5060888227345
515.5062020242158
515.5063151030654
515.5064280593706
515.5065408932185
515.5066536046961
515.5067661938906
515.5068786608892
515.5069910057796
515.5071032286496
515.5072153295873
515.5073273086807
515.5074391660178
515.507550901686
515.5076625157731
515.5077740083661
515.507885379553
515.5079966294215
515.5081077580589
515.508218765553
515.508329651992
515.508440417464
515.5085510620579
515.5086615858622
515.5087719889652
515.5088822714551
515.5089924334204
515.509102474949
515.509212396129
515.5093221970485
515.5094318777956
515.509541438458
515.5096508791237
515.5097601998809
515.5098694008179
515.5099784820231
515.5100874435848
515.5101962855911
515.5103050081298
515.5104136112891
515.5105220951575
515.5106304598235
515.5107387053754
515.5108468319017
515.5109548394912
515.5110627282324
515.5111704982141
515.511278149525
515.5113856822534
515.5114930964883
515.511600392319
515.5117075698349
515.5118146291254
515.5119215702798
515.5120283933875
515.5121350985378
515.5122416858203
515.5123481553251
515.5124545071421
515.5125607413613
515.5126668580726
515.5127728573661
515.5128787393314
515.5129845040583
515.5130901516368
515.5131956821567
515.5133010957079
515.5134063923801
515.5135115722635
515.5136166354478
515.5137215820228
515.5138264120785
515.5139311257053
515.5140357229939
515.5141402040351
515.51424456892
515.5143488177398
515.5144529505856
515.5145569675483
515.5146608687187
515.5147646541877
515.5148683240461
515.5149718783846
515.5150753172938
515.5151786408651
515.5152818491895
515.5153849423587
515.5154879204645
515.5155907835988
515.5156935318535
515.5157961653208
515.5158986840929
515.5160010882623
515.5161033779214
515.5162055531621
515.5163076140766
515.5164095607574
515.5165113932972
515.5166131117885
515.5167147163245
515.5168162069981
515.5169175839028
515.5170188471322
515.5171199967806
515.517221032942
515.5173219557105
515.5174227651805
515.5175234614462
515.5176240446017
515.5177245147413
515.5178248719592
515.517925116349
515.5180252480043
515.5181252670186
515.5182251734855
515.5183249674978
515.518424649149
515.5185242185325
515.5186236757422
515.5187230208721
515.5188222540166
515.5189213752701
515.5190203847271
515.5191192824827
515.519218068632
515.5193167432697
515.5194153064904
515.5195137583887
515.519612099059
515.5197103285952
515.5198084470912
515.5199064546409
515.5200043513385
515.5201021372782
515.5201998125547
515.5202973772625
515.5203948314961
515.5204921753498
515.5205894089177
515.5206865322939
515.5207835455722
515.5208804488466
515.5209772422113
515.5210739257604
515.5211704995879
515.5212669637879
515.5213633184544
515.5214595636819
515.5215556995645
515.5216517261961
515.5217476436708
515.521843452083
515.521939151527
515.5220347420973
515.5221302238879
515.5222255969925
515.5223208615048
515.5224160175185
515.5225110651272
515.5226060044247
515.5227008355041
515.5227955584585
515.5228901733808
515.5229846803645
515.5230790795026
515.5231733708881
515.5232675546142
515.5233616307739
515.5234555994602
515.5235494607659
515.5236432147835
515.5237368616056
515.5238304013249
515.5239238340341
515.5240171598261
515.5241103787935
515.5242034910286
515.5242964966242
515.5243893956731
515.5244821882684
515.5245748745033
515.5246674544715
515.5247599282668
515.5248522959832
515.5249445577147
515.525036713555
515.5251287635983
515.5252207079386
515.5253125466697
515.5254042798852
515.5254959076783
515.5255874301429
515.5256788473725
515.5257701594612
515.5258613665032
515.5259524685928
515.5260434658242
515.526134358292
515.5262251460904
515.5263158293133
515.5264064080541
515.5264968824058
515.5265872524612
515.5266775183129
515.5267676800531
515.5268577377742
515.5269476915687
515.5270375415294
515.5271272877485
515.5272169303184
515.527306469331
515.5273959048782
515.5274852370512
515.5275744659414
515.5276635916402
515.527752614239
515.5278415338289
515.5279303505015
515.5280190643484
515.5281076754609
515.5281961839305
515.5282845898491
515.5283728933089
515.5284610944022
515.5285491932214
515.5286371898583
515.5287250844049
515.528812876953
515.5289005675945
515.5289881564217
515.5290756435265
515.5291630290003
515.5292503129347
515.5293374954215
515.5294245765531
515.5295115564222
515.5295984351214
515.5296852127433
515.5297718893803
515.529858465125
515.5299449400698
515.530031314307
515.5301175879295
515.5302037610293
515.5302898336986
515.5303758060293
515.5304616781132
515.5305474500424
515.5306331219087
515.5307186938044
515.5308041658213
515.5308895380522
515.5309748105894
515.5310599835257
515.5311450569538
515.531230030967
515.5313149056585
515.5313996811219
515.5314843574506
515.5315689347381
515.5316534130777
515.531737792563
515.5318220732875
515.5319062553444
515.5319903388277
515.5320743238308
515.5321582104473
515.5322419987706
515.5323256888942
515.5324092809119
515.5324927749177
515.532576171006
515.532659469271
515.5327426698072
515.5328257727092
515.5329087780715
515.5329916859889
515.5330744965563
515.5331572098689
515.533239826022
515.5333223451112
515.5334047672318
515.5334870924789
515.5335693209477
515.5336514527335
515.5337334879318
515.5338154266383
515.5338972689483
515.5339790149574
515.5340606647612
515.5341422184558
515.5342236761371
515.5343050379013
515.5343863038447
515.5344674740643
515.5345485486569
515.5346295277195
515.5347104113494
515.5347911996435
515.5348718926989
515.5349524906128
515.5350329934822
515.535113401404
515.5351937144751
515.5352739327923
515.5353540564527
515.5354340855538
515.5355140201934
515.5355938604694
515.5356736064796
515.5357532583221
515.5358328160946
515.5359122798952
515.5359916498217
515.5360709259717
515.5361501084435
515.5362291973356
515.5363081927462
515.5363870947735
515.5364659035158
515.5365446190713
515.5366232415381
515.5367017710144
515.5367802075978
515.5368585513861
515.5369368024767
515.5370149609671
515.5370930269551
515.5371710005384
515.5372488818148
515.5373266708825
515.5374043678396
515.537481972784
515.5375594858133
515.5376369070248
515.5377142365155
515.5377914743826
515.5378686207232
515.5379456756341
515.5380226392119
515.5380995115536
515.5381762927561
515.5382529829164
515.5383295821314
515.5384060904973
515.5384825081103
515.5385588350664
515.5386350714621
515.5387112173939
515.5387872729584
515.5388632382519
515.5389391133708
515.5390148984116
515.5390905934705
515.5391661986444
515.5392417140295
515.5393171397225
515.53939247582
515.539467722419
515.5395428796164
515.5396179475097
515.5396929261956
515.5397678157713
515.5398426163333
515.539917327978
515.5399919508011
515.540066484899
515.5401409303677
515.5402152873035
515.5402895558022
515.54036373596
515.5404378278722
