484.87135645866215
484.8802829128638
484.88920941136416
484.8981359531765
484.907062537314
484.91598916278963
484.92491582861635
484.93384253380714
484.9427692773745
484.951696058331
484.96062287568884
484.9695497284604
484.9784766156579
484.9874035362934
484.99633048937926
485.0052574739277
485.01418448895106
485.02311153346136
485.03203860647045
485.04096570699016
485.04989283403233
485.0588199866088
485.0677471637314
485.07667436441193
485.08560158766227
485.09452883249446
485.10345609792034
485.11238338295175
485.1213106866005
485.13023800787823
485.1391653457963
485.14809269936586
485.15702006759807
485.1659474495041
485.17487484409526
485.1838022503832
485.1927296673796
485.2016570940957
485.21058452954276
485.2195119727319
485.22843942267446
485.2373668783821
485.24629433886616
485.25522180313806
485.2641492702094
485.2730767390917
485.28200420879693
485.2909316783366
485.29985914672216
485.3087866129647
485.3177140760754
485.3266415350656
485.33556898894676
485.3444964367302
485.3534238774273
485.36235131004946
485.3712787336078
485.38020614711354
485.38913354957776
485.3980609400119
485.406988317427
485.41591568083436
485.4248430292448
485.4337703616693
485.44269767711876
485.4516249746041
485.46055225313603
485.46947951172524
485.47840674938266
485.48733396511943
485.4962611579467
485.50518832687567
485.51411547091743
485.52304258908316
485.531969680384
485.5408967438316
485.54982377843726
485.5587507832122
485.56767775716753
485.57660469931443
485.58553160866427
485.5944584842284
485.6033853250183
485.6123121300452
485.6212388983208
485.63016562885696
485.63909232066567
485.64801897275925
485.65694558415
485.66587215385016
485.6747986808721
485.68372516422846
485.6926516029323
485.70157799599633
485.71050434243307
485.71943064125526
485.72835689147564
485.73728309210696
485.7462092421622
485.75513534065453
485.7640613865972
485.7729873790033
485.78191331688595
485.790839199258
485.79976502513273
485.8086907935233
485.8176165034431
485.8265421539061
485.8354677439263
485.8443932725181
485.85331873869563
485.86224414147273
485.8711694798633
485.8800947528812
485.8890199595403
485.8979450988545
485.9068701698377
485.91579517150376
485.9247201028668
485.9336449629409
485.9425697507402
485.951494465279
485.96041910557165
485.96934367063227
485.97826815947496
485.98719257111406
485.9961169045639
486.00504115883905
486.01396533295383
486.0228894259228
486.03181343676033
486.0407373644805
486.04966120809763
486.0585849666261
486.0675086390802
486.0764322244743
486.0853557218227
486.09427913013997
486.1032024484409
486.1121256757401
486.1210488110521
486.1299718533912
486.13889480177204
486.14781765520956
486.15674041271905
486.1656630733157
486.17458563601485
486.18350809983144
486.19243046378074
486.201352726878
486.21027488813866
486.21919694657845
486.2281189012133
486.23704075105934
486.2459624951332
486.25488413245125
486.26380566202965
486.2727270828848
486.281648394033
486.29056959449076
486.2994906832746
486.3084116594014
486.3173325218877
486.32625326975017
486.3351739020054
486.34409441767025
486.35301481576175
486.361935095297
486.370855255293
486.3797752947669
486.3886952127359
486.39761500821714
486.4065346802279
486.41545422778563
486.4243736499077
486.43329294561136
486.44221211391414
486.45113115383356
486.46005006438713
486.46896884459215
486.4778874934659
486.48680601002593
486.4957243932897
486.5046426422748
486.5135607559987
486.5224787334789
486.5313965737332
486.54031427577934
486.54923183863525
486.55814926131916
486.5670665428495
486.5759836822449
486.58490067852426
486.5938175307065
486.6027342378102
486.6116507988545
486.6205672128583
486.62948347884026
486.638399595819
486.64731556281345
486.65623137884245
486.6651470429247
486.6740625540788
486.68297791132363
486.69189311367813
486.70080816016116
486.7097230497918
486.7186377815892
486.7275523545725
486.73646676776093
486.74538102017414
486.75429511083166
486.7632090387531
486.7721228029577
486.7810364024649
486.789949836294
486.7988631034643
486.8077762029952
486.81668913390627
486.8256018952168
486.8345144859459
486.84342690511244
486.8523391517351
486.8612512248328
486.8701631234246
486.87907484652965
486.88798639316724
486.89689776235673
486.9058089531177
486.9147199644699
486.9236307954334
486.9325414450284
486.94145191227517
486.95036219619374
486.9592722958041
486.9681822101263
486.9770919381808
486.9860014789883
486.9949108315693
487.0038199949445
487.0127289681343
487.02163775015947
487.0305463400407
487.0394547367989
487.04836293945505
487.05727094703025
487.0661787585457
487.0750863730227
487.08399378948275
487.0929010069474
487.10180802443824
487.1107148409769
487.11962145558505
487.1285278672842
487.1374340750958
487.14634007804125
487.15524587514165
487.1641514654184
487.1730568478929
487.18196202158674
487.1908669855218
487.19977173871985
487.208676280203
487.2175806089931
487.2264847241122
487.2353886245826
487.2442923094263
487.25319577766527
487.262099028321
487.2710020604152
487.2799048729696
487.28880746500613
487.29770983554704
487.30661198361463
487.3155139082312
487.3244156084195
487.333317083202
487.34221833160154
487.3511193526406
487.3600201453414
487.36892070872636
487.37782104181747
487.3867211436368
487.39562101320666
487.40452064954957
487.41342005168826
487.42231921864527
487.43121814944334
487.44011684310544
487.449015298655
487.45791351511525
487.46681149150936
487.4757092268608
487.4846067201929
487.4935039705292
487.50240097689334
487.51129773830894
487.52019425379945
487.5290905223885
487.53798654310003
487.5468823149579
487.55577783698595
487.56467310820835
487.5735681276492
487.58246289433305
487.59135740728425
487.60025166552737
487.60914566808697
487.6180394139876
487.6269329022539
487.6358261319101
487.64471910198085
487.6536118114907
487.66250425946396
487.6713964449252
487.68028836689905
487.68918002441023
487.6980714164836
487.70696254214386
487.71585340041565
487.72474399032376
487.7336343108932
487.74252436114944
487.75141414011796
487.76030364682424
487.76919288029353
487.7780818395511
487.78697052362213
487.79585893153217
487.80474706230666
487.8136349149713
487.82252248855184
487.8314097820737
487.8402967945626
487.8491835250443
487.85806997254485
487.8669561360907
487.87584201470827
487.8847276074241
487.8936129132651
487.9024979312578
487.9113826604291
487.9202670998061
487.92915124841556
487.93803510528437
487.94691866943936
487.95580193990736
487.96468491571545
487.9735675958909
487.9824499794613
487.9913320654541
488.0002138528971
488.00909534081825
488.01797652824575
488.0268574142078
488.03573799773267
488.04461827784894
488.05349825358553
488.0623779239713
488.0712572880352
488.0801363448061
488.08901509331326
488.09789353258634
488.1067716616551
488.11564947954935
488.12452698529864
488.1334041779328
488.1422810564818
488.1511576199757
488.1600338674443
488.16890979791765
488.17778541042594
488.1866607039997
488.19553567766934
488.20441033046586
488.2132846614204
488.22215866956435
488.2310323539293
488.2399057135474
488.2487787474506
488.2576514546711
488.26652383424084
488.2753958851922
488.2842676065577
488.2931389973696
488.30201005666004
488.310880783461
488.31975117680486
488.32862123572386
488.33749095925054
488.3463603464172
488.3552293962564
488.3640981078008
488.3729664800833
488.3818345121365
488.3907022029932
488.39956955168645
488.40843655724893
488.41730321871387
488.4261695351147
488.43503550548485
488.44390112885776
488.45276640426687
488.4616313307456
488.47049590732763
488.4793601330466
488.488224006936
488.49708752802917
488.50595069536007
488.5148135079628
488.5236759648717
488.5325380651209
488.5413998077445
488.5502611917766
488.5591222162516
488.5679828802038
488.5768431826675
488.5857031226776
488.5945626992691
488.60342191147697
488.61228075833606
488.6211392388816
488.6299973521491
488.6388550971742
488.6477124729929
488.65656947864113
488.6654261131546
488.6742823755692
488.6831382649209
488.6919937802461
488.7008489205814
488.70970368496364
488.71855807243014
488.7274120820184
488.7362657127662
488.7451189637113
488.7539718338917
488.7628243223455
488.7716764281113
488.7805281502274
488.7893794877323
488.7982304396646
488.8070810050633
488.81593118296746
488.8247809724164
488.83363037244953
488.8424793821064
488.8513280004265
488.86017622645
488.8690240592168
488.87787149776705
488.8867185411409
488.89556518837867
488.9044114385208
488.9132572906078
488.9221027436804
488.93094779677926
488.9397924489456
488.94863669922074
488.9574805466466
488.9663239902652
488.9751670291189
488.9840096622502
488.9928518887016
489.0016937075161
489.01053511773716
489.0193761184082
489.0282167085729
489.0370568872752
489.0458966535591
489.05473600646906
489.0635749450498
489.0724134683462
489.08125157540303
489.0900892652653
489.0989265369783
489.10776338958726
489.11659982213746
489.1254358336744
489.1342714232435
489.1431065898905
489.1519413326614
489.16077565060186
489.1696095427578
489.17844300817546
489.18727604590117
489.1961086549818
489.2049408344644
489.21377258339635
489.2226039008251
489.2314347857982
489.2402652373637
489.24909525456997
489.2579248364657
489.2667539821
489.275582690522
489.2844109607811
489.29323879192657
489.30206618300804
489.31089313307507
489.31971964117724
489.32854570636437
489.33737132768624
489.34619650419245
489.35502123493234
489.3638455189555
489.37266935531125
489.3814927430492
489.3903156812189
489.39913816886997
489.40796020505195
489.41678178881466
489.42560291920836
489.43442359528353
489.44324381609067
489.4520635806805
489.4608828881037
489.46970173741124
489.47852012765406
489.48733805788333
489.4961555271507
489.50497253450794
489.5137890790072
489.5226051597008
489.5314207756412
489.540235925881
489.54905060947317
489.5578648254707
489.56667857292655
489.57549185089397
489.58430465842616
489.5931169945761
489.60192885839683
489.61074024894174
489.61955116526406
489.628361606417
489.6371715714538
489.64598105942764
489.65479006939177
489.6635986003996
489.67240665150484
489.68121422176114
489.69002131022216
489.6988279159416
489.7076340379731
489.7164396753701
489.7252448271861
489.73404949247447
489.7428536702887
489.75165735968244
489.7604605597094
489.7692632694234
489.7780654878786
489.78686721412964
489.79566844723104
489.8044691862376
489.8132694302044
489.82206917818644
489.83086842923876
489.83966718241663
489.84846543677554
489.8572631913712
489.86606044525956
489.87485719749657
489.8836534471384
489.8924491932414
489.90124443486206
489.91003917105695
489.9188334008825
489.92762712339527
489.9364203376522
489.9452130427105
489.9540052376278
489.96279692146163
489.9715880932697
489.98037875211
489.9891688970406
489.99795852711964
490.0067476414056
490.0155362389571
490.0243243188331
490.0331118800925
490.0418989217942
490.0506854429975
490.05947144276206
490.0682569201474
490.07704187421314
490.08582630401906
490.0946102086252
490.10339358709166
490.1121764384784
490.12095876184526
490.1297405562523
490.1385218207595
490.1473025544269
490.1560827563144
490.1648624254817
490.17364156098915
490.1824201618972
490.19119822726634
490.1999757561573
490.2087527476308
490.217529200748
490.2263051145703
490.23508048815916
490.2438553205759
490.2526296108822
490.2614033581401
490.270176561412
490.2789492197603
490.2877213322479
490.2964928979377
490.30526391589274
490.314034385176
490.32280430485093
490.3315736739812
490.3403424916305
490.34911075686273
490.357878468742
490.3666456263327
490.37541222869913
490.38417827490593
490.3929437640179
490.40170869509984
490.4104730672168
490.41923687943404
490.4280001308173
490.4367628204325
490.4455249473458
490.45428651062343
490.46304750933155
490.47180794253654
490.48056780930506
490.48932710870395
490.4980858398003
490.5068440016614
490.51560159335463
490.52435861394747
490.53311506250793
490.541870938104
490.55062623980393
490.55938096667614
490.56813511778955
490.5768886922135
490.5856416890176
490.5943941072717
490.60314594604597
490.61189720441075
490.6206478814365
490.629397976194
490.6381474877537
490.64689641518635
490.65564475756287
490.6643925139542
490.6731396834316
490.68188626506617
490.69063225792934
490.69937766109297
490.7081224736289
490.7168666946095
490.72561032310705
490.7343533581941
490.7430957989434
490.7518376444282
490.7605788937219
490.7693195458985
490.7780596000323
490.7867990551979
490.79553791046965
490.80427616492193
490.8130138176293
490.8217508676669
490.83048731410963
490.83922315603263
490.8479583925109
490.85669302261954
490.86542704543376
490.8741604600291
490.882893265481
490.89162546086504
490.90035704525644
490.9090880177307
490.9178183773636
490.926548123231
490.93527725440936
490.94400576997486
490.9527336690039
490.96146095057316
490.9701876137592
490.9789136576387
490.98763908128853
490.996363883786
491.0050880642086
491.013811621634
491.0225345551396
491.03125686380304
491.03997854670206
491.0486996029149
491.05742003152
491.06613983159605
491.07485900222196
491.0835775424771
491.0922954514408
491.1010127281925
491.10972937181145
491.1184453813771
491.12716075596904
491.13587549466706
491.144589596551
491.15330306070064
491.16201588619606
491.1707280721175
491.1794396175453
491.1881505215599
491.1968607832421
491.20557040167296
491.214279375934
491.2229877051068
491.231695388273
491.2404024245145
491.2491088129134
491.25781455255196
491.2665196425128
491.2752240818786
491.2839278697327
491.2926310051582
491.30133348723894
491.3100353150585
491.31873648770056
491.3274370042493
491.33613686378953
491.3448360654063
491.3535346081849
491.36223249121053
491.37092971356856
491.37962627434445
491.38832217262416
491.3970174074939
491.40571197804
491.41440588334945
491.42309912250926
491.43179169460655
491.44048359872863
491.44917483396307
491.4578653993974
491.46655529411964
491.475244517218
491.483933067781
491.4926209448972
491.50130814765566
491.50999467514566
491.5186805264568
491.5273657006792
491.5360501969028
491.5447340142182
491.5534171517163
491.5620996084883
491.5707813836259
491.5794624762209
491.5881428853654
491.59682261015155
491.6055016496716
491.61418000301796
491.6228576692831
491.6315346475599
491.6402109369408
491.6488865365186
491.65756144538636
491.6662356626375
491.67490918736576
491.683582018665
491.69225415562914
491.70092559735235
491.709596342929
491.71826639145365
491.72693574202094
491.7356043937257
491.7442723456627
491.75293959692704
491.761606146614
491.77027199381905
491.7789371376382
491.78760157716715
491.79626531150166
491.80492833973767
491.8135906609714
491.8222522742992
491.8309131788178
491.83957337362426
491.8482328578157
491.8568916304894
491.8655496907429
491.87420703767384
491.8828636703797
491.8915195879581
491.90017478950654
491.9088292741228
491.9174830409049
491.9261360889509
491.93478841735896
491.94344002522735
491.9520909116545
491.9607410757392
491.96939051658046
491.97803923327774
491.98668722493017
491.9953344906371
492.00398102949794
492.01262684061226
492.0212719230801
492.02991627600204
492.03855989847875
492.0472027896112
492.05584494850063
492.0644863742482
492.0731270659553
492.08176702272385
492.09040624365616
492.09904472785456
492.1076824744216
492.1163194824601
492.1249557510728
492.13359127936246
492.14222606643193
492.15086011138396
492.15949341332157
492.168125971348
492.1767577845667
492.18538885208136
492.1940191729959
492.2026487464145
492.21127757144154
492.2199056471816
492.22853297273923
492.23715954721933
492.2457853697272
492.25441043936826
492.2630347552483
492.27165831647335
492.28028112214974
492.28890317138416
492.2975244632835
492.3061449969548
492.3147647715052
492.3233837860423
492.33200203967385
492.3406195315076
492.34923626065165
492.3578522262144
492.36646742730454
492.375081863031
492.383695532503
492.39230843482983
492.4009205691209
492.4095319344858
492.41814253003395
492.4267523548749
492.4353614081185
492.44396968887486
492.45257719625397
492.4611839293659
492.469789887321
492.4783950692299
492.4869994742037
492.49560310135325
492.5042059497898
492.5128080186248
492.52140930696964
492.53000981393575
492.538609538635
492.54720848017973
492.55580663768274
492.56440401025725
492.57300059701674
492.5815963970749
492.5901914095457
492.598785633543
492.607379068181
492.61597171257404
492.624563565837
492.6331546270851
492.6417448954337
492.6503343699983
492.6589230498944
492.6675109342375
492.6760980221434
492.684684312728
492.6932698051078
492.70185449839937
492.71043839171966
492.71902148418576
492.727603774915
492.73618526302494
492.74476594763337
492.7533458278583
492.761924902818
492.7705031716307
492.77908063341465
492.78765728728854
492.7962331323713
492.80480816778186
492.81338239263937
492.82195580606344
492.8305284071739
492.8391001950906
492.84767116893363
492.85624132782345
492.86481067088107
492.8733791972277
492.8819469059845
492.8905137962729
492.8990798672146
492.90764511793145
492.9162095475456
492.92477315517954
492.9333359399561
492.9418979009986
492.9504590374304
492.95901934837525
492.9675788329571
492.97613749029983
492.98469531952765
492.99325231976513
493.00180849013714
493.01036382976895
493.0189183377861
493.0274720133141
493.0360248554787
493.04457686340584
493.05312803622155
493.061678373052
493.07022787302367
493.0787765352634
493.0873243588983
493.09587134305593
493.1044174868641
493.1129627894509
493.12150724994467
493.130050867474
493.1385936411675
493.1471355701542
493.1556766535632
493.1642168905237
493.1727562801648
493.18129482161567
493.18983251400573
493.1983693564648
493.2069053481232
493.2154404881112
493.2239747755591
493.23250820959765
493.24104078935807
493.24957251397177
493.2581033825702
493.2666333942848
493.2751625482472
493.2836908435893
493.2922182794432
493.3007448549413
493.3092705692163
493.3177954214011
493.3263194106289
493.33484253603297
493.34336479674676
493.3518861919042
493.3604067206393
493.36892638208633
493.37744517538
493.3859630996553
493.39448015404764
493.4029963376927
493.41151164972666
493.42002608928624
493.42853965550876
493.4370523475318
493.4455641644929
493.4540751055299
493.46258516978105
493.4710943563846
493.4796026644792
493.4881100932041
493.49661664169867
493.5051223091025
493.5136270945552
493.52213099719665
493.53063401616714
493.5391361506072
493.54763739965756
493.55613776245946
493.5646372381543
493.5731358258838
493.5816335247898
493.5901303340147
493.59862625270125
493.6071212799925
493.6156154150319
493.6241086569635
493.63260100493153
493.6410924580805
493.64958301555475
493.65807267649893
493.6665614400581
493.67504930537757
493.68353627160286
493.6920223378795
493.70050750335304
493.70899176716944
493.71747512847514
493.7259575864166
493.7344391401407
493.74291978879455
493.75139953152575
493.7598783674821
493.7683562958118
493.77683331566345
493.7853094261857
493.79378462652767
493.8022589158388
493.81073229326876
493.81920475796755
493.8276763090855
493.8361469457732
493.8446166671815
493.85308547246177
493.86155336076536
493.87002033124395
493.87848638304945
493.88695151533443
493.89541572725193
493.90387901795543
493.91234138659865
493.9208028323351
493.92926335431866
493.93772295170356
493.9461816236442
493.95463936929514
493.9630961878115
493.9715520783484
493.9800070400611
493.98846107210466
493.9969141736344
494.0053663438064
494.01381758177695
494.0222678867028
494.0307172577409
494.0391656940485
494.04761319478325
494.05605975910316
494.0645053861665
494.07295007513153
494.08139382515674
494.08983663540084
494.09827850502256
494.10671943318084
494.1151594190346
494.1235984617431
494.13203656046585
494.140473714363
494.14890992259507
494.15734518432305
494.16577949870816
494.1742128649121
494.1826452820969
494.19107674942506
494.1995072660591
494.207936831162
494.2163654438973
494.22479310342896
494.2332198089209
494.2416455595378
494.25007035444446
494.2584941928062
494.26691707378905
494.27533899655896
494.28375996028217
494.29217996412535
494.3005990072552
494.30901708883835
494.31743420804196
494.3258503640334
494.3342655559802
494.34267978305047
494.3510930444122
494.3595053392337
494.36791666668364
494.376327025931
494.38473641614473
494.393144836494
494.401552286148
494.40995876427587
494.41836427004705
494.42676880263116
494.4351723611983
494.44357494491874
494.4519765529633
494.46037718450293
494.4687768387091
494.4771755147535
494.4855732118083
494.49396992904576
494.50236566563876
494.51076042076056
494.51915419358465
494.52754698328476
494.5359387890351
494.5443296100102
494.55271944538504
494.56110829433464
494.56949615603435
494.57788302965946
494.586268914386
494.59465380939037
494.6030377138493
494.61142062693943
494.61980254783793
494.6281834757219
494.63656340976877
494.64494234915605
494.65332029306137
494.66169724066253
494.6700731911376
494.6784481436648
494.6868220974229
494.6951950515909
494.70356700534785
494.71193795787326
494.72030790834674
494.72867685594815
494.7370447998578
494.7454117392565
494.75377767332543
494.7621426012463
494.77050652220123
494.7788694353728
494.7872313399439
494.79559223509773
494.8039521200178
494.8123109938881
494.820668855893
494.8290257052172
494.8373815410457
494.84573636256414
494.854090168958
494.86244295941333
494.8707947331163
494.87914548925346
494.88749522701164
494.89584394557846
494.90419164414175
494.91253832188977
494.92088397801103
494.92922861169404
494.937572222128
494.94591480850227
494.95425637000653
494.9625969058309
494.97093641516585
494.97927489720223
494.9876123511315
494.99594877614527
495.00428417143576
495.0126185361953
495.02095186961674
495.02928417089333
495.0376154392186
495.0459456737865
495.054274873791
495.06260303842623
495.0709301668867
495.07925625836674
495.0875813120613
495.09590532716584
495.10422830287644
495.11255023838953
495.12087113290204
495.1291909856111
495.13750979571455
495.14582756241066
495.1541442848977
495.1624599623742
495.17077459403913
495.17908817909165
495.1874007167312
495.1957122061574
495.20402264657014
495.2123320371695
495.22064037715563
495.2289476657286
495.2372539020889
495.24555908543743
495.25386321497535
495.26216628990414
495.2704683094255
495.27876927274156
495.2870691790549
495.29536802756843
495.30366581748535
495.31196254800943
495.32025821834486
495.32855282769583
495.336846375267
495.34513886026343
495.3534302818905
495.36172063935396
495.37000993185984
495.3782981586146
495.38658531882515
495.3948714116989
495.4031564364434
495.41144039226674
495.4197232783772
495.4280050939833
495.436285838294
495.4445655105187
495.4528441098673
495.46112163554994
495.46939808677666
495.4776734627578
495.4859477627042
495.4942209858266
495.50249313133645
495.5107641984457
495.5190341863663
495.5273030943106
495.5355709214914
495.54383766712203
495.55210333041623
495.56036791058773
495.5686314068505
495.57689381841874
495.5851551445071
495.5934153843307
495.60167453710505
495.609932602046
495.61818957836977
495.6264454652933
495.6347002620337
495.6429539678086
495.65120658183605
495.6594581033346
495.6677085315232
495.67595786562106
495.6842061048476
495.69245324842245
495.7006992955655
495.7089442454969
495.717188097437
495.7254308506065
495.73367250422643
495.7419130575181
495.7501525097032
495.75839086000383
495.76662810764265
495.77486425184225
495.78309929182547
495.79133322681514
495.79956605603456
495.8077977787075
495.81602839405787
495.8242579013104
495.8324862996901
495.8407135884229
495.8489397667345
495.85716483385113
495.8653887889993
495.873611631406
495.8818333602983
495.8900539749038
495.8982734744509
495.90649185816824
495.91470912528507
495.9229252750313
495.93114030663696
495.9393542193325
495.9475670123486
495.95577868491637
495.96398923626725
495.9721986656332
495.98040697224656
495.98861415534
495.9968202141465
496.0050251478997
496.0132289558335
496.0214316371821
496.0296331911802
496.0378336170627
496.0460329140651
496.05423108142304
496.0624281183723
496.0706240241491
496.07881879799015
496.08701243913265
496.09520494681396
496.10339632027194
496.1115865587449
496.1197756614715
496.12796362769086
496.1361504566423
496.1443361475658
496.15252069970165
496.16070411229066
496.1688863845741
496.1770675157934
496.18524750519055
496.1934263520079
496.20160405548836
496.20978061487494
496.21795602941097
496.2261302983402
496.2343034209068
496.2424753963553
496.2506462239303
496.2588159028769
496.2669844324407
496.2751518118678
496.28331804040454
496.29148311729773
496.29964704179406
496.30780981314047
496.31597143058434
496.3241318933733
496.33229120075544
496.34044935197926
496.34860634629376
496.3567621829484
496.364916861193
496.373070380278
496.38122273945396
496.3893739379721
496.3975239750839
496.4056728500411
496.4138205620959
496.4219671105009
496.4301124945089
496.438256713373
496.44639976634676
496.45454165268393
496.4626823716387
496.4708219224658
496.4789603044205
496.48709751675847
496.49523355873544
496.5033684296077
496.51150212863195
496.51963465506515
496.5277660081647
496.5358961871882
496.54402519139353
496.55215302003853
496.5602796723813
496.5684051476801
496.5765294451935
496.5846525641805
496.5927745039003
496.60089526361253
496.60901484257715
496.6171332400547
496.6252504553063
496.6333664875931
496.64148133617687
496.64959500031955
496.6577074792833
496.66581877233057
496.6739288787244
496.6820377977283
496.6901455286061
496.6982520706217
496.70635742303966
496.7144615851248
496.7225645561423
496.73066633535745
496.7387669220359
496.74686631544364
496.7549645148472
496.76306151951303
496.7711573287081
496.77925194169984
496.78734535775584
496.7954375761442
496.8035285961332
496.8116184169917
496.81970703798856
496.8277944583931
496.8358806774752
496.8439656945052
496.8520495087537
496.8601321194917
496.86821352599054
496.87629372752167
496.8843727233573
496.89245051276976
496.900527095032
496.9086024694175
496.9166766352
496.9247495916536
496.93282133805246
496.94089187367126
496.9489611977849
496.95702930966877
496.9650962085982
496.973161893849
496.9812263646975
496.9892896204203
496.99735166029495
497.005412483599
497.01347208961056
497.0215304776084
497.0295876468715
497.0376435966791
497.0456983263107
497.0537518350461
497.06180412216577
497.06985518695024
497.07790502868033
497.08595364663756
497.0940010401041
497.10204720836236
497.1100921506952
497.11813586638596
497.1261783547179
497.1342196149749
497.14225964644083
497.15029844840024
497.1583360201382
497.1663723609404
497.1744074700928
497.18244134688166
497.1904739905938
497.19850540051607
497.20653557593573
497.2145645161404
497.22259222041794
497.23061868805644
497.2386439183442
497.24666791057007
497.2546906640232
497.2627121779933
497.2707324517703
497.27875148464454
497.2867692759071
497.2947858248492
497.30280113076265
497.3108151929396
497.3188280106724
497.326839583254
497.3348499099775
497.3428589901364
497.3508668230247
497.35887340793715
497.36687874416884
497.3748828310154
497.38288566777305
497.3908872537386
497.39888758820894
497.4068866704813
497.41488449985354
497.42288107562376
497.4308763970903
497.4388704635519
497.4468632743076
497.45485482865706
497.4628451259007
497.4708341653393
497.47882194627437
497.48680846800767
497.49479372984115
497.50277773107723
497.5107604710188
497.5187419489689
497.52672216423116
497.53470111610955
497.54267880390853
497.5506552269328
497.55863038448774
497.5666042758792
497.5745769004134
497.5825482573971
497.5905183461373
497.5984871659414
497.60645471611724
497.61442099597343
497.62238600481874
497.6303497419626
497.638312206715
497.6462733983865
497.6542333162879
497.6621919597303
497.67014932802476
497.6781054204828
497.6860602364163
497.69401377513736
497.7019660359583
497.7099170181921
497.71786672115195
497.7258151441513
497.73376228650386
497.7417081475239
497.74965272652594
497.7575960228246
497.76553803573483
497.7734787645718
497.7814182086511
497.78935636728875
497.7972932398011
497.80522882550486
497.813163123717
497.82109613375474
497.8290278549357
497.8369582865778
497.8448874279993
497.8528152785191
497.8607418374563
497.86866710413074
497.87659107786226
497.8845137579715
497.8924351437795
497.9003552346078
497.9082740297781
497.91619152861267
497.9241077304339
497.9320226345644
497.93993624032737
497.9478485470461
497.95575955404433
497.9636692606464
497.97157766617715
497.97948476996226
497.98739057132775
497.99529506960016
498.00319826410646
498.0111001541741
498.0190007391311
498.0269000183059
498.03479799102706
498.04269465662355
498.05059001442464
498.0584840637596
498.0663768039583
498.07426823435094
498.08215835426813
498.09004716304094
498.0979346600009
498.1058208444797
498.1137057158094
498.12158927332234
498.12947151635126
498.13735244422924
498.14523205628984
498.1531103518671
498.1609873302955
498.16886299090993
498.1767373330456
498.1846103560381
498.1924820592235
498.2003524419383
498.20822150351955
498.2160892433044
498.2239556606305
498.2318207548358
498.23968452525855
498.2475469712374
498.25540809211157
498.26326788722076
498.27112635590515
498.2789834975056
498.2868393113631
498.29469379681905
498.30254695321514
498.3103987798936
498.3182492761971
498.32609844146873
498.33394627505186
498.3417927762903
498.34963794452824
498.35748177911023
498.3653242793812
498.3731654446865
498.381005274372
498.388843767784
498.39668092426905
498.4045167431739
498.4123512238457
498.42018436563194
498.4280161678803
498.43584662993885
498.4436757511562
498.45150353088115
498.45932996846295
498.4671550632513
498.4749788145964
498.48280122184906
498.4906222843608
498.49844200148345
498.50626037256893
498.5140773969697
498.5218930740384
498.5297074031282
498.53752038359266
498.545332014786
498.55314229606324
498.5609512267797
498.5687588062915
498.57656503395515
498.58436990912764
498.59217343116643
498.5999755994294
498.6077764132747
498.6155758720606
498.623373975146
498.6311707218904
498.63896611165364
498.6467601437962
498.6545528176789
498.66234413266307
498.67013408811044
498.67792268338326
498.68570991784395
498.69349579085565
498.70128030178194
498.70906344998684
498.71684523483486
498.7246256556907
498.73240471191957
498.74018240288706
498.74795872795903
498.7557336865018
498.7635072778819
498.7712795014663
498.7790503566225
498.7868198427184
498.7945879591223
498.8023547052028
498.81012008032917
498.81788408387115
498.8256467151989
498.8334079736833
498.8411678586956
498.8489263696074
498.85668350579044
498.8644392666167
498.8721936514585
498.87994665968813
498.8876982906786
498.89544854380347
498.90319741843723
498.9109449139546
498.918691029731
498.92643576514206
498.9341791195641
498.94192109237406
498.9496616829492
498.95740089066726
498.96513871490606
498.972875155044
498.9806102104599
498.9883438805332
498.9960761646439
499.0038070621724
499.0115365724996
499.01926469500654
499.026991429075
499.0347167740872
499.04244072942606
499.05016329447517
499.05788446861834
499.0656042512396
499.0733226417233
499.0810396394538
499.0887552438162
499.0964694541958
499.10418226997854
499.11189369055046
499.1196037152981
499.12731234360854
499.1350195748689
499.14272540846696
499.1504298437908
499.158132880229
499.1658345171704
499.1735347540041
499.18123359011975
499.18893102490733
499.19662705775704
499.2043216880595
499.2120149152058
499.2197067385871
499.2273971575951
499.235086171622
499.24277378006036
499.250459982303
499.25814477774315
499.26582816577456
499.27351014579153
499.281190717189
499.2888698793622
499.2965476317065
499.30422397361804
499.3118989044931
499.31957242372846
499.32724453072115
499.3349152248686
499.342584505569
499.3502523722211
499.35791882422404
499.3655838609775
499.3732474818812
499.3809096863349
499.3885704737386
499.3962298434926
499.4038877949977
499.41154432765484
499.41919944086567
499.42685313403217
499.43450540655704
499.4421562578434
499.4498056872949
499.4574536943155
499.4651002783098
499.472745438683
499.48038917484087
499.4880314861896
499.4956723721359
499.50331183208687
499.5109498654499
499.51858647163294
499.52622165004436
499.533855400093
499.5414877211881
499.5491186127392
499.55674807415653
499.5643761048507
499.5720027042328
499.57962787171437
499.58725160670724
499.59487390862387
499.6024947768774
499.6101142108812
499.6177322100493
499.6253487737961
499.6329639015362
499.6405775926846
499.64818984665703
499.6558006628693
499.6634100407375
499.6710179796778
499.67862447910693
499.68622953844215
499.69383315710115
499.70143533450187
499.70903607006267
499.7166353632024
499.7242332133401
499.7318296198948
499.73942458228635
499.74701809993485
499.754610172261
499.76220079868585
499.769789978631
499.77737771151874
499.7849639967717
499.79254883381304
499.8001322220666
499.8077141609567
499.8152946499081
499.8228736883459
499.8304512756956
499.8380274113829
499.8456020948338
499.8531753254749
499.8607471027333
499.86831742603636
499.87588629481206
499.88345370848856
499.8910196664947
499.8985841682595
499.9061472132121
499.91370880078216
499.92126893039995
499.92882760149587
499.9363848135006
499.9439405658452
499.9514948579613
499.9590476892806
499.9665990592355
499.9741489672583
499.98169741278207
499.9892443952401
499.9967899140661
500.004333968694
500.01187655855824
500.0194176830935
500.02695734173494
500.0344955339183
500.04203225907963
500.04956751665554
500.05710130608304
500.0646336267994
500.07216447824226
500.0796938598496
500.08722177105983
500.0947482113115
500.102273180044
500.109796676697
500.1173187007107
500.1248392515258
500.1323583285837
500.13987593132606
500.147392059195
500.154906711633
500.16241988808315
500.16993158798914
500.17744181079524
500.1849505559462
500.1924578228875
500.1999636110652
500.20746791992565
500.21497074891545
500.22247209748184
500.22997196507254
500.2374703511357
500.24496725511995
500.2524626764741
500.25995661464754
500.2674490690897
500.2749400392504
500.2824295245798
500.2899175245286
500.2974040385477
500.30488906608844
500.3123726066026
500.31985465954267
500.3273352243614
500.33481430051165
500.3422918874469
500.34976798462094
500.3572425914879
500.3647157075022
500.37218733211876
500.3796574647927
500.38712610497964
500.3945932521358
500.40205890571747
500.4095230651815
500.4169857299853
500.42444689958666
500.4319065734437
500.4393647510153
500.446821431761
500.45427661514077
500.4617303006148
500.4691824876436
500.476633175688
500.48408236420937
500.49153005266953
500.49897624053074
500.5064209272557
500.5138641123076
500.52130579515006
500.52874597524715
500.5361846520634
500.54362182506406
500.5510574937148
500.5584916574817
500.56592431583135
500.57335546823083
500.58078511414783
500.5882132530505
500.5956398844073
500.6030650076873
500.6104886223602
500.6179107278965
500.6253313237671
500.63275040944336
500.64016798439684
500.64758404809936
500.65499860002365
500.66241163964287
500.66982316643066
500.67723317986133
500.6846416794094
500.6920486645497
500.6994541347574
500.70685808950816
500.71426052827815
500.7216614505437
500.7290608557814
500.7364587434681
500.74385511308105
500.75124996409795
500.7586432959972
500.7660351082575
500.77342540035784
500.7808141717778
500.78820142199766
500.795587150498
500.80297135676005
500.81035404026534
500.8177352004959
500.8251148369343
500.8324929490632
500.839869536366
500.84724459832637
500.8546181344284
500.8619901441564
500.8693606269949
500.8767295824291
500.884097009945
500.89146290902886
500.8988272791678
500.90619011984904
500.91355143056035
500.9209112107901
500.9282694600272
500.93562617776115
500.942981363482
500.9503350166801
500.9576871368465
500.9650377234723
500.972386776049
500.9797342940685
500.9870802770231
500.9944247244057
501.00176763570994
501.00910901043017
501.01644884806115
501.0237871480981
501.03112391003674
501.03845913337295
501.04579281760334
501.05312496222473
501.0604555667344
501.06778463063006
501.0751121534099
501.0824381345726
501.089762573617
501.09708547004266
501.10440682334956
501.11172663303773
501.1190448986076
501.12636161956016
501.13367679539647
501.14099042561793
501.14830250972636
501.15561304722405
501.1629220376137
501.1702294803986
501.17753537508224
501.1848397211688
501.19214251816265
501.1994437655685
501.2067434628916
501.21404160963766
501.2213382053128
501.2286332494234
501.2359267414761
501.24321868097763
501.2505090674356
501.2577979003579
501.265085179253
501.27237090362974
501.27965507299746
501.2869376868657
501.2942187447445
501.30149824614455
501.3087761905772
501.3160525775543
501.3233274065881
501.33060067719157
501.33787238887794
501.34514254116084
501.3524111335546
501.359678165574
501.3669436367343
501.37420754655136
501.3814698945414
501.38873068022076
501.3959899031063
501.4032475627155
501.4105036585661
501.4177581901763
501.4250111570648
501.4322625587504
501.43951239475246
501.44676066459056
501.4540073677849
501.46125250385626
501.46849607232525
501.4757380727133
501.4829785045422
501.4902173673345
501.49745466061313
501.50469038390156
501.5119245367234
501.51915711860283
501.52638812906434
501.533617567633
501.54084543383397
501.5480717271935
501.5552964472381
501.5625195934947
501.5697411654903
501.57696116275247
501.58417958480914
501.59139643118874
501.59861170142017
501.605825395033
501.6130375115572
501.62024805052306
501.6274570114613
501.63466439390277
501.6418701973789
501.64907442142135
501.6562770655619
501.66347812933304
501.6706776122678
501.67787551389983
501.68507183376323
501.69226657139257
501.69945972632286
501.7066512980896
501.7138412862289
501.7210296902772
501.7282165097713
501.73540174424875
501.7425853932475
501.74976745630624
501.75694793296407
501.7641268227603
501.77130412523456
501.77847983992683
501.7856539663778
501.7928265041287
501.7999974527211
501.8071668116968
501.8143345805979
501.821500758967
501.8286653463467
501.83582834228037
501.8429897463118
501.85014955798533
501.8573077768458
501.86446440243844
501.8716194343092
501.8787728720042
501.88592471507013
501.893074963054
501.90022361550336
501.9073706719662
501.91451613199115
501.9216599951276
501.92880226092507
501.9359429289336
501.94308199870375
501.95021946978613
501.95735534173195
501.96448961409305
501.97162228642196
501.97875335827166
501.98588282919536
501.99301069874673
502.0001369664799
502.0072616319494
502.0143846947103
502.0215061543179
502.0286260103278
502.0357442622965
502.04286090978053
502.04997595233726
502.05708938952466
502.06420122090117
502.0713114460257
502.07842006445776
502.0855270757572
502.09263247948456
502.0997362752007
502.1068384624673
502.1139390408466
502.12103800990167
502.1281353691959
502.1352311182932
502.1423252567581
502.14941778415596
502.15650870005265
502.1635980040144
502.1706856956075
502.17777177439893
502.18485623995616
502.19193909184696
502.19902032963955
502.2060999529026
502.213177961205
502.2202543541159
502.22732913120467
502.2344022920413
502.2414738361963
502.24854376324083
502.2556120727463
502.2626787642846
502.2697438374282
502.2768072917502
502.2838691268239
502.29092934222354
502.29798793752366
502.3050449122991
502.3121002661253
502.3191539985785
502.32620610923505
502.33325659767183
502.34030546346594
502.3473527061949
502.3543983254365
502.3614423207687
502.3684846917697
502.37552543801826
502.3825645590932
502.38960205457397
502.3966379240403
502.4036721670723
502.41070478325037
502.417735772156
502.42476513337124
502.4317928664789
502.4388189710621
502.44584344670466
502.45286629299085
502.4598875095055
502.4669070958339
502.473925051562
502.4809413762762
502.48795606956355
502.49496913101166
502.5019805602087
502.50899035674365
502.51599852020536
502.5230050501832
502.530009946267
502.53701320804726
502.54401483511515
502.5510148270621
502.5580131834797
502.5650099039599
502.57200498809493
502.5789984354776
502.5859902457014
502.59298041835996
502.59996895304744
502.6069558493584
502.6139411068882
502.62092472523227
502.6279067039866
502.6348870427473
502.64186574111113
502.6488427986749
502.6558182150359
502.6627919897919
502.6697641225412
502.67673461288246
502.683703460415
502.6906706647385
502.69763622545315
502.7046001421595
502.7115624144585
502.7185230419518
502.7254820242415
502.73243936093013
502.7393950516205
502.7463490959158
502.7533014934197
502.76025224373666
502.76720134647144
502.77414880122956
502.781094607617
502.7880387652399
502.79498127370516
502.80192213262035
502.8088613415939
502.815798900235
502.82273480815365
502.8296690649604
502.8366016702662
502.8435326236827
502.85046192482196
502.8573895732968
502.8643155687205
502.87123991070666
502.87816259886927
502.8850836328229
502.89200301218284
502.89892073656483
502.90583680558507
502.9127512188604
502.919663976008
502.9265750766456
502.9334845203914
502.94039230686417
502.947298435683
502.9542029064678
502.961105718839
502.9680068724176
502.9749063668253
502.9818042016841
502.98870037661663
502.9955948912459
503.00248774519537
503.00937893808896
503.01626846955105
503.02315633920625
503.0300425466796
503.0369270915969
503.04380997358453
503.0506911922696
503.05757074727967
503.06444863824277
503.0713248647876
503.0781994265433
503.0850723231397
503.0919435542071
503.0988131193765
503.10568101827903
503.11254725054664
503.1194118158119
503.12627471370774
503.1331359438675
503.13999550592484
503.14685339951393
503.1537096242696
503.16056417982713
503.1674170658225
503.1742682818922
503.18111782767323
503.18796570280324
503.1948119069202
503.20165643966266
503.20849930066925
503.21534048957915
503.222180006032
503.229017849668
503.23585402012804
503.24268851705347
503.24952134008595
503.25635248886783
503.2631819630417
503.2700097622503
503.27683588613695
503.2836603343453
503.2904831065198
503.297304202305
503.304123621346
503.3109413632883
503.3177574277777
503.3245718144601
503.33138452298226
503.33819555299124
503.3450049041346
503.3518125760604
503.3586185684171
503.36542288085366
503.37222551301943
503.37902646456405
503.3858257351378
503.39262332439125
503.39941923197534
503.4062134575415
503.4130060007417
503.4197968612282
503.4265860386538
503.4333735326718
503.4401593429361
503.44694346910137
503.45372591082287
503.46050666775614
503.46728573955716
503.47406312588214
503.480838826388
503.4876128407325
503.49438516857435
503.501155809573
503.50792476338825
503.5146920296804
503.52145760811004
503.5282214983383
503.53498370002694
503.5417442128378
503.548503036433
503.5552601704753
503.5620156146281
503.56876936855497
503.5755214319204
503.58227180438894
503.5890204856257
503.59576747529604
503.6025127730659
503.60925637860146
503.6159982915692
503.62273851163604
503.6294770384691
503.63621387173635
503.64294901110657
503.64968245624914
503.6564142068339
503.66314426253143
503.6698726230127
503.6765992879491
503.6833242570128
503.69004752987667
503.6967691062139
503.7034889856984
503.7102071680049
503.7169236528084
503.7236384397843
503.73035152860825
503.7370629189563
503.74377261050495
503.750480602931
503.7571868959119
503.76389148912517
503.77059438224865
503.77729557496036
503.7839950669388
503.79069285786295
503.7973889474122
503.80408333526657
503.8107760211067
503.8174670046137
503.82415628546937
503.83084386335577
503.83752973795595
503.84421390895363
503.850896376033
503.8575771388787
503.8642561971758
503.87093355060983
503.8776091988668
503.88428314163366
503.8909553785977
503.8976259094468
503.9042947338694
503.91096185155425
503.9176272621903
503.9242909654672
503.93095296107504
503.93761324870434
503.94427182804634
503.95092869879295
503.95758386063653
503.9642373132697
503.97088905638566
503.97753908967843
503.98418741284263
503.9908340255736
503.99747892756704
504.00412211851904
504.010763598126
504.0174033660853
504.0240414220948
504.0306777658527
504.0373123970576
504.04394531540856
504.05057652060555
504.05720601234884
504.06383379033946
504.07045985427885
504.07708420386894
504.0837068388121
504.0903277588111
504.09694696356905
504.10356445278944
504.1101802261762
504.1167942834338
504.1234066242671
504.13001724838136
504.13662615548265
504.1432333452776
504.14983881747366
504.15644257177837
504.1630446079
504.1696449255471
504.1762435244286
504.18284040425397
504.18943556473323
504.196029005577
504.2026207264962
504.2092107272026
504.21579900740835
504.222385566826
504.22897040516864
504.23555352214953
504.2421349174824
504.2487145908815
504.2552925420616
504.2618687707384
504.26844327662775
504.2750160594462
504.28158711891047
504.28815645473765
504.2947240666456
504.301289954353
504.30785411757915
504.3144165560434
504.3209772694654
504.32753625756527
504.33409352006356
504.34064905668106
504.347202867139
504.3537549511591
504.36030530846347
504.36685393877497
504.37340084181665
504.379946017312
504.38648946498506
504.3930311845604
504.39957117576296
504.406109438318
504.41264597195163
504.41918077639025
504.425713851361
504.43224519659134
504.43877481180925
504.4453026967435
504.4518288511233
504.4583532746781
504.4648759671377
504.4713969282325
504.47791615769324
504.484433655251
504.4909494206372
504.49746345358403
504.5039757538243
504.5104863210913
504.5169951551188
504.52350225564123
504.5300076223932
504.5365112551099
504.543013153527
504.54951331738084
504.5560117464079
504.562508440345
504.5690033989299
504.57549662190036
504.58198810899466
504.58847785995135
504.5949658745096
504.60145215240937
504.60793669339114
504.61441949719574
504.6209005635642
504.6273798922382
504.63385748296014
504.6403333354731
504.64680744952057
504.6532798248468
504.6597504611966
504.66621935831563
504.6726865159501
504.6791519338469
504.6856156117533
504.6920775494166
504.6985377465844
504.7049962030053
504.71145291842845
504.71790789260376
504.7243611252816
504.7308126162127
504.7372623651481
504.74371037183937
504.75015663603835
504.7566011574977
504.76304393597025
504.76948497120907
504.7759242629679
504.782361811001
504.78879761506323
504.7952316749099
504.8016639902969
504.8080945609804
504.81452338671716
504.8209504672643
504.82737580237927
504.83379939181987
504.84022123534464
504.8466413327128
504.853059683684
504.8594762880182
504.86589114547587
504.87230425581834
504.87871561880706
504.88512523420377
504.8915331017704
504.8979392212693
504.9043435924634
504.910746215116
504.91714708899076
504.9235462138522
504.9299435894652
504.93633921559535
504.94273309200867
504.9491252184714
504.9555155947503
504.9619042206125
504.96829109582563
504.974676220158
504.98105959337863
504.98744121525715
504.99382108556324
505.0001992040675
505.0065755705407
505.0129501847539
505.0193230464786
505.0256941554867
505.0320635115504
505.0384311144426
505.0447969639365
505.05116105980574
505.0575234018245
505.06388398976765
505.0702428234106
505.0765999025291
505.08295522689946
505.0893087962984
505.09566061050305
505.1020106692913
505.10835897244147
505.1147055197323
505.121050310943
505.12739334585353
505.1337346242442
505.1400741458956
505.14641191058854
505.1527479181043
505.1590821682246
505.1654146607318
505.1717453954086
505.17807437203805
505.18440159040347
505.1907270502886
505.1970507514775
505.2033726937548
505.20969287690605
505.21601130071735
505.2223279649754
505.2286428694672
505.2349560139803
505.24126739830285
505.2475770222236
505.253884885532
505.26019098801794
505.2664953294716
505.2727979096835
505.2790987284445
505.2853977855459
505.2916950807794
505.2979906139369
505.3042843848109
505.3105763931944
505.31686663888104
505.32315512166497
505.32944184134067
505.33572679770305
505.3420099905477
505.34829141967066
505.35457108486867
505.3608489859387
505.3671251226781
505.3733994948848
505.3796721023573
505.38594294489485
505.3922120222969
505.3984793343634
505.4047448808949
505.41100866169245
505.41727067655756
505.42353092529197
505.42978940769785
505.4360461235781
505.442301072736
505.44855425497553
505.45480567010145
505.46105531791864
505.46730319823246
505.47354931084874
505.47979365557353
505.4860362322131
505.4922770405742
505.498516080464
505.50475335169017
505.51098885406077
505.51722258738414
505.52345455146906
505.52968474612476
505.5359131711609
505.5421398263875
505.548364711615
505.55458782665414
505.5608091713159
505.5670287454118
505.573246548754
505.5794625811552
505.5856768424285
505.5918893323874
505.59810005084614
505.60430899761946
505.6105161725227
505.6167215753717
505.62292520598294
505.62912706417364
505.63532714976145
505.64152546256446
505.6477220024012
505.65391676909076
505.6601097624525
505.6663009823062
505.67249042847175
505.6786781007695
505.68486399901985
505.6910481230434
505.69723047266143
505.7034110476957
505.70958984796835
505.7157668733021
505.72194212351997
505.72811559844536
505.7342872979018
505.7404572217133
505.7466253697046
505.75279174170055
505.7589563375268
505.7651191570094
505.7712801999746
505.777439466249
505.7835969556595
505.78975266803354
505.795906603199
505.802058760984
505.80820914121705
505.814357743727
505.8205045683428
505.826649614894
505.83279288321046
505.8389343731226
505.84507408446143
505.8512120170585
505.8573481707458
505.86348254535596
505.86961514072186
505.87574595667684
505.8818749930547
505.88800224968963
505.8941277264164
505.9002514230699
505.90637333948575
505.91249347550024
505.91861183095034
505.9247284056735
505.93084319950776
505.93695621229176
505.9430674438647
505.9491768940661
505.95528456273587
505.9613904497144
505.9674945548427
505.9735968779621
505.9796974189146
505.9857961775426
505.99189315368903
505.9979883471972
506.0040817579111
506.01017338567544
506.0162632303354
506.0223512917364
506.0284375697245
506.03452206414636
506.04060477484904
506.04668570167973
506.05276484448586
506.0588422031151
506.0649177774153
506.0709915672346
506.07706357242137
506.0831337928246
506.08920222829374
506.09526887867855
506.1013337438294
506.1073968235969
506.1134581178321
506.11951762638637
506.1255753491114
506.1316312858596
506.13768543648416
506.14373780083884
506.14978837877766
506.15583717015465
506.1618841748243
506.16792939264155
506.1739728234618
506.1800144671404
506.1860543235332
506.19209239249653
506.1981286738869
506.2041631675613
506.2101958733772
506.2162267911922
506.2222559208642
506.2282832622516
506.23430881521335
506.2403325796088
506.2463545552978
506.2523747421408
506.2583931399988
506.2644097487332
506.2704245682057
506.27643759827833
506.2824488388135
506.2884582896738
506.2944659507227
506.300471821824
506.30647590284184
506.3124781936408
506.31847869408557
506.3244774040413
506.33047432337344
506.3364694519478
506.34246278963064
506.348454336289
506.35444409179036
506.36043205600254
506.36641822879415
506.3724026100342
506.37838519959246
506.38436599733905
506.39034500314483
506.3963222168809
506.402297638419
506.40827126763133
506.41424310439083
506.42021314857107
506.4261814000463
506.432147858691
506.4381125243799
506.44407539698796
506.45003647639055
506.4559957624633
506.4619532550821
506.467908954123
506.47386285946254
506.4798149709775
506.48576528854505
506.4917138120427
506.49766054134807
506.5036054763393
506.50954861689524
506.51548996289534
506.52142951421956
506.5273672707483
506.5333032323624
506.53923739894344
506.5451697703734
506.55110034653444
506.55702912730953
506.56295611258224
506.5688813022366
506.5748046961571
506.5807262942287
506.5866460963366
506.59256410236617
506.59848031220326
506.6043947257342
506.6103073428458
506.6162181634252
506.62212718735987
506.62803441453775
506.6339398448472
506.63984347817654
506.6457453144146
506.6516453534507
506.6575435951743
506.66344003947484
506.66933468624234
506.6752275353672
506.68111858674
506.6870078402517
506.6928952957933
506.6987809532566
506.7046648125338
506.7105468735174
506.71642713610026
506.722305600176
506.72818226563845
506.73405713238185
506.73993020030093
506.74580146929065
506.7516709392462
506.75753861006297
506.7634044816368
506.7692685538643
506.77513082664245
506.7809912998687
506.7868499734409
506.7927068472575
506.79856192121747
506.8044151952204
506.81026666916614
506.8161163429552
506.82196421648837
506.82781028966724
506.83365456239403
506.83949703457165
506.84533770610324
506.85117657689216
506.85701364684223
506.86284891585774
506.8686823838432
506.8745140507035
506.8803439163439
506.8861719806698
506.89199824358707
506.897822705002
506.90364536482116
506.90946622295155
506.9152852793004
506.9211025337752
506.92691798628357
506.9327316367335
506.93854348503305
506.9443535310909
506.950161774816
506.955968216118
506.9617728549067
506.96757569109263
506.97337672458616
506.97917595529816
506.98497338313996
506.9907690080229
506.9965628298585
507.00235484855875
507.00814506403594
507.01393347620274
507.0197200849725
507.02550489025884
507.0312878919758
507.0370690900377
507.04284848435896
507.0486260748546
507.0544018614398
507.06017584403
507.0659480225413
507.0717183968902
507.0774869669938
507.08325373276944
507.0890186941351
507.094781851009
507.1005432033096
507.10630275095605
507.1120604938676
507.117816431964
507.1235705651652
507.1293228933914
507.13507341656305
507.14082213460074
507.1465690474254
507.1523141549583
507.15805745712123
507.16379895383625
507.16953864502534
507.175276530611
507.18101261051584
507.1867468846633
507.192479352977
507.1982100153807
507.20393887179875
507.2096659221561
507.21539116637814
507.221114604391
507.226836236121
507.2325560614952
507.238274080441
507.24399029288634
507.2497046987594
507.2554172979883
507.26112809050164
507.2668370762283
507.2725442550977
507.27824962703994
507.2839531919856
507.28965494986574
507.2953549006122
507.30105304415724
507.30674938043353
507.312443909374
507.318136630912
507.32382754498144
507.32951665151654
507.33520395045207
507.3408894417232
507.34657312526565
507.35225500101546
507.357935068909
507.3636133288828
507.3692897808737
507.3749644248187
507.380637260655
507.3863082883204
507.3919775077525
507.3976449188897
507.4033105216706
507.4089743160341
507.414636301919
507.4202964792646
507.42595484801063
507.4316114080973
507.437266159465
507.4429191020547
507.44857023580744
507.4542195606648
507.459867076569
507.46551278346305
507.47115668129027
507.4767987699945
507.4824390495203
507.48807751981235
507.4937141808157
507.4993490324755
507.50498207473765
507.5106133075483
507.5162427308537
507.52187034460053
507.5274961487355
507.5331201432059
507.5387423279592
507.5443627029431
507.54998126810574
507.5555980233953
507.5612129687604
507.56682610414964
507.57243742951187
507.57804694479637
507.5836546499529
507.58926054493145
507.59486462968243
507.6004669041565
507.6060673683048
507.6116660220789
507.6172628654308
507.62285789831276
507.6284511206775
507.63404253247813
507.6396321336679
507.6452199242003
507.6508059040293
507.6563900731089
507.6619724313939
507.66755297883947
507.6731317154008
507.6787086410334
507.6842837556926
507.6898570593344
507.69542855191526
507.7009982333923
507.70656610372293
507.71213216286515
507.7176964107773
507.72325884741804
507.72881947274595
507.73437828672036
507.739935289301
507.7454904804481
507.7510438601223
507.75659542828475
507.7621451848968
507.76769312991973
507.7732392633154
507.77878358504586
507.78432609507354
507.78986679336117
507.7954056798717
507.80094275456827
507.80647801741407
507.8120114683727
507.817543107408
507.8230729344841
507.8286009495655
507.83412715261693
507.8396515436034
507.84517412249033
507.8506948892434
507.8562138438285
507.861730986212
507.86724631636025
507.8727598342398
507.8782715398172
507.8837814330593
507.88928951393314
507.89479578240594
507.9003002384454
507.90580288201977
507.91130371309737
507.91680273164684
507.92229993763704
507.92779533103703
507.93328891181636
507.938780679945
507.9442706353932
507.9497587781316
507.9552451081313
507.9607296253639
507.96621232980124
507.97169322141576
507.97717230018
507.9826495660666
507.98812501904854
507.993598659099
507.9990704861916
508.00454050030044
508.0100087013998
508.0154750894642
508.0209396644684
508.0264024263877
508.0318633751979
508.0373225108749
508.0427798333949
508.04823534273464
508.0536890388714
508.0591409217827
508.06459099144604
508.07003924783885
508.0754856909389
508.0809303207245
508.0863731371744
508.0918141402674
508.0972533299828
508.10269070630034
508.10812626920006
508.1135600186626
508.1189919546689
508.1244220772003
508.12985038623856
508.13527688176623
508.14070156376624
508.146124432222
508.1515454871171
508.1569647284357
508.16238215616204
508.1677977702809
508.1732115707773
508.17862355763646
508.184033730844
508.18944209038614
508.1948486362494
508.20025336842036
508.20565628688587
508.2110573916332
508.21645668265
508.22185415992476
508.22724982344585
508.2326436732021
508.23803570918267
508.2434259313768
508.2488143397743
508.2542009343654
508.2595857151405
508.26496868209006
508.27034983520525
508.2757291744774
508.2811066998979
508.28648241145856
508.29185630915117
508.297228392968
508.3025986629018
508.3079671189455
508.3133337610923
508.318698589336
508.32406160367054
508.32942280409
508.33478219058884
508.3401397631619
508.3454955218042
508.3508494665109
508.35620159727773
508.3615519141008
508.3669004169767
508.3722471059025
508.37759198087565
508.3829350418937
508.3882762889541
508.3936157220551
508.39895334119524
508.40428914637346
508.4096231375888
508.4149553148409
508.4202856781294
508.4256142274544
508.43094096281584
508.436265884214
508.4415889916497
508.44691028512443
508.45222976464015
508.4575474301994
508.46286328180486
508.4681773194593
508.4734895431659
508.4787999529285
508.48410854875124
508.4894153306386
508.4947202985952
508.5000234526258
508.50532479273556
508.51062431893
508.5159220312148
508.5212179295961
508.52651201408025
508.5318042846741
508.53709474138486
508.5423833842201
508.54767021318753
508.5529552282951
508.558238429551
508.5635198169639
508.5687993905426
508.57407715029626
508.5793530962344
508.58462722836657
508.5898995467028
508.59517005125304
508.60043874202756
508.6057056190373
508.61097068229356
508.61623393180844
508.6214953675942
508.6267549896636
508.63201279802956
508.6372687927055
508.64252297370535
508.64777534104314
508.6530258947332
508.65827463479013
508.6635215612289
508.6687666740647
508.6740099733131
508.6792514589895
508.68449113110955
508.68972898968923
508.6949650347444
508.7001992662913
508.7054316843464
508.7106622889264
508.7158910800483
508.72111805772965
508.72634322198815
508.731566572842
508.73678811030936
508.7420078344087
508.74722574515886
508.75244184257895
508.7576561266885
508.76286859750735
508.7680792550559
508.7732880993549
508.7784951304252
508.7837003482882
508.7889037529658
508.79410534447993
508.79930512285296
508.80450308810737
508.8096992402659
508.8148935793515
508.8200861053872
508.8252768183961
508.8304657184017
508.83565280542757
508.84083807949787
508.8460215406369
508.85120318886925
508.8563830242199
508.8615610467141
508.8667372563773
508.87191165323543
508.8770842373149
508.882255008642
508.88742396724365
508.8925911131471
508.8977564463801
508.90291996697033
508.9080816749456
508.91324157033364
508.9183996531624
508.92355592345984
508.9287103812542
508.9338630265738
508.9390138594474
508.94416287990407
508.9493100879731
508.9544554836841
508.9595990670671
508.96474083815247
508.9698807969712
508.97501894355423
508.9801552779329
508.98528980013907
508.9904225102048
508.9955534081623
509.0006824940442
509.0058097678832
509.01093522971223
509.01605887956475
509.0211807174744
509.02630074347485
509.03141895759995
509.0365353598838
509.0416499503608
509.04676272906545
509.05187369603254
509.0569828512971
509.0620901948946
509.06719572686075
509.07229944723167
509.07740135604377
509.08250145333363
509.0875997391379
509.0926962134936
509.097790876438
509.1028837280089
509.1079747682443
509.1130639971823
509.11815141486136
509.1232370213204
509.1283208165985
509.1334028007352
509.13848297377035
509.1435613357439
509.1486378866964
509.1537126266685
509.1587855557011
509.1638566738354
509.1689259811126
509.17399347757396
509.1790591632612
509.18412303821583
509.18918510247977
509.1942453560948
509.19930379910306
509.2043604315468
509.2094152534685
509.21446826491115
509.21951946591776
509.2245688565315
509.2296164367958
509.23466220675414
509.2397061664501
509.2447483159276
509.2497886552312
509.25482718440617
509.2598639034977
509.26489881255134
509.2699319116125
509.2749632007269
509.2799926799405
509.28502034929943
509.2900462088501
509.29507025863927
509.3000924987141
509.3051129291216
509.3101315499091
509.3151483611241
509.3201633628146
509.3251765550285
509.33018793781457
509.3351975112216
509.340205275299
509.34521123009654
509.3502153756642
509.35521771205254
509.3602182393122
509.3652169574941
509.37021386664946
509.3752089668292
509.3802022580844
509.38519374046655
509.3901834140272
509.39517127881845
509.4001573348926
509.40514158230235
509.4101240211007
509.4151046513407
509.42008347307524
509.4250604863573
509.4300356912404
509.4350090877783
509.43998067602547
509.4449504560366
509.4499184278668
509.45488459157104
509.4598489472046
509.4648114948229
509.4697722344815
509.4747311662361
509.4796882901426
509.4846436062571
509.4895971146359
509.49454881533507
509.49949870841124
509.50444679392126
509.50939307192243
509.5143375424723
509.5192802056283
509.5242210614483
509.52916010999024
509.5340973513123
509.5390327854734
509.54396641253265
509.54889823254916
509.5538282455823
509.55875645169135
509.5636828509357
509.56860744337473
509.57353022906796
509.5784512080754
509.5833703804576
509.5882877462752
509.593203305589
509.5981170584598
509.60302900494867
509.6079391451167
509.6128474790253
509.61775400673605
509.6226587283106
509.62756164381085
509.6324627532988
509.63736205683654
509.6422595544864
509.6471552463106
509.65204913237153
509.6569412127312
509.6618314874522
509.66671995659703
509.6716066202282
509.6764914784087
509.68137453120175
509.6862557786708
509.69113522087946
509.69601285789145
509.7008886897704
509.70576271658024
509.71063493838506
509.7155053552492
509.72037396723726
509.7252407744138
509.7301057768434
509.7349689745911
509.73983036772233
509.74468995630286
509.74954774039816
509.7544037200737
509.75925789539497
509.7641102664277
509.76896083323777
509.7738095958914
509.778656554455
509.7835017089951
509.78834505957843
509.7931866062718
509.79802634914176
509.80286428825525
509.8077004236791
509.8125347554801
509.81736728372516
509.82219800848156
509.8270269298166
509.8318540477976
509.8366793624921
509.8415028739678
509.84632458229294
509.851144487536
509.8559625897658
509.8607788890515
509.86559338546226
509.8704060790676
509.8752169699371
509.8800260581404
509.884833343747
509.88963882682697
509.89444250745055
509.899244385688
509.9040444616096
509.9088427352858
509.91363920678714
509.91843387618405
509.9232267435473
509.9280178089473
509.9328070724548
509.93759453414077
509.94238019407635
509.9471640523327
509.95194610898125
509.95672636409336
509.96150481774043
509.9662814699939
509.9710563209251
509.97582937060565
509.9806006191077
509.98537006650326
509.99013771286445
509.99490355826333
509.999667602772
510.0044298464625
510.00919028940734
510.0139489316791
510.0187057733506
510.02346081449446
510.02821405518375
510.03296549549145
510.0377151354903
510.0424629752531
510.0472090148528
510.05195325436216
510.0566956938542
510.06143633340207
510.06617517307905
510.0709122129581
510.07564745311197
510.08038089361344
510.08511253453526
510.08984237595064
510.0945704179328
510.09929666055496
510.1040211038903
510.1087437480121
510.11346459299375
510.1181836389087
510.12290088583086
510.1276163338341
510.1323299829926
510.1370418333802
510.14175188507056
510.1464601381374
510.15116659265436
510.1558712486949
510.1605741063322
510.1652751656393
510.16997442668935
510.1746718895556
510.1793675543113
510.1840614210296
510.18875348978395
510.1934437606476
510.19813223369374
510.20281890899605
510.2075037866284
510.21218686666475
510.21686814917916
510.2215476342458
510.2262253219387
510.2309012123321
510.23557530550033
510.2402476015179
510.2449181004597
510.2495868024005
510.2542537074148
510.2589188155773
510.2635821269628
510.26824364164577
510.2729033597009
510.2775612812027
510.2822174062255
510.28687173484354
510.29152426713085
510.2961750031618
510.30082394301076
510.30547108675205
510.31011643446027
510.31475998621
510.3194017420758
510.32404170213226
510.32867986645397
510.3333162351157
510.3379508081928
510.34258358576085
510.3472145678959
510.35184375467384
510.35647114617086
510.36109674246336
510.3657205436282
510.3703425497424
510.3749627608836
510.37958117712947
510.3841977985585
510.38881262524956
510.3934256572818
510.3980368947348
510.40264633768834
510.4072539862227
510.4118598404184
510.4164639003561
510.4210661661168
510.42566663778166
510.4302653154323
510.4348621991503
510.4394572890178
510.44405058511734
510.44864208753165
510.4532317963435
510.4578197116359
510.46240583349186
510.4669901619948
510.47157269722834
510.4761534392767
510.4807323882244
510.4853095441565
510.4898849071583
510.4944584773152
510.49903025471303
510.5036002394377
510.5081684315751
510.5127348312117
510.51729943843407
510.52186225332935
510.52642327598505
510.5309825064892
510.5355399449297
510.5400955913949
510.5446494459734
510.5492015087541
510.55375177982637
510.5583002592796
510.5628469472033
510.5673918436876
510.5719349488229
510.5764762627002
510.58101578541095
510.5855535170465
510.59008945769824
510.59462360745806
510.5991559664178
510.6036865346698
510.6082153123068
510.6127422994218
510.61726749610807
510.6217909024592
510.62631251856874
510.6308323445303
510.635350380438
510.63986662638627
510.6443810824694
510.64889374878203
510.6534046254187
510.6579137124743
510.6624210100438
510.66692651822245
510.67143023710605
510.6759321667905
510.6804323073718
510.6849306589463
510.6894272216107
510.69392199546155
510.69841498059554
510.7029061771095
510.7073955851008
510.7118832046674
510.7163690359075
510.72085307891984
510.7253353338033
510.72981580065675
510.7342944795794
510.7387713706705
510.7432464740298
510.74771978975696
510.7521913179521
510.7566610587155
510.76112901214765
510.76559517834903
510.77005955742015
510.774522149462
510.77898295457567
510.78344197286265
510.7878992044248
510.7923546493639
510.79680830778216
510.8012601797816
510.80571026546477
510.8101585649347
510.8146050782948
510.8190498056488
510.8234927471003
510.82793390275333
510.8323732727122
510.83681085708145
510.8412466559662
510.8456806694719
510.85011289770455
510.85454334077053
510.8589719987765
510.8633988718291
510.86782396003537
510.8722472635029
510.8766687823395
510.8810885166529
510.8855064665511
510.8899226321421
510.89433701353414
510.8987496108357
510.90316042415566
510.9075694536032
510.9119766992874
510.91638216131787
510.92078583980447
510.9251877348572
510.9295878465864
510.9339861751025
510.93838272051653
510.9427774829396
510.9471704624832
510.9515616592589
510.9559510733784
510.9603387049533
510.9647245540955
510.9691086209168
510.9734909055294
510.97787140804553
510.9822501285778
510.98662706723917
510.9910022241429
510.99537559940245
510.9997471931315
511.0041170054442
511.0084850364549
511.0128512862782
511.01721575502893
511.02157844282215
511.0259393497731
511.03029847599737
511.0346558216106
511.0390113867288
511.04336517146817
511.0477171759453
511.05206740027734
511.0564158445818
511.0607625089765
511.0651073935794
511.069450498509
511.073791823884
511.0781313698235
511.0824691364469
511.086805123874
511.0911393322251
511.09547176162073
511.0998024121816
511.10413128402865
511.1084583772831
511.11278369206616
511.117107228499
511.121428986703
511.12574896679985
511.1300671689114
511.1343835931598
511.1386982396675
511.1430111085572
511.14732219995153
511.1516315139736
511.15593905074684
511.1602448103947
511.1645487930407
511.1688509988087
511.17315142782263
511.17745008020665
511.1817469560849
511.18604205558177
511.1903353788216
511.19462692592924
511.19891669702974
511.2032046922484
511.2074909117107
511.2117753555424
511.21605802386966
511.2203389168187
511.22461803451574
511.22889537708716
511.2331709446594
511.2374447373588
511.2417167553119
511.2459869986451
511.2502554674845
511.2545221619564
511.25878708218715
511.2630502283034
511.2673116004321
511.27157119870026
511.275829023235
511.2800850741637
511.2843393516141
511.28859185571423
511.2928425865921
511.2970915443757
511.30133872919305
511.3055841411724
511.3098277804422
511.3140696471314
511.31830974136915
511.32254806328456
511.32678461300725
511.33101939066705
511.335252396394
511.3394836303187
511.34371309257153
511.3479407832833
511.3521667025848
511.3563908506069
511.3606132274808
511.36483383333757
511.3690526683083
511.3732697325245
511.3774850261177
511.3816985492199
511.3859103019631
511.39012028447974
511.3943284969023
511.39853493936357
511.4027396119966
511.4069425149346
511.4111436483106
511.4153430122576
511.41954060690864
511.42373643239716
511.4279304888569
511.4321227764217
511.43631329522555
511.4405020454026
511.4446890270867
511.4488742404121
511.4530576855134
511.4572393625251
511.46141927158214
511.46559741281953
511.46977378637257
511.473948392377
511.47812123096855
511.48229230228344
511.4864616064583
511.4906291436298
511.4947949139348
511.49895891751066
511.5031211544947
511.50728162502423
511.51144032923685
511.51559726726987
511.5197524392606
511.52390584534646
511.52805748566516
511.53220736035473
511.5363554695532
511.5405018133988
511.5446463920298
511.54878920558417
511.55293025419996
511.5570695380152
511.56120705716785
511.565342811796
511.56947680203757
511.57360902803066
511.5777394899135
511.58186818782474
511.58599512190335
511.59012029228825
511.59424369911835
511.5983653425326
511.6024852226701
511.6066033396701
511.6107196936721
511.61483428481574
511.6189471132409
511.62305817908737
511.62716748249477
511.63127502360294
511.63538080255194
511.6394848194816
511.643587074532
511.6476875678434
511.6517862995561
511.6558832698104
511.6599784787468
511.6640719265058
511.6681636132282
511.67225353905474
511.67634170412634
511.68042810858424
511.68451275256984
511.6885956362248
511.69267675969087
511.69675612310976
511.70083372662367
511.7049095703754
511.7089836545079
511.7130559791647
511.71712654448976
511.7211953506276
511.7252623977234
511.72932768592256
511.73339121537134
511.73745298621617
511.7415129986039
511.74557125268194
511.74962774859824
511.7536824865013
511.7577354665403
511.76178668886456
511.7658361536242
511.7698838609695
511.77392981105146
511.7779740040215
511.7820164400312
511.78605711923257
511.7900960417779
511.7941332078199
511.79816861751175
511.80220227100705
511.80623416846
511.8102643100254
511.81429269585857
511.8183193261155
511.82234420095284
511.82636732052794
511.8303886849988
511.8344082945237
511.83842614926135
511.8424422493711
511.8464565950126
511.85046918634595
511.85448002353183
511.85848910673127
511.8624964361057
511.8665020118172
511.87050583402817
511.87450790290137
511.8785082186001
511.8825067812882
511.8865035911302
511.89049864829104
511.89449195293656
511.8984835052332
511.90247330534777
511.9064613534477
511.91044764970053
511.9144321942743
511.9184149873375
511.92239602905926
511.926375319609
511.9303528591568
511.93432864787343
511.93830268593007
511.9422749734986
511.9462455107517
511.95021429786226
511.9541813350041
511.9581466223513
511.96211016007857
511.96607194836093
511.97003198737417
511.97399027729426
511.9779468182979
511.98190161056215
511.98585465426464
511.9898059495834
511.99375549669713
511.997703295785
512.0016493470266
512.0055936506021
512.009536206692
512.0134770154771
512.0174160771383
512.0213533918566
512.0252889598132
512.0292227811899
512.033154856169
512.037085184933
512.0410137676647
512.0449406045477
512.0488656957659
512.0527890415037
512.056710641946
512.0606304972778
512.0645486076846
512.0684649733523
512.0723795944668
512.0762924712144
512.0802036037817
512.0841129923558
512.0880206371241
512.091926538274
512.0958306959933
512.0997331104697
512.1036337818916
512.1075327104475
512.111429896326
512.115325339716
512.1192190408069
512.1231109997882
512.1270012168502
512.1308896921835
512.1347764259785
512.1386614184266
512.1425446697194
512.146426180049
512.1503059496081
512.1541839785893
512.1580602671859
512.1619348155909
512.1658076239983
512.1696786926016
512.1735480215953
512.1774156111737
512.1812814615319
512.1851455728647
512.1890079453681
512.1928685792382
512.1967274746712
512.2005846318639
512.2044400510133
512.2082937323169
512.2121456759719
512.2159958821765
512.2198443511288
512.2236910830275
512.2275360780714
512.2313793364599
512.2352208583927
512.2390606440699
512.2428986936923
512.2467350074605
512.2505695855757
512.2544024282388
512.258233535651
512.2620629080138
512.2658905455291
512.2697164483989
512.2735406168254
512.2773630510114
512.2811837511606
512.2850027174768
512.2888199501645
512.2926354494282
512.2964492154729
512.3002612485036
512.3040715487255
512.3078801163438
512.3116869515643
512.315492054593
512.319295425636
512.3230970648997
512.3268969725907
512.330695148916
512.3344915940829
512.3382863082993
512.3420792917732
512.3458705447131
512.3496600673277
512.3534478598265
512.3572339224186
512.3610182553139
512.3648008587224
512.3685817328546
512.372360877921
512.3761382941325
512.3799139817004
512.3836879408361
512.3874601717516
512.3912306746593
512.3949994497716
512.3987664973017
512.4025318174631
512.4062954104697
512.410057276536
512.413817415877
512.4175758287086
512.4213325152468
512.4250874757086
512.4288407103109
512.4325922192709
512.4363420028062
512.4400900611347
512.4438363944746
512.4475810030444
512.4513238870632
512.45506504675
512.4588044823242
512.4625421940059
512.4662781820152
512.4700124465728
512.4737449878996
512.477475806217
512.4812049017464
512.48493227471
512.48865792533
512.4923818538293
512.4961040604308
512.4998245453576
512.5035433088333
512.5072603510816
512.5109756723266
512.5146892727926
512.5184011527044
512.5221113122877
512.5258197517683
512.5295264713723
512.5332314713264
512.5369347518576
512.5406363131933
512.544336155561
512.5480342791886
512.5517306843044
512.5554253711375
512.559118339917
512.5628095908719
512.5664991242325
512.5701869402292
512.5738730390929
512.5775574210543
512.5812400863442
512.5849210351935
512.5886002678333
512.5922777844953
512.5959535854113
512.5996276708131
512.6033000409334
512.6069706960052
512.610639636262
512.6143068619381
512.6179723732682
512.6216361704878
512.6252982538326
512.6289586235387
512.6326172798422
512.6362742229796
512.6399294531884
512.6435829707066
512.6472347757726
512.6508848686253
512.6545332495039
512.6581799186476
512.6618248762966
512.6654681226905
512.6691096580698
512.6727494826757
512.6763875967495
512.6800240005325
512.6836586942666
512.6872916781933
512.6909229525547
512.6945525175929
512.6981803735503
512.7018065206696
512.7054309591945
512.7090536893684
512.712674711435
512.7162940256383
512.7199116322222
512.7235275314313
512.7271417235102
512.7307542087037
512.7343649872569
512.7379740594147
512.7415814254227
512.745187085527
512.7487910399741
512.7523932890103
512.7559938328827
512.7595926718379
512.7631898061231
512.7667852359857
512.770378961673
512.7739709834327
512.7775613015124
512.7811499161601
512.7847368276243
512.7883220361537
512.7919055419968
512.795487345403
512.7990674466218
512.8026458459035
512.8062225434987
512.809797539659
512.8133708346354
512.8169424286789
512.8205123220409
512.8240805149735
512.8276470077285
512.8312118005581
512.8347748937153
512.8383362874533
512.8418959820256
512.8454539776858
512.8490102746878
512.8525648732852
512.8561177737322
512.8596689762826
512.8632184811909
512.8667662887119
512.8703123991011
512.8738568126146
512.8773995295091
512.8809405500417
512.8844798744699
512.8880175030513
512.8915534360433
512.8950876737035
512.8986202162896
512.9021510640591
512.9056802172695
512.9092076761776
512.9127334410405
512.9162575121154
512.9197798896598
512.9233005739316
512.9268195651887
512.9303368636893
512.9338524696914
512.9373663834535
512.9408786052343
512.9443891352923
512.9478979738865
512.9514051212755
512.9549105777182
512.958414343474
512.9619164188025
512.9654168039638
512.9689154992179
512.9724125048251
512.9759078210457
512.9794014481404
512.9828933863703
512.9863836359964
512.9898721972797
512.9933590704816
512.9968442558634
513.0003277536871
513.0038095642149
513.0072896877091
513.0107681244324
513.0142448746478
513.0177199386185
513.0211933166077
513.0246650088784
513.028135015694
513.0316033373178
513.0350699740129
513.0385349260423
513.0419981936691
513.0454597771563
513.0489196767671
513.0523778927645
513.0558344254118
513.0592892749723
513.0627424417096
513.0661939258875
513.0696437277704
513.0730918476229
513.0765382857096
513.079983042295
513.0834261176433
513.0868675120189
513.0903072256865
513.0937452589108
513.0971816119568
513.1006162850904
513.1040492785773
513.1074805926837
513.110910227676
513.1143381838201
513.1177644613826
513.1211890606305
513.1246119818302
513.1280332252479
513.1314527911504
513.1348706798049
513.1382868914789
513.1417014264402
513.1451142849569
513.1485254672966
513.1519349737277
513.1553428045186
513.1587489599378
513.1621534402541
513.1655562457356
513.1689573766507
513.1723568332679
513.175754615856
513.179150724684
513.1825451600212
513.1859379221373
513.1893290113026
513.1927184277872
513.1961061718621
513.199492243798
513.2028766438661
513.2062593723379
513.2096404294844
513.2130198155769
513.2163975308865
513.2197735756845
513.223147950242
513.2265206548304
513.2298916897212
513.2332610551857
513.236628751496
513.2399947789243
513.2433591377426
513.2467218282231
513.2500828506381
513.2534422052604
513.2567998923623
513.2601559122161
513.2635102650943
513.2668629512696
513.270213971015
513.2735633246034
513.2769110123077
513.2802570344006
513.2836013911551
513.286944082844
513.2902851097406
513.2936244721186
513.2969621702523
513.3002982044159
513.3036325748835
513.3069652819299
513.3102963258302
513.3136257068595
513.3169534252929
513.320279481406
513.3236038754749
513.3269266077755
513.3302476785843
513.3335670881784
513.3368848368345
513.3402009248298
513.3435153524415
513.3468281199471
513.3501392276244
513.3534486757512
513.3567564646057
513.360062594466
513.3633670656104
513.3666698783186
513.3699710328704
513.3732705295458
513.3765683686256
513.3798645503903
513.3831590751201
513.3864519430958
513.3897431545979
513.3930327099074
513.3963206093058
513.399606853075
513.4028914414973
513.406174374855
513.4094556534305
513.4127352775063
513.4160132473648
513.4192895632891
513.4225642255619
513.4258372344666
513.4291085902862
513.4323782933043
513.4356463438044
513.4389127420702
513.4421774883854
513.4454405830334
513.4487020262977
513.451961818462
513.4552199598097
513.4584764506242
513.4617312911892
513.4649844817886
513.4682360227071
513.4714859142287
513.4747341566379
513.4779807502196
513.4812256952591
513.4844689920419
513.4877106408535
513.4909506419795
513.4941889957056
513.497425702318
513.5006607621026
513.5038941753462
513.5071259423355
513.510356063357
513.5135845386976
513.5168113686445
513.5200365534852
513.5232600935074
513.5264819889996
513.5297022402508
513.5329208475498
513.5361378111857
513.5393531314471
513.5425668086236
513.5457788430053
513.5489892348826
513.5521979845457
513.5554050922851
513.5586105583914
513.5618143831553
513.5650165668676
513.5682171098188
513.5714160122993
513.5746132745999
513.577808897011
513.5810028798232
513.5841952233277
513.5873859278154
513.5905749935769
513.5937624209025
513.5969482100827
513.6001323614078
513.603314875168
513.6064957516542
513.6096749911567
513.6128525939662
513.6160285603737
513.6192028906703
513.6223755851468
513.6255466440939
513.6287160678023
513.6318838565626
513.6350500106655
513.6382145304019
513.6413774160628
513.6445386679397
513.6476982863242
513.6508562715076
513.6540126237815
513.6571673434378
513.6603204307685
513.663471886065
513.666621709619
513.669769901722
513.6729164626659
513.6760613927422
513.6792046922428
513.6823463614596
513.6854864006846
513.6886248102096
513.6917615903271
513.69489674133
513.6980302635109
513.7011621571626
513.7042924225784
513.7074210600517
513.710548069876
513.7136734523449
513.7167972077516
513.7199193363895
513.7230398385514
513.7261587145299
513.7292759646175
513.7323915891061
513.7355055882877
513.7386179624541
513.7417287118976
513.7448378369104
513.747945337785
513.7510512148142
513.7541554682907
513.7572580985075
513.7603591057573
513.7634584903328
513.7665562525269
513.7696523926327
513.7727469109434
513.7758398077526
513.7789310833541
513.7820207380416
513.7851087721092
513.788195185851
513.7912799795615
513.7943631535354
513.7974447080676
513.800524643453
513.8036029599866
513.8066796579637
513.8097547376797
513.8128281994295
513.8159000435087
513.8189702702125
513.8220388798363
513.8251058726755
513.8281712490252
513.8312350091805
513.8342971534371
513.8373576820904
513.8404165954362
513.8434738937699
513.8465295773876
513.8495836465854
513.8526361016593
513.8556869429055
513.8587361706209
513.8617837851016
513.8648297866437
513.8678741755434
513.8709169520971
513.8739581166008
513.8769976693502
513.8800356106408
513.8830719407683
513.8861066600282
513.8891397687157
513.8921712671263
513.8952011555552
513.8982294342977
513.9012561036484
513.9042811639017
513.9073046153519
513.9103264582936
513.9133466930216
513.9163653198304
513.9193823390151
513.9223977508705
513.925411555691
513.9284237537713
513.9314343454066
513.9344433308925
513.9374507105244
513.9404564845979
513.9434606534082
513.9464632172508
513.9494641764213
513.9524635312155
513.9554612819288
513.9584574288572
513.9614519722963
513.9644449125421
513.9674362498904
513.9704259846367
513.9734141170766
513.9764006475061
513.9793855762214
513.9823689035184
513.9853506296929
513.9883307550408
513.9913092798574
513.9942862044377
513.9972615290767
514.0002352540698
514.0032073797122
514.006177906299
514.0091468341252
514.0121141634863
514.0150798946781
514.0180440279964
514.021006563737
514.0239675021958
514.0269268436682
514.0298845884495
514.0328407368345
514.0357952891181
514.0387482455958
514.0416996065633
514.0446493723166
514.0475975431518
514.050544119365
514.0534891012524
514.0564324891102
514.0593742832348
514.0623144839224
514.065253091469
514.068190106171
514.0711255283245
514.0740593582264
514.0769915961728
514.0799222424598
514.0828512973835
514.0857787612395
514.088704634323
514.0916289169293
514.0945516093534
514.0974727118905
514.1003922248356
514.1033101484836
514.1062264831303
514.1091412290712
514.1120543866018
514.1149659560174
514.117875937613
514.1207843316838
514.1236911385249
514.1265963584315
514.1294999916986
514.1324020386212
514.1353024994937
514.1382013746104
514.1410986642654
514.1439943687535
514.1468884883689
514.1497810234059
514.1526719741594
514.1555613409241
514.1584491239946
514.1613353236648
514.1642199402286
514.1671029739794
514.1699844252103
514.1728642942144
514.1757425812848
514.1786192867146
514.1814944107969
514.1843679538244
514.1872399160907
514.1901102978891
514.1929790995132
514.1958463212563
514.1987119634116
514.2015760262723
514.2044385101315
514.2072994152818
514.2101587420154
514.2130164906248
514.215872661402
514.2187272546394
514.2215802706291
514.2244317096638
514.227281572036
514.230129858038
514.2329765679619
514.2358217021001
514.2386652607452
514.2415072441895
514.2443476527253
514.2471864866448
514.25002374624
514.2528594318032
514.2556935436266
514.2585260820024
514.2613570472222
514.2641864395775
514.2670142593599
514.2698405068606
514.2726651823709
514.2754882861818
514.2783098185839
514.2811297798671
514.2839481703213
514.2867649902364
514.2895802399023
514.2923939196087
514.295206029645
514.2980165703007
514.3008255418649
514.3036329446272
514.306438778877
514.3092430449037
514.3120457429961
514.314846873443
514.3176464365333
514.3204444325561
514.3232408618001
514.3260357245542
514.3288290211074
514.3316207517478
514.3344109167642
514.3371995164457
514.339986551081
514.3427720209586
514.3455559263671
514.3483382675952
514.3511190449317
514.3538982586651
514.3566759090841
514.3594519964768
514.3622265211316
514.3649994833368
514.3677708833802
514.3705407215493
514.3733089981313
514.376075713413
514.3788408676813
514.381604461223
514.3843664943246
514.3871269672728
514.3898858803549
514.3926432338584
514.3953990280712
514.3981532632814
514.4009059397775
514.4036570578486
514.4064066177838
514.4091546198723
514.4119010644039
514.4146459516684
514.4173892819564
514.4201310555585
514.4228712727657
514.4256099338694
514.4283470391609
514.4310825889323
514.433816583476
514.4365490230842
514.4392799080496
514.442009238665
514.444737015224
514.4474632380203
514.4501879073485
514.4529110235036
514.455632586781
514.4583525974771
514.4610710558885
514.463787962312
514.4665033170446
514.4692171203832
514.4719293726251
514.4746400740681
514.47734922501
514.4800568257493
514.4827628765848
514.4854673778153
514.4881703297398
514.4908717326574
514.4935715868677
514.496269892671
514.4989666503674
514.5016618602573
514.5043555226415
514.5070476378208
514.5097382060966
514.5124272277702
514.5151147031435
514.5178006325181
514.5204850161962
514.5231678544809
514.5258491476758
514.5285288960848
514.5312071000125
514.5338837597636
514.5365588756439
514.5392324479593
514.5419044770159
514.5445749631202
514.547243906579
514.5499113076991
514.552577166788
514.5552414841535
514.5579042601038
514.5605654949471
514.5632251889919
514.565883342547
514.5685399559221
514.5711950294273
514.5738485633725
514.5765005580687
514.5791510138268
514.5817999309578
514.5844473097728
514.5870931505837
514.589737453702
514.5923802194401
514.5950214481105
514.5976611400264
514.6002992955013
514.6029359148487
514.6055709983826
514.608204546418
514.6108365592698
514.6134670372534
514.6160959806845
514.6187233898792
514.621349265154
514.6239736068259
514.626596415212
514.6292176906301
514.6318374333977
514.6344556438329
514.6370723222543
514.6396874689807
514.6423010843313
514.6449131686257
514.647523722184
514.650132745326
514.6527402383721
514.655346201643
514.65795063546
514.660553540144
514.663154916016
514.6657547633971
514.6683530826084
514.6709498739712
514.6735451378066
514.6761388744368
514.6787310841836
514.6813217673697
514.6839109243182
514.6864985553524
514.6890846607956
514.6916692409717
514.6942522962046
514.6968338268183
514.6994138331369
514.7019923154847
514.7045692741868
514.7071447095681
514.709718621954
514.7122910116708
514.7148618790446
514.7174312244023
514.7199990480711
514.7225653503787
514.7251301316527
514.7276933922211
514.730255132412
514.7328153525538
514.7353740529749
514.7379312340043
514.7404868959715
514.7430410392057
514.7455936640366
514.7481447707943
514.750694359809
514.7532424314116
514.7557889859335
514.7583340237064
514.760877545063
514.7634195503357
514.7659600398573
514.7684990139609
514.77103647298
514.7735724172484
514.7761068470996
514.7786397628678
514.7811711648873
514.783701053493
514.7862294290204
514.7887562918048
514.7912816421821
514.793805480488
514.7963278070587
514.7988486222301
514.8013679263385
514.8038857197201
514.8064020027117
514.8089167756497
514.8114300388708
514.8139417927122
514.8164520375116
514.8189607736066
514.8214680013351
514.8239737210355
514.8264779330467
514.8289806377082
514.8314818353596
514.8339815263408
514.8364797109924
514.8389763896545
514.8414715626672
514.843965230371
514.8464573931068
514.8489480512152
514.8514372050371
514.8539248549135
514.8564110011858
514.8588956441955
514.8613787842843
514.8638604217939
514.8663405570659
514.8688191904415
514.8712963222623
514.8737719528698
514.8762460826059
514.8787187118131
514.8811898408338
514.8836594700105
514.8861275996854
514.8885942302019
514.8910593619033
514.8935229951336
514.8959851302369
514.8984457675575
514.9009049074401
514.9033625502299
514.9058186962724
514.9082733459135
514.9107264994994
514.9131781573773
514.9156283198944
514.9180769873986
514.920524160238
514.9229698387604
514.9254140233141
514.9278567142477
514.9302979119101
514.9327376166501
514.9351758288166
514.9376125487587
514.940047776826
514.9424815133679
514.9449137587338
514.9473445132738
514.949773777338
514.952201551277
514.9546278354413
514.9570526301817
514.9594759358484
514.9618977527924
514.9643180813649
514.9667369219172
514.9691542748009
514.9715701403678
514.97398451897
514.9763974109595
514.9788088166885
514.981218736509
514.983627170774
514.9860341198358
514.9884395840471
514.9908435637602
514.993246059328
514.9956470711037
514.9980465994405
515.0004446446918
515.0028412072114
515.0052362873529
515.00762988547
515.010022001917
515.0124126370487
515.0148017912196
515.017189464785
515.0195756581
515.0219603715199
515.0243436053998
515.0267253600958
515.0291056359637
515.0314844333592
515.0338617526382
515.0362375941569
515.0386119582712
515.0409848453372
515.0433562557113
515.0457261897494
515.0480946478077
515.0504616302425
515.0528271374095
515.0551911696647
515.057553727364
515.0599148108639
515.0622744205206
515.0646325566901
515.0669892197283
515.069344409991
515.0716981278341
515.0740503736132
515.0764011476839
515.0787504504025
515.0810982821257
515.0834446432103
515.0857895340131
515.088132954891
515.0904749062014
515.0928153883018
515.0951544015501
515.0974919463043
515.0998280229227
515.1021626317635
515.104495773185
515.1068274475459
515.1091576552052
515.1114863965219
515.1138136718547
515.116139481563
515.1184638260064
515.1207867055447
515.123108120538
515.1254280713459
515.1277465583279
515.1300635818435
515.1323791422527
515.1346932399159
515.137005875194
515.1393170484479
515.1416267600388
515.1439350103277
515.1462417996762
515.1485471284462
515.150850997
515.1531534056998
515.1554543549079
515.1577538449868
515.1600518762988
515.1623484492064
515.1646435640724
515.1669372212594
515.1692294211301
515.1715201640471
515.1738094503731
515.1760972804708
515.1783836547028
515.180668573432
515.1829520370212
515.1852340458339
515.1875146002338
515.189793700585
515.192071347252
515.1943475405993
515.1966222809918
515.1988955687945
515.2011674043719
515.2034377880885
515.2057067203087
515.2079742013967
515.2102402317167
515.212504811633
515.2147679415101
515.2170296217122
515.219289852604
515.2215486345502
515.2238059679156
515.2260618530646
515.2283162903617
515.2305692801718
515.2328208228599
515.2350709187907
515.2373195683289
515.2395667718391
515.2418125296862
515.2440568422347
515.24629970985
515.248541132897
515.2507811117415
515.2530196467495
515.2552567382871
515.2574923867204
515.2597265924154
515.2619593557382
515.2641906770554
515.2664205567338
515.268648995141
515.2708759926448
515.2731015496132
515.275325666414
515.2775483434156
515.2797695809867
515.2819893794962
515.2842077393128
515.2864246608059
515.2886401443449
515.2908541902992
515.2930667990385
515.2952779709325
515.2974877063517
515.2996960056665
515.3019028692471
515.3041082974643
515.3063122906891
515.3085148492929
515.310715973647
515.3129156641229
515.3151139210921
515.317310744926
515.3195061359955
515.3217000946719
515.3238926213261
515.3260837163297
515.3282733800542
515.3304616128715
515.3326484151538
515.3348337872734
515.3370177296032
515.3392002425161
515.3413813263854
515.343560981585
515.3457392084891
515.3479160074718
515.3500913789072
515.3522653231702
515.3544378406353
515.3566089316777
515.3587785966723
515.3609468359947
515.3631136500206
515.3652790391264
515.3674430036887
515.369605544084
515.3717666606896
515.3739263538822
515.3760846240392
515.3782414715382
515.3803968967571
515.3825509000743
515.3847034818681
515.3868546425173
515.3890043824009
515.3911527018985
515.3932996013899
515.3954450812556
515.3975891418762
515.3997317836325
515.4018730069055
515.4040128120758
515.4061511995245
515.4082881696321
515.4104237227797
515.4125578593488
515.414690579721
515.4168218842773
515.4189517733986
515.4210802474662
515.4232073068614
515.4253329519655
515.4274571831601
515.4295800008268
515.4317014053476
515.433821397104
515.4359399764784
515.4380571438531
515.4401728996107
515.442287244134
515.4444001778064
515.4465117010114
515.4486218141332
515.4507305175556
515.4528378116628
515.454943696839
515.4570481734685
515.4591512419355
515.4612529026243
515.4633531559192
515.4654520022044
515.4675494418642
515.4696454752828
515.4717401028446
515.4738333249339
515.4759251419356
515.4780155542343
515.4801045622152
515.4821921662636
515.4842783667649
515.4863631641036
515.4884465586646
515.4905285508327
515.4926091409928
515.49468832953
515.4967661168288
515.4988425032735
515.5009174892492
515.5029910751408
515.5050632613332
515.5071340482112
515.5092034361595
515.511271425563
515.5133380168071
515.5154032102774
515.5174670063597
515.5195294054396
515.5215904079035
515.5236500141378
515.5257082245288
515.5277650394627
515.5298204593258
515.5318744845048
515.5339271153865
515.535978352358
515.5380281958068
515.5400766461202
515.5421237036861
515.5441693688921
515.5462136421257
515.5482565237747
515.550298014227
515.5523381138704
515.5543768230931
515.5564141422832
515.5584500718286
515.5604846121172
515.5625177635369
515.5645495264761
515.566579901323
515.5686088884664
515.5706364882946
515.5726627011962
515.5746875275603
515.5767109677753
515.5787330222296
515.5807536913113
515.5827729754088
515.5847908749105
515.5868073902051
515.5888225216819
515.5908362697304
515.5928486347401
515.594859617101
515.5968692172031
515.5988774354367
515.600884272192
515.6028897278592
515.6048938028283
515.6068964974901
515.6088978122351
515.610897747454
515.6128963035375
515.6148934808765
515.6168892798622
515.6188837008857
515.6208767443385
515.6228684106121
515.6248587000979
515.6268476131876
515.6288351502732
515.6308213117471
515.6328060980017
515.6347895094287
515.6367715464206
515.6387522093695
515.6407314986674
515.6427094147065
515.644685957879
515.6466611285772
515.6486349271933
515.650607354119
515.6525784097461
515.6545480944668
515.6565164086732
515.6584833527571
515.6604489271107
515.6624131321263
515.6643759681964
515.6663374357134
515.6682975350703
515.67025626666
515.6722136308753
515.6741696281091
515.6761242587544
515.678077523204
515.6800294218509
515.6819799550882
515.683929123309
515.685876926906
515.6878233662718
515.6897684417994
515.6917121538821
515.6936545029133
515.6955954892868
515.6975351133964
515.6994733756359
515.7014102763991
515.7033458160801
515.7052799950728
515.707212813771
515.7091442725681
515.7110743718575
515.7130031120327
515.7149304934868
515.7168565166133
515.7187811818054
515.7207044894557
515.7226264399568
515.7245470337012
515.7264662710819
515.7283841524921
515.7303006783253
515.732215848975
515.734129664835
515.7360421262991
515.7379532337612
515.7398629876151
515.7417713882545
515.7436784360729
515.7455841314635
515.7474884748198
515.7493914665355
515.751293107004
515.7531933966185
515.7550923357722
515.7569899248584
515.7588861642702
515.7607810544008
515.762674595644
515.7645667883932
515.766457633042
515.7683471299837
515.7702352796113
515.7721220823183
515.774007538498
515.7758916485435
515.7777744128474
515.7796558318026
515.7815359058021
515.7834146352387
515.7852920205052
515.7871680619943
515.7890427600986
515.7909161152105
515.7927881277225
515.7946587980267
515.7965281265155
515.7983961135809
515.8002627596155
515.8021280650122
515.8039920301638
515.8058546554633
515.8077159413032
515.8095758880758
515.8114344961735
515.8132917659885
515.8151476979127
515.8170022923381
515.8188555496569
515.8207074702613
515.8225580545433
515.8244073028949
515.8262552157079
515.828101793374
515.829947036285
515.8317909448332
515.8336335194109
515.8354747604106
515.8373146682246
515.8391532432448
515.8409904858628
515.8428263964701
515.8446609754582
515.8464942232184
515.8483261401419
515.8501567266197
515.8519859830427
515.8538139098015
515.8556405072867
515.8574657758894
515.859289716001
515.8611123280124
515.8629336123148
515.8647535692995
515.8665721993581
515.8683895028815
515.8702054802606
515.872020131886
515.8738334581486
515.8756454594396
515.87745613615
515.879265488671
515.8810735173937
515.8828802227093
515.8846856050089
515.8864896646836
515.8882924021244
515.8900938177222
515.8918939118679
515.8936926849523
515.8954901373658
515.8972862694985
515.8990810817407
515.9008745744826
515.9026667481147
515.9044576030279
515.9062471396124
515.9080353582584
515.9098222593565
515.911607843297
515.9133921104702
515.915175061266
515.9169566960744
515.9187370152853
515.920516019289
515.9222937084763
515.9240700832378
515.9258451439636
515.9276188910438
515.9293913248686
515.9311624458279
515.9329322543116
515.9347007507096
515.9364679354115
515.9382338088075
515.9399983712871
515.9417616232403
515.9435235650568
515.9452841971266
515.9470435198397
515.9488015335859
515.9505582387552
515.9523136357371
515.9540677249214
515.9558205066979
515.9575719814567
515.9593221495878
515.9610710114817
515.9628185675289
515.9645648181196
515.9663097636445
515.9680534044948
515.9697957410614
515.9715367737355
515.9732765029086
515.9750149289722
515.9767520523177
515.9784878733368
515.9802223924218
515.981955609965
515.983687526359
515.9854181419965
515.9871474572707
515.9888754725745
515.9906021883011
515.9923276048436
515.9940517225951
515.9957745419489
515.997496063298
515.9992162870354
516.0009352135545
516.0026528432485
516.0043691765105
516.0060842137342
516.0077979553131
516.0095104016406
516.0112215531097
516.0129314101142
516.0146399730476
516.0163472423038
516.0180532182768
516.019757901361
516.0214612919516
516.0231633904435
516.0248641972315
516.0265637127105
516.0282619372753
516.0299588713202
516.0316545152401
516.0333488694301
516.0350419342855
516.0367337102012
516.0384241975725
516.040113396794
516.0418013082609
516.0434879323681
516.0451732695107
516.0468573200839
516.0485400844829
516.0502215631026
516.0519017563385
516.0535806645859
516.0552582882405
516.0569346276981
516.058609683355
516.0602834556081
516.0619559448543
516.0636271514906
516.0652970759144
516.0669657185232
516.0686330797145
516.0702991598856
516.0719639594337
516.0736274787561
516.0752897182502
516.0769506783134
516.0786103593429
516.0802687617353
516.0819258858879
516.0835817321978
516.0852363010621
516.086889592878
516.0885416080429
516.0901923469543
516.0918418100101
516.0934899976088
516.0951369101491
516.0967825480303
516.0984269116515
516.1000700014121
516.101711817712
516.1033523609514
516.10499163153
516.1066296298474
516.108266356303
516.1099018112969
516.111535995229
516.113168908499
516.1148005515068
516.1164309246527
516.118060028337
516.1196878629604
516.1213144289237
516.122939726628
516.1245637564745
516.1261865188645
516.1278080141993
516.12942824288
516.1310472053079
516.132664901885
516.1342813330131
516.1358964990937
516.1375104005289
516.13912303772
516.1407344110688
516.1423445209772
516.1439533678471
516.1455609520805
516.1471672740796
516.1487723342469
516.1503761329851
516.1519786706971
516.1535799477855
516.155179964653
516.1567787217028
516.1583762193383
516.1599724579627
516.1615674379792
516.163161159791
516.1647536238014
516.166344830414
516.1679347800329
516.1695234730624
516.1711109099075
516.1726970909725
516.1742820166618
516.1758656873795
516.1774481035305
516.1790292655195
516.1806091737513
516.1821878286311
516.1837652305636
516.1853413799541
516.1869162772076
516.188489922729
516.1900623169232
516.1916334601952
516.1932033529503
516.1947719955937
516.1963393885304
516.1979055321655
516.199470426904
516.2010340731514
516.2025964713135
516.2041576217965
516.2057175250064
516.2072761813494
516.2088335912318
516.2103897550606
516.2119446732423
516.2134983461841
516.2150507742932
516.2166019579769
516.2181518976425
516.2197005936974
516.2212480465492
516.2227942566057
516.2243392242741
516.225882949962
516.227425434077
516.2289666770258
516.2305066792156
516.2320454410536
516.233582962947
516.2351192453026
516.2366542885271
516.2381880930274
516.2397206592103
516.2412519874828
516.2427820782515
516.244310931923
516.2458385489034
516.2473649295988
516.2488900744157
516.2504139837607
516.2519366580401
516.2534580976602
516.2549783030273
516.2564972745478
516.2580150126279
516.259531517674
516.2610467900923
516.2625608302891
516.2640736386708
516.2655852156441
516.2670955616155
516.2686046769915
516.270112562179
516.2716192175845
516.2731246436148
516.2746288406762
516.2761318091754
516.2776335495192
516.2791340621151
516.2806333473701
516.2821314056915
516.2836282374861
516.2851238431609
516.2866182231231
516.28811137778
516.2896033075386
516.2910940128064
516.2925834939903
516.2940717514974
516.2955587857351
516.297044597111
516.2985291860329
516.3000125529085
516.3014946981458
516.302975622153
516.3044553253382
516.3059338081097
516.3074110708759
516.3088871140454
516.3103619380269
516.311835543229
516.3133079300607
516.3147790989311
516.3162490502503
516.317717784428
516.3191853018742
516.320651602999
516.3221166882125
516.3235805579253
516.3250432125477
516.3265046524901
516.327964878163
516.3294238899765
516.330881688341
516.332338273667
516.3337936463653
516.3352478068467
516.3367007555227
516.3381524928046
516.339603019104
516.3410523348319
516.3425004404006
516.3439473362226
516.3453930227112
516.3468375002793
516.3482807693409
516.3497228303103
516.3511636836016
516.3526033296292
516.3540417688076
516.3554790015513
516.356915028275
516.3583498493937
516.3597834653223
516.3612158764757
516.3626470832693
516.3640770861181
516.3655058854373
516.3669334816419
516.3683598751467
516.3697850663663
516.3712090557159
516.372631843611
516.3740534304674
516.3754738167007
516.3768930027271
516.3783109889629
516.3797277758243
516.3811433637283
516.3825577530919
516.3839709443329
516.3853829378689
516.3867937341182
516.3882033334991
516.3896117364303
516.3910189433308
516.3924249546195
516.3938297707158
516.3952333920394
516.3966358190099
516.398037052047
516.3994370915701
516.4008359379985
516.4022335917517
516.4036300532492
516.4050253229108
516.4064194011561
516.4078122884056
516.4092039850801
516.4105944916008
516.4119838083885
516.4133719358646
516.414758874451
516.4161446245697
516.417529186643
516.4189125610932
516.4202947483426
516.421675748814
516.4230555629302
516.4244341911143
516.4258116337891
516.4271878913777
516.4285629643035
516.42993685299
516.4313095578606
516.432681079339
516.4340514178492
516.4354205738149
516.4367885476598
516.4381553398083
516.4395209506848
516.4408853807143
516.4422486303221
516.4436106999332
516.4449715899729
516.4463313008667
516.4476898330407
516.4490471869202
516.4504033629304
516.4517583614964
516.4531121830438
516.4544648279983
516.4558162967863
516.4571665898342
516.4585157075684
516.4598636504155
516.4612104188026
516.4625560131564
516.4639004339039
516.4652436814723
516.466585756289
516.467926658781
516.469266389376
516.4706049485011
516.4719423365838
516.4732785540515
516.4746136013317
516.4759474788526
516.4772801870421
516.4786117263283
516.4799420971393
516.4812712999036
516.4825993350495
516.4839262030054
516.4852519042003
516.4865764390632
516.4878998080236
516.4892220115106
516.4905430499538
516.4918629237831
516.4931816334289
516.4944991793221
516.4958155618939
516.497130781575
516.4984448387967
516.4997577339899
516.5010694675856
516.5023800400148
516.5036894517092
516.5049977031
516.506304794619
516.5076107266985
516.5089154997712
516.51021911427
516.5115215706281
516.5128228692791
516.5141230106568
516.5154219951952
516.5167198233286
516.5180164954917
516.5193120121197
516.5206063736481
516.5218995805127
516.5231916331494
516.5244825319938
516.5257722774817
516.5270608700483
516.5283483101292
516.5296345981595
516.5309197345747
516.5322037198106
516.5334865543031
516.5347682384885
516.5360487728036
516.5373281576857
516.538606393572
516.5398834808999
516.5411594201072
516.542434211632
516.5437078559124
516.5449803533869
516.5462517044942
516.5475219096737
516.5487909693651
516.5500588840083
516.5513256540434
516.5525912799106
516.5538557620504
516.555119100903
516.5563812969089
516.5576423505087
516.5589022621438
516.5601610322559
516.5614186612871
516.5626751496796
516.5639304978757
516.5651847063176
516.5664377754478
516.5676897057091
516.568940497545
516.5701901513993
516.571438667716
516.5726860469396
516.5739322895146
516.575177395886
516.5764213664994
516.5776642018005
516.5789059022353
516.5801464682496
516.5813859002895
516.5826241988012
516.5838613642312
516.5850973970263
516.5863322976337
516.5875660665009
516.5887987040754
516.5900302108051
516.5912605871382
516.5924898335232
516.5937179504093
516.5949449382455
516.596170797481
516.5973955285655
516.5986191319488
516.599841608081
516.6010629574126
516.6022831803942
516.6035022774762
516.6047202491089
516.6059370957431
516.6071528178296
516.60836741582
516.6095808901661
516.6107932413196
516.6120044697321
516.6132145758553
516.6144235601408
516.6156314230406
516.6168381650062
516.6180437864895
516.6192482879422
516.620451669817
516.6216539325666
516.622855076644
516.6240551025029
516.6252540105974
516.6264518013814
516.6276484753095
516.6288440328357
516.6300384744148
516.631231800502
516.6324240115522
516.6336151080214
516.6348050903656
516.6359939590412
516.6371817145047
516.638368357212
516.6395538876196
516.6407383061841
516.6419216133621
516.6431038096108
516.6442848953874
516.6454648711486
516.6466437373518
516.6478214944549
516.648998142916
516.6501736831932
516.651348115745
516.65252144103
516.653693659507
516.6548647716348
516.6560347778726
516.6572036786798
516.6583714745165
516.6595381658425
516.6607037531179
516.6618682368024
516.6630316173561
516.6641938952388
516.665355070911
516.6665151448334
516.6676741174666
516.6688319892709
516.6699887607068
516.6711444322351
516.6722990043166
516.6734524774125
516.6746048519843
516.6757561284938
516.6769063074029
516.6780553891734
516.6792033742676
516.6803502631477
516.6814960562768
516.6826407541179
516.683784357134
516.6849268657883
516.6860682805442
516.6872086018656
516.6883478302162
516.6894859660605
516.6906230098629
516.6917589620883
516.6928938232021
516.6940275936694
516.6951602739554
516.6962918645257
516.6974223658466
516.6985517783841
516.699680102604
516.7008073389724
516.701933487955
516.703058550018
516.7041825256277
516.7053054152508
516.7064272193539
516.7075479384042
516.7086675728691
516.7097861232158
516.7109035899119
516.7120199734253
516.7131352742239
516.714249492776
516.7153626295504
516.7164746850159
516.7175856596413
516.7186955538958
516.7198043682487
516.7209121031691
516.7220187591264
516.7231243365901
516.7242288360302
516.7253322579169
516.7264346027199
516.727535870909
516.728636062954
516.7297351793248
516.7308332204915
516.7319301869242
516.7330260790931
516.7341208974689
516.7352146425222
516.7363073147238
516.7373989145448
516.7384894424564
516.7395788989301
516.7406672844373
516.7417545994496
516.7428408444379
516.7439260198734
516.7450101262274
516.7460931639715
516.7471751335776
516.7482560355178
516.7493358702644
516.7504146382897
516.7514923400662
516.7525689760663
516.753644546763
516.7547190526294
516.7557924941392
516.7568648717655
516.757936185982
516.7590064372624
516.7600756260807
516.7611437529105
516.7622108182253
516.7632768224988
516.7643417662047
516.7654056498167
516.7664684738091
516.7675302386566
516.768590944834
516.7696505928169
516.7707091830813
516.7717667161036
516.7728231923603
516.7738786123285
516.7749329764853
516.775986285308
516.777038539274
516.7780897388606
516.7791398845451
516.7801889768056
516.7812370161199
516.7822840029663
516.7833299378229
516.7843748211677
516.7854186534786
516.7864614352333
516.7875031669095
516.7885438489853
516.7895834819393
516.7906220662497
516.791659602395
516.7926960908538
516.7937315321047
516.7947659266264
516.7957992748976
516.7968315773973
516.797862834604
516.7988930469968
516.7999222150553
516.800950339259
516.8019774200874
516.8030034580205
516.8040284535385
516.8050524071219
516.8060753192511
516.8070971904066
516.8081180210687
516.809137811718
516.8101565628345
516.8111742748987
516.8121909483906
516.8132065837909
516.8142211815806
516.8152347422407
516.8162472662524
516.817258754097
516.8182692062561
516.8192786232111
516.8202870054437
516.821294353436
516.8223006676702
516.8233059486291
516.8243101967959
516.8253134126538
516.8263155966862
516.8273167493763
516.8283168712081
516.8293159626654
516.8303140242318
516.8313110563907
516.8323070596256
516.8333020344197
516.8342959812566
516.8352889006197
516.8362807929929
516.8372716588595
516.8382614987034
516.8392503130082
516.8402381022573
516.8412248669346
516.8422106075233
516.8431953245071
516.8441790183696
516.8451616895944
516.8461433386655
516.8471239660665
516.8481035722817
516.8490821577951
516.8500597230906
516.8510362686515
516.8520117949612
516.8529863025036
516.8539597917626
516.8549322632215
516.8559037173635
516.8568741546718
516.8578435756298
516.8588119807204
516.8597793704267
516.8607457452316
516.8617111056177
516.8626754520677
516.8636387850642
516.8646011050895
516.8655624126262
516.8665227081564
516.867481992162
516.8684402651251
516.8693975275274
516.8703537798507
516.8713090225764
516.8722632561861
516.8732164811616
516.8741686979848
516.8751199071372
516.8760701091006
516.8770193043568
516.8779674933879
516.8789146766757
516.8798608547019
516.8808060279488
516.8817501968989
516.8826933620347
516.8836355238385
516.8845766827925
516.8855168393792
516.8864559940815
516.8873941473825
516.8883312997649
516.8892674517116
516.8902026037052
516.891136756229
516.8920699097663
516.8930020648003
516.8939332218137
516.8948633812892
516.8957925437097
516.896720709558
516.8976478793169
516.8985740534687
516.8994992324959
516.9004234168809
516.9013466071063
516.9022688036547
516.9031900070084
516.9041102176501
516.9050294360619
516.9059476627261
516.9068648981246
516.9077811427386
516.9086963970498
516.9096106615399
516.9105239366908
516.911436222984
516.9123475209011
516.9132578309235
516.9141671535323
516.9150754892083
516.9159828384326
516.9168892016859
516.9177945794494
516.9186989722042
516.9196023804317
516.9205048046134
516.9214062452312
516.9223067027666
516.923206177701
516.9241046705155
516.9250021816912
516.925898711709
516.9267942610494
516.927688830193
516.9285824196203
516.9294750298112
516.9303666612456
516.9312573144028
516.9321469897626
516.9330356878044
516.9339234090074
516.9348101538511
516.9356959228147
516.9365807163775
516.9374645350189
516.9383473792185
516.9392292494562
516.9401101462116
516.9409900699646
516.9418690211947
516.9427470003815
516.9436240080043
516.9445000445429
516.9453751104769
516.9462492062861
516.9471223324502
516.9479944894496
516.9488656777643
516.9497358978748
516.9506051502616
516.9514734354051
516.9523407537857
516.9532071058842
516.9540724921811
516.9549369131572
516.9558003692931
516.95666286107
516.9575243889689
516.958384953471
516.9592445550574
516.960103194209
516.9609608714067
516.9618175871318
516.9626733418653
516.9635281360878
516.9643819702798
516.9652348449218
516.9660867604949
516.9669377174802
516.9677877163584
516.9686367576104
516.969484841717
516.9703319691592
516.9711781404184
516.9720233559755
516.9728676163116
516.9737109219076
516.9745532732437
516.9753946708005
516.9762351150583
516.9770746064979
516.9779131455999
516.9787507328452
516.9795873687148
516.9804230536889
516.9812577882484
516.9820915728739
516.982924408046
516.9837562942456
516.9845872319537
516.9854172216513
516.9862462638197
516.9870743589398
516.9879015074931
516.9887277099605
516.9895529668228
516.9903772785607
516.9912006456547
516.9920230685854
516.9928445478339
516.9936650838814
516.994484677209
516.9953033282978
516.9961210376288
516.9969378056825
516.9977536329394
516.9985685198802
516.9993824669849
517.0001954747335
517.0010075436056
517.0018186740812
517.0026288666398
517.0034381217614
517.0042464399256
517.0050538216123
517.005860267301
517.0066657774715
517.0074703526028
517.0082739931739
517.009076699664
517.0098784725518
517.0106793123163
517.0114792194362
517.0122781943902
517.013076237657
517.0138733497148
517.0146695310422
517.0154647821176
517.0162591034197
517.0170524954264
517.0178449586164
517.0186364934685
517.0194271004615
517.0202167800738
517.021005532784
517.0217933590706
517.0225802594117
517.0233662342856
517.0241512841702
517.024935409543
517.025718610881
517.0265008886612
517.0272822433607
517.0280626754565
517.0288421854256
517.029620773745
517.0303984408919
517.0311751873434
517.0319510135768
517.0327259200693
517.0334999072983
517.0342729757409
517.0350451258743
517.0358163581753
517.0365866731212
517.0373560711888
517.0381245528553
517.0388921185971
517.039658768891
517.0404245042131
517.0411893250401
517.0419532318487
517.0427162251152
517.0434783053164
517.0442394729286
517.044999728428
517.0457590722907
517.0465175049925
517.047275027009
517.0480316388156
517.0487873408873
517.0495421336994
517.050296017727
517.0510489934446
517.0518010613272
517.0525522218494
517.0533024754858
517.0540518227107
517.0548002639981
517.0555477998222
517.0562944306565
517.0570401569745
517.057784979249
517.0585288979529
517.0592719135583
517.0600140265373
517.0607552373611
517.0614955465013
517.0622349544286
517.062973461614
517.063711068528
517.0644477756413
517.0651835834241
517.0659184923464
517.0666525028786
517.0673856154907
517.068117830653
517.0688491488357
517.0695795705091
517.070309096143
517.071037726207
517.0717654611707
517.0724923015031
517.073218247673
517.0739433001492
517.0746674594001
517.0753907258944
517.0761131001003
517.0768345824857
517.0775551735181
517.078274873665
517.0789936833938
517.0797116031721
517.0804286334672
517.0811447747463
517.0818600274764
517.082574392124
517.0832878691557
517.0840004590376
517.0847121622359
517.0854229792166
517.086132910446
517.0868419563902
517.087550117515
517.0882573942862
517.0889637871695
517.0896692966306
517.090373923135
517.0910776671475
517.0917805291327
517.0924825095548
517.0931836088774
517.0938838275641
517.0945831660787
517.0952816248849
517.0959792044467
517.0966759052275
517.0973717276903
517.0980666722979
517.0987607395126
517.0994539297961
517.1001462436103
517.1008376814165
517.1015282436755
517.1022179308483
517.1029067433955
517.1035946817775
517.1042817464544
517.1049679378856
517.1056532565302
517.1063377028471
517.1070212772946
517.1077039803312
517.1083858124153
517.1090667740058
517.1097468655604
517.1104260875364
517.1111044403912
517.1117819245814
517.1124585405636
517.1131342887942
517.1138091697295
517.1144831838261
517.1151563315406
517.1158286133294
517.116500029649
517.1171705809555
517.117840267705
517.1185090903535
517.1191770493568
517.1198441451701
517.120510378248
517.1211757490452
517.121840258016
517.1225039056147
517.1231666922953
517.1238286185115
517.1244896847171
517.1251498913656
517.1258092389104
517.1264677278049
517.1271253585027
517.1277821314574
517.1284380471224
517.1290931059506
517.1297473083947
517.1304006549075
517.1310531459418
517.1317047819506
517.1323555633866
517.1330054907024
517.1336545643504
517.1343027847826
517.1349501524509
517.1355966678074
517.1362423313043
517.1368871433937
517.1375311045275
517.1381742151581
517.1388164757371
517.1394578867165
517.1400984485477
517.1407381616822
517.1413770265711
517.142015043666
517.1426522134178
517.143288536278
517.1439240126975
517.1445586431272
517.1451924280171
517.1458253678178
517.1464574629791
517.1470887139509
517.1477191211828
517.1483486851247
517.1489774062258
517.1496052849351
517.1502323217018
517.1508585169748
517.1514838712036
517.1521083848378
517.1527320583269
517.1533548921205
517.1539768866681
517.1545980424195
517.1552183598243
517.1558378393319
517.1564564813915
517.1570742864523
517.1576912549634
517.1583073873738
517.1589226841328
517.1595371456893
517.1601507724926
517.160763564991
517.161375523633
517.1619866488667
517.1625969411401
517.1632064009012
517.1638150285975
517.1644228246768
517.1650297895866
517.1656359237742
517.1662412276866
517.1668457017707
517.1674493464731
517.1680521622396
517.1686541495166
517.1692553087499
517.1698556403861
517.1704551448714
517.1710538226524
517.1716516741757
517.1722486998877
517.1728449002352
517.1734402756646
517.1740348266227
517.1746285535559
517.1752214569102
517.1758135371318
517.1764047946666
517.1769952299604
517.1775848434592
517.1781736356082
517.1787616068531
517.1793487576389
517.1799350884108
517.1805205996142
517.1811052916931
517.1816891650918
517.1822722202543
517.1828544576241
517.1834358776445
517.1840164807585
517.1845962674091
517.1851752380393
517.1857533930914
517.1863307330076
517.1869072582298
517.1874829691996
517.188057866358
517.188631950146
517.1892052210047
517.189777679375
517.1903493256972
517.1909201604113
517.1914901839572
517.1920593967747
517.1926277993033
517.1931953919824
517.193762175251
517.1943281495481
517.1948933153129
517.1954576729844
517.1960212230016
517.1965839658034
517.1971459018283
517.1977070315148
517.1982673553013
517.1988268736255
517.1993855869256
517.1999434956393
517.2005006002047
517.20105690106
517.2016123986435
517.2021670933933
517.2027209857475
517.2032740761441
517.2038263650207
517.2043778528147
517.2049285399629
517.205478426902
517.2060275140681
517.2065758018972
517.2071232908253
517.207669981288
517.2082158737213
517.2087609685615
517.2093052662441
517.2098487672043
517.2103914718772
517.2109333806976
517.2114744941001
517.2120148125192
517.2125543363892
517.2130930661448
517.2136310022203
517.2141681450497
517.2147044950678
517.215240052709
517.2157748184071
517.2163087925968
517.2168419757123
517.2173743681884
517.2179059704596
517.2184367829601
517.2189668061241
517.2194960403855
517.2200244861787
517.2205521439377
517.2210790140965
517.2216050970889
517.2221303933483
517.2226549033081
517.223178627402
517.2237015660636
517.2242237197264
517.2247450888243
517.2252656737907
517.2257854750584
517.2263044930606
517.2268227282303
517.2273401810004
517.2278568518035
517.2283727410719
517.2288878492378
517.2294021767333
517.2299157239898
517.2304284914393
517.2309404795134
517.2314516886441
517.2319621192634
517.2324717718026
517.2329806466934
517.2334887443668
517.2339960652538
517.234502609785
517.2350083783907
517.2355133715015
517.2360175895475
517.2365210329584
517.2370237021638
517.2375255975934
517.2380267196771
517.238527068845
517.2390266455265
517.2395254501508
517.2400234831472
517.2405207449448
517.2410172359731
517.2415129566613
517.2420079074378
517.2425020887309
517.2429955009685
517.2434881445785
517.2439800199887
517.2444711276272
517.244961467922
517.2454510413014
517.2459398481932
517.2464278890253
517.2469151642255
517.2474016742209
517.2478874194386
517.2483724003058
517.2488566172502
517.2493400707
517.2498227610832
517.2503046888277
517.250785854361
517.2512662581104
517.2517459005029
517.2522247819658
517.2527029029262
517.2531802638115
517.2536568650486
517.2541327070643
517.2546077902854
517.255082115138
517.2555556820481
517.2560284914417
517.2565005437442
517.256971839381
517.2574423787772
517.2579121623579
517.258381190548
517.2588494637727
517.2593169824573
517.2597837470272
517.2602497579074
517.260715015523
517.2611795202987
517.261643272659
517.2621062730283
517.2625685218314
517.2630300194929
517.263490766437
517.263950763088
517.2644100098702
517.2648685072076
517.2653262555247
517.265783255246
517.2662395067961
517.2666950105994
517.2671497670805
517.2676037766638
517.2680570397739
517.2685095568357
517.2689613282738
517.2694123545124
517.2698626359755
517.2703121730868
517.2707609662694
517.2712090159467
517.2716563225418
517.2721028864779
517.2725487081781
517.272993788065
517.2734381265612
517.2738817240889
517.2743245810699
517.2747666979259
517.2752080750785
517.2756487129492
517.2760886119598
517.2765277725322
517.276966195088
517.2774038800486
517.2778408278351
517.2782770388682
517.2787125135686
517.2791472523571
517.2795812556543
517.2800145238808
517.2804470574569
517.2808788568026
517.2813099223378
517.2817402544816
517.2821698536528
517.2825987202697
517.2830268547506
517.2834542575139
517.283880928978
517.2843068695614
517.2847320796828
517.2851565597613
517.2855803102156
517.2860033314643
517.286425623926
517.2868471880189
517.2872680241609
517.2876881327694
517.2881075142615
517.2885261690536
517.288944097562
517.2893613002021
517.2897777773898
517.2901935295403
517.290608557069
517.291022860392
517.291436439925
517.291849296084
517.2922614292858
517.2926728399467
517.2930835284834
517.2934934953122
517.2939027408489
517.2943112655095
517.2947190697097
517.2951261538657
517.2955325183933
517.2959381637082
517.2963430902261
517.2967472983622
517.2971507885319
517.29755356115
517.2979556166312
517.2983569553895
517.298757577839
517.2991574843933
517.2995566754661
