509.9999999999998
510.0330684334293
510.06592885546894
510.09837367541525
510.1301961429168
510.16119076555856
510.1911537232255
510.2198832780952
510.247180179213
510.2728480607031
510.2966938326803
510.3185280638721
510.3381653549669
510.35542470179263
510.37012984749055
510.38210962284006
510.3911982739233
510.3972357763634
510.4000681354407
510.3995476714846
510.3955332900256
510.3878907362609
510.37649283338936
510.3612197043116
510.3419589761864
510.31860596747873
510.2910638572605
510.2592438365131
510.2230652411773
510.18245566680787
510.13735106483944
510.08769582050184
510.03344281239424
509.97455345373663
509.9109977154086
509.8427541309547
509.76980978376565
509.6921602767288
509.6098096847856
509.522770490882
509.43106350573015
509.33471777174594
509.23377045153524
509.12826670137906
509.01825953032295
508.9038096455466
508.78498528467986
508.6618620355794
508.534522644004
508.40305680971125
508.26756097152355
508.1281380819264
507.98489737188675
507.83795410666096
507.6874293333531
507.53344962095974
507.37614679364395
507.2156576579661
507.05212372464246
506.88569092525387
506.71650932437876
506.5447328278205
506.37051888769594
506.19402820505405
506.01542443057343
505.83487386389874
505.6525451521965
505.46860898845154
505.2832378100166
505.09660549802294
504.90888707829885
504.7202584243292
504.53089596268165
504.34097638140855
504.15067634200255
503.96017219537873
503.7696397022256
503.57925375809344
503.38918812362994
503.1996151603688
503.0107055724688
502.822628154821
502.63554954788555
502.4496339995928
502.2650431346994
502.08193573198616
501.900467509519
501.72079091808814
501.5430549430066
501.3674049145616
501.1939823274208
501.02292466921944
500.85436525849985
500.6884330921656
500.5252527025877
500.3649440245002
500.2076222718777
500.0533978250674
499.90237612838604
499.75465759828904
499.6103375421304
499.4695060875137
499.3322481222205
499.19864324468
499.06876572490495
498.94268447581754
498.8204630349186
498.70215955626827
498.58782681274334
498.477512208522
498.37125780167554
498.26910033663233
498.17107128625724
498.0771969033268
497.9874982812382
497.9019914238108
497.8206873240029
497.74359205121067
497.6707068466603
497.6020282263673
497.53754809120306
497.47725384364963
497.42112851080094
497.3691508731918
497.32129559911556
497.2775333840837
497.23783109492666
497.2021519179431
497.1704555106095
497.1426981564422
497.1188329225709
497.09880981951824
497.08257596272637
497.0700757353801
497.0612509520395
497.0560410225519
497.0543831157153
497.05621232219886
497.06146181623006
497.0700630156128
497.0819457396873
497.0970383648948
497.1152679776073
497.13656052375364
497.16084095473
497.18803336918603
497.21806115038714
497.25084709888876
497.2863135602896
497.3243825479003
497.364975860234
497.4080151932097
497.4534222469338
497.50111882693346
497.5510269397036
497.60306888244133
497.6571673269277
497.7132453975608
497.7712267435322
497.8310356051569
497.8925968744327
497.95583615002204
498.0206797869137
498.0870549410169
498.15488960891696
498.2241126629979
498.2946538821007
498.36644397786955
498.43941461698466
498.5134984395143
498.5886290736176
498.66474114681944
498.7417702941172
498.8196531632668
498.8983274176023
498.9777317366521
499.0578058147974
499.13849035832624
499.21972708129624
499.30145870054236
499.38362893010503
499.46618247532695
499.549065026875
499.63222325492694
499.715604803722
499.7991582867094
499.88283328257995
499.9665803323808
500.0503509377767
500.13409756043546
500.21777362256825
500.30133350872075
500.3847325689196
500.46792712317864
500.550874467259
500.63353287958427
500.71586162928986
500.7978209854774
500.87937222771285
500.96047765771664
501.0411006121576
501.1212054765322
501.20075770003507
501.2797238111806
501.3580714338818
501.43576930372285
501.51278728417213
501.5890963824966
501.66466876526715
501.739477773478
501.8134979372368
501.88670498977643
501.9590758804256
502.03058878625774
502.1012231222675
502.1709595499367
502.2397799840015
502.30766759725344
502.37460682323297
502.4405833566704
502.5055841515181
502.56959741648205
502.632612608003
502.6946204205531
502.75561277410225
502.81558279874145
502.8745248165724
502.932434320937
502.98930795300157
503.04514347572194
503.09993974523996
503.153696679762
503.20641522601386
503.25809732335625
503.30874586561487
503.3583646607056
503.40695838823643
503.4545325553447
503.5010934510181
503.5466480991007
503.59120421016894
503.6347701325261
503.67735480263036
503.71896769525085
503.75961877361146
503.79931843976357
503.8380774853544
503.87590704292353
503.9128185379638
503.94882364202795
503.9839342271173
504.01816232157876
504.05152006777564
504.0840196818055
504.11567341551046
504.1464935209981
504.1764922178464
504.20568166309585
504.23407392409155
504.2616809542749
504.28851457202677
504.3145864426283
504.3399080633788
504.3644907519025
504.3883456375967
504.41148365608245
504.43391554650304
504.4556518516334
504.4767029209309
504.4970789166306
504.51678982282544
504.53584545736993
504.5542554864606
504.5720294418035
504.5891767402052
504.60570670532456
504.62162859137356
504.63695160860493
504.65168495038586
504.66583782157784
504.6794194679108
504.6924392060462
504.7049064540437
504.7168307620077
504.72822184272917
504.7390896021004
504.7494441690259
504.7592959245244
504.76865552977534
504.77753395287357
504.7859424940668
504.7938928092247
504.8013969313014
504.8084672896748
504.8151167273433
504.82135851590243
504.82720636812826
504.832674447905
504.83777737727183
504.84253024041953
504.84694858448626
504.8510484170884
504.85484620060174
504.8583588432109
504.8616036867231
504.8645984911752
504.86736141632406
504.8699110001555
504.87226613451094
504.8744460378994
504.8764702255855
504.87835847702837
504.8801308007334
504.8818073966078
504.88340861595776
504.88495491930314
504.8864668322559
504.88796489973936
504.88946963878215
504.89100149006
504.89258076834335
504.8942276120613
504.89596193220933
504.89780336081935
504.89977119922554
504.9018843664526
504.90416134800694
504.9066201451767
504.90927822484616
504.9121524699486
504.9152591308344
504.91861377780674
504.92223125502323
504.9261256359904
504.93031018090124
504.9347972959536
504.9395984947116
504.9447243616042
504.9501845177211
504.9559875891329
504.9621411778971
504.9686518358278
504.97552504107676
504.9827651775886
504.99037551751724
504.99835820670745
505.0067142532429
505.01544351900264
505.02454471422936
505.03401539517455
505.04385196486584
505.0540496769391
505.06460264241326
505.0755038393452
505.0867451254003
505.09831725338023
505.1102098896955
505.1224116357348
505.1349100520173
505.1476916849469
505.1607420960247
505.1740458934705
505.18758676625896
505.2013475205706
505.21531011857155
505.229455719371
505.2437647220857
505.258216810967
505.2727910024757
505.287465694173
505.30221871534786
505.31702737930414
505.33186853723214
505.34671863363695
505.3615537632263
505.37634972903857
505.39108210157326
505.40572627875383
505.42025754662603
505.434651140699
505.44888230786
505.4629263687982
505.47675878081384
505.4903552008704
505.5036915487442
505.5167440701793
505.5294893999952
505.5419046250515
505.55396734690277
505.56565574399497
505.5769486332634
505.5878255309662
505.59826671257997
505.6082532716151
505.61776717718203
505.62679133011795
505.6353096175693
505.64330696593987
505.65076939198894
505.65768405186265
505.66403928793613
505.66982467335544
505.6750310540511
505.6796505879635
505.68367678125713
505.68710452132706
505.6899301064344
505.69215127187846
505.6937672126714
505.6947786026529
505.69518760991315
505.69499790838836
505.6942146854944
505.6928446456374
505.6908960095085
505.6883785091856
505.6853033791411
505.68168334310576
505.67753259653585
505.6728667844603
505.66770297476717
505.6620596271555
505.6559565579394
505.6494149007139
505.64245706277063
505.63510667720965
505.6273885508341
505.6193286079926
505.6109538305193
505.60229219393756
505.5933726001451
505.58422480685533
505.5748793540908
505.5653674879596
505.55572108191615
505.5459725557576
505.5361547926667
505.52630105464624
505.51644489667154
505.50662007986864
505.4968604840254
505.48720001976596
505.4776725407425
505.46831175615364
505.4591511438533
505.450223864351
505.44156267608855
505.4331998524631
505.42516710104616
505.41749548541344
505.41021534999345
505.40335624826616
505.3969468745515
505.39101499963823
505.38558741058404
505.3806898550514
505.37634699045276
505.3725823380866
505.36941824248527
505.3668758362215
505.36497501036445
505.3637343907522
505.36317132022276
505.3633018469046
505.3641407185882
505.36570138316705
505.3679959950974
505.37103542783063
505.37482929219874
505.37938596075156
505.38471259803015
505.3908151966676
505.3976986190905
505.40536664455556
505.41382202123714
505.42306652302995
505.4331010107562
505.44392549757094
505.45553921838456
505.4679407029494
505.4811278520306
505.49509801609526
505.5098480760404
505.5253745254359
505.54167355371254
505.5587411297205
505.57657308508504
505.59516519681335
505.61451326863755
505.6346132105588
505.6554611160463
505.6770533363393
505.6993865513715
505.72245783690914
505.74626472738925
505.7708052738286
505.79607809627316
505.82208243036564
505.8488181675747
505.8762858886148
505.9044868896421
505.9334232008571
505.9630975972215
505.9935136010452
506.0246754761375
506.0565882131959
506.0892575061839
506.1226897195264
506.156891846018
506.1918714554313
506.2276366338409
506.26419591367227
506.301558194512
506.33973265478943
506.3787286545792
506.41855562986
506.459222978547
506.50073993867255
506.54311545920893
506.5863580640539
506.6304757096692
506.67547563691335
506.7213642176338
506.76814679659384
506.81582752943376
506.86440921750756
506.91389314046035
506.9642788873695
507.015564187277
507.0677447399699
507.1208140478762
507.1747632499952
507.22958095881097
507.28525310117027
507.341762764146
507.3990900468581
507.4572119191372
507.5161020879277
507.5757308723813
507.6360650886242
507.6970679451823
507.7586989500454
507.82091383032076
507.88366446541187
507.94689883462706
508.010560980048
508.07459098535526
508.13892497127915
508.20349510838946
508.2682296478801
508.333052970854
508.3978856564914
508.4626445694302
508.52724296664724
508.5915906240346
508.6555939827652
508.7191563154791
508.78217791223454
508.8445562860483
508.90618639774567
508.9669608998349
509.0267703990518
509.085503737125
509.1430482892368
509.19929027951514
509.254115112711
509.3074077210765
509.35905292548335
509.4089358098855
509.45694210810353
509.5029586016189
509.54687352682726
509.58857699009855
509.627961389127
509.66492183921224
509.6993566031136
509.7311675229197
509.7602604521838
509.78654568655014
509.8099383910845
509.83035902247167
509.847733744163
509.8619948324985
509.8730810718925
509.88093813723617
509.88551896165785
509.88678408777406
509.8847020005624
509.87924944001986
509.87041169183226
509.85818285433675
509.8425660801176
509.82357379062654
509.8012278623174
509.7755597828846
509.7466107762406
509.7144318949089
509.6790840786175
509.6406381779975
509.5991749424118
509.55478497110414
509.5075686270622
509.45763591312857
509.4051063099801
509.35010857569404
509.29278050674907
509.2332686604918
509.1717280393163
509.10832173700584
509.043220547823
508.9766025390219
508.908652587601
508.8395618822995
508.7695273920563
508.69875130236517
508.6274404211324
508.5558055557976
508.4840608635871
508.41242317687784
508.341111305754
508.2703453199677
508.2003458126474
508.1313331482326
508.0635266972609
507.9971440607595
507.932400287068
507.86950708397427
507.8086720290811
507.7500977813548
507.6939812969582
507.6405130526075
507.5898762796759
507.54224621222784
507.497789352144
507.4566627544661
507.4190133360866
507.38497721090346
507.35467905444114
507.3282315008021
507.3057345746895
507.28727516115543
507.2729265156415
507.26274781673237
507.25678376388254
507.25506422235816
507.2576039175334
507.2644021803479
507.27544274546693
507.2906936035275
507.31010690868607
507.333618942461
507.36115013464826
507.39260514190994
507.42787298441044
507.4668272406661
507.50932630054643
507.5552136761052
507.6043183696755
507.65645529843925
507.7114257743841
507.76901803828923
507.8290078462266
507.8911591068834
507.9552245677364
508.0209465478287
508.0880577146865
508.15628190270985
508.22533497013455
508.29492569147203
508.36475668222323
508.4345253525757
508.503924886616
508.5726452434159
508.6403741762686
508.70679826630357
508.77160396658104
508.83447865271063
508.8951116760634
508.9531954156483
509.008426324676
509.06050596779613
509.1091420450093
509.15404939832825
509.1949509973772
509.2315789001861
509.2636751855019
509.29099285310605
509.3132966888149
509.33036409093967
509.3419858550142
509.34796691369854
509.3481270289471
509.3423014336864
509.33034142045256
509.3121148747088
509.2875067508472
509.2564194891743
509.21877337244774
509.1745068207352
509.1235766235904
509.06595810882067
509.00164524747544
508.930650695049
508.85300576914585
508.76876036408225
508.6779828031574
508.5807596295478
508.4771953369606
508.36741204137286
508.2515490953856
508.1297626469527
508.0022251444991
507.86912479068695
507.7306649472938
507.58706349383436
507.43855214276186
507.2853757142692
507.12779137380534
506.9660678354731
506.80048453459597
506.6313307729198
506.4589048401004
506.28351311522806
506.1054691520997
505.92509275179276
505.74270902600557
505.5586474546741
505.37324094144407
505.18682487058305
504.99973616882596
504.8123123755123
504.6248907243166
504.4378072398414
504.25139585220023
504.06598753255207
503.88190945242144
503.69948416948614
503.51902884238297
503.34085447695463
503.16526520617725
502.9925576058116
502.82302004759055
502.6569320915438
502.4945639188793
502.3361758066674
502.1820176454177
502.03232850042326
501.88733621745354
501.74725707320897
501.61229547077755
501.4826436800757
501.35848162300084
501.23997670287713
501.12728367767045
501.02054457627
500.9198886569266
500.825432406761
500.7372795811355
500.65552128149864
500.5802360701667
500.5114901204628
500.4493374005861
500.39381988948486
500.3449678228813
500.30279996744315
500.2673239210056
500.2385364367084
500.2164237688854
500.2009620385202
500.192117616072
500.189847519508
500.19409982538104
500.20481409084925
500.2219217845445
500.2453467241869
500.2750055188881
500.3108080141057
500.35265773729134
500.40045234235674
500.4540840510705
500.5134400895514
500.57840311815403
500.6488516531177
500.7246604784522
500.8057010466964
500.8918418673095
500.982948881556
501.07888582288194
501.17951456189024
501.28469543514734
501.39428755714783
501.5081491148453
501.62613764422207
501.74811028846386
501.87392403735566
502.00343594767173
502.13650334452694
502.27298400378345
502.41273631570147
502.55561943008905
502.70149338327593
502.85021920731896
503.0016590218467
503.15567610897506
503.3121349718094
503.4709013771626
503.6318423832174
503.79482635293226
503.9597229539728
504.1264031459872
504.294739156134
504.4646044437646
504.63587365510864
504.80842256885654
504.9821280335312
505.15686789754596
505.3325209329072
505.50896675356665
505.68608572944123
505.8637588970511
506.04186786764075
506.2202947337007
506.39892197491974
506.5776323645258
506.75630887675027
506.93483459609007
507.1130926291078
507.2909660194888
507.46833766701735
507.64509025113864
507.82110615977484
507.99626742399226
508.1704556590154
508.34355201199605
508.5154371169626
508.6859910574259
508.855093337041
509.02262285856835
509.1884579113153
509.35247616729134
509.5145546863392
509.6745699305101
509.8323977879218
509.9879136062595
510.14099223599993
510.29150808340904
510.43933517327906
510.5843472212895
510.72641771584233
510.86542000923527
511.0012274180297
511.1337133324175
511.2627513342751
511.3882153235193
511.5099796524151
511.62791926750475
511.7419098587969
511.8518280158617
511.95755139052943
512.0589588658934
512.1559307312453
512.2483488624831
512.3360969074902
512.4190604760048
512.4971273335058
512.5701875986404
512.6381339436767
512.7008617974467
512.7582695502671
512.8102587603473
512.8567343611337
512.8976048689827
512.9327825905073
512.9621838289576
512.9857290890561
513.0033432797214
513.0149559141055
513.0205013063578
513.0199187645421
513.013152779196
513.0001532070804
512.9808754496628
512.9552806258093
512.9233357381343
512.8850138324401
512.8402941496845
512.7891622699539
512.7316102479294
512.6676367393073
512.597247117654
512.5204535812093
512.4372752491764
512.3477382470905
512.2518757808472
512.1497281989566
512.0413430426443
511.92677508348885
511.8060863483681
511.67934613142444
511.5466309927582
511.4080247436091
511.26361841782415
511.1135102294507
510.9578055163297
510.7966166696324
510.6300630493736
510.4582708859861
510.2813731679435
510.0995095154192
509.91282604005687
509.7214751909489
509.5256155869241
509.32541183526683
509.12103433707415
508.9126590795637
508.7004674157016
508.4846458315377
508.2653857016523
508.0428830331909
507.817338198972
507.5889556601485
507.35794367895915
507.12451402213395
506.8888816555329
506.6512644306184
506.41188276341865
506.1709593067029
505.92871861610166
505.6853868109096
505.4411912303655
505.19636008621916
504.951122112397
504.7057062126492
504.4603411070654
504.21525497829134
503.9706751182374
503.7268275760787
503.48393680835864
503.24222533203005
503.0019133812758
502.7632185689694
502.5263555536579
502.29153571295535
502.0589668241876
501.8288527530685
501.6013931511026
501.37678316235366
501.1552131402099
500.93686837476815
500.7219288315214
500.5105689020642
500.302957167443
500.09925617470617
499.89962222713
499.70420518853643
499.51314830209094
499.3265880238849
499.1446538715411
498.9674682881085
498.79514652148504
498.62779651948875
498.46551884066037
498.30840658088533
498.1565453158774
498.01001305953133
497.86888023811633
497.73320968017936
497.6030566219425
497.47846872790967
497.35948612637605
497.2461414595424
497.13845994785464
497.03645946807575
496.9401506446168
496.84953695378925
496.7646148406654
496.6853738480642
496.6117967570367
496.54385973817915
496.48153251308037
496.42477852520057
496.37355511950256
496.32781373023266
496.2875000762662
496.2525543632794
496.2229114918863
496.1985012708963
496.1792486349617
496.165073865968
496.15589281754166
496.15161714202765
496.15215451922626
496.1574088861879
496.1672806674025
496.18166700476945
496.2004619867532
496.22355687616266
496.2508403360496
496.28219865329163
496.3175159594271
496.3566744482766
496.39955458986816
496.4460353402525
496.49599434689964
496.5493081493918
496.605852375108
496.6655019296463
496.7281311817439
496.7936141424321
496.86182463819443
496.93263647798966
497.0059236141009
497.0815602967949
497.159421222746
497.2393816771979
497.32131766987175
497.4051060646489
497.49062470307786
497.5777525217886
497.6663696639031
497.75635758453217
497.84759915047323
497.9399787342464
498.03338230266047
498.12769750016355
498.2228137273376
498.3186222149204
498.41501609358994
498.511890459579
498.6091424361983
498.7066712313983
498.80437819153076
498.9021668515113
498.99994298158634
499.09761463089256
499.1950921679989
499.29228831863776
499.38911820081336
499.4854993574505
499.5813517867051
499.67659797007974
499.7711628985054
499.8649740965086
499.95796164457136
500.05005819975423
500.1411990145861
500.23132195419413
500.3203675116559
500.40827882157026
500.4950016718324
500.58048451361424
500.6646784695732
500.7475373402973
500.82901760893
500.90907844387306
500.98768169944685
501.06479191437154
501.14037630801874
501.2144047744198
501.2868498739846
501.35768682288955
501.42689348010583
501.4944503320269
501.5603404745942
501.6245495927995
501.687065937456
501.7478802991469
501.80698597928273
501.86437875818893
501.92005686016824
501.9740209155039
502.0262739194056
502.07682118790626
502.1256703107232
502.17283110106746
502.21831554235723
502.26213773180075
502.3043138208674
502.3448619527481
502.38380219696705
502.4211564813036
502.4569485211198
502.4912037460903
502.5239492243732
502.55521358439086
502.58502693447184
502.6134207805772
502.64042794227066
502.6660824670837
502.6904195434235
502.71347541218205
502.7352872772078
502.75589321479106
502.77533208233655
502.79364342644783
502.8108673907259
502.8270446236179
502.84221618665646
502.85642346335953
502.8697080688515
502.88211176017103
502.89367634737755
502.9044436057189
502.9144551892247
502.9237525460792
502.932376836036
502.9403688500901
502.9477689325791
502.9546169058413
502.96095199756274
502.96681277099714
502.97223705821546
502.977261896462
502.98192346770065
502.98625704145
502.9902969209931
502.99407639305934
502.9976276810709
503.0009819020345
503.0041690271383
503.00721784609215
503.01015593523215
503.01300962936676
503.01580399730716
503.01856282099703
503.02130857817014
503.02406242851305
503.02684420336095
503.02967239892865
503.0325641730272
503.03553534520086
503.0386004002357
503.0417724949501
503.04506346813116
503.04848385352244
503.0520428958399
503.05574856980525
503.05960760214833
503.06362549644524
503.06780656058584
503.07215393664893
503.0766696330222
503.08135455865033
503.08620855934674
503.0912304561005
503.0964180852712
503.1017683405819
503.1072772167785
503.1129398547173
503.1187505876505
503.12470298859654
503.1307899187367
503.13700357677874
503.1433355491865
503.1497768611508
503.15631802814426
503.16294910787894
503.16965975253953
503.1764392612495
503.1832766327343
503.1901606181216
503.19707977377124
503.20402251400964
503.21097716367495
503.21793201037343
503.2248753563478
503.2317955699063
503.23868113636155
503.2455207083471
503.25230315535634
503.2590176124491
503.26565352818943
503.2722007118984
503.27864938020576
503.2849902027471
503.29121434676796
503.2973135204117
503.3032800146344
503.3091067438004
503.3147872849516
503.3203159156846
503.3256876505688
503.3308982760164
503.3359443835126
503.3408234011764
503.34553362364767
503.35007424027697
503.3544453615855
503.35864804395806
503.36268431251466
503.36655718205753
503.3702706759309
503.373829842654
503.37724077025945
503.3805105983065
503.3836475275379
503.38666082712456
503.38956083945095
503.39235898244925
503.39506774951093
503.39770070696557
503.40027248909274
503.4027987906265
503.40529635672607
503.40778297038185
503.4102774372501
503.41279956795785
503.4153701579097
503.4180109645832
503.420744682306
503.4235949145458
503.42658614371794
503.4297436985326
503.43309371895214
503.43666311881157
503.44047954614365
503.44457134126714
503.44896749271305
503.45369759107405
503.4587917808731
503.46428071053634
503.4701954805279
503.47656758967656
503.4834288797684
503.49081147856805
503.4987477414611
503.5072701918885
503.516411460694
503.52620422440356
503.53668114238684
503.5478747928874
503.55981760802587
503.5725418080206
503.5860793348534
503.60046178548896
503.61572034466263
503.63188571722907
503.6489880600982
503.6670569137977
503.6861211337567
503.70620882143106
503.727347255337
503.7495628220885
503.7728809475857
503.79732602850106
503.8229213641379
503.8496890886885
503.87765010387966
503.90682401202844
503.93722904964926
503.9688820217398
504.00179823674625
504.03599144215633
504.0714737607408
504.10825562750955
504.1463457274382
504.18575093401245
504.22647624862276
504.2685247408514
504.3118974897045
504.35659352582485
504.40260977476095
504.449941001408
504.4985797557301
504.5485163198516
504.5997386566068
504.6522323596369
504.70598060514226
504.7609641054218
504.81716106438296
504.8745471351911
504.9330953802692
504.9927762339334
505.05355746800296
505.11540416063406
505.1782786685437
505.2421406027639
505.30694680809864
505.3726513465191
505.4392054847964
505.5065576866824
505.57465360986936
505.6434361079349
505.7128452375242
505.78281827105786
505.85328971527065
505.92419133589215
505.99545218877466
506.0669986577888
506.13875449985073
506.21064089746153
506.2825765191217
506.3544775879378
506.42625795865854
506.49782920334354
506.56910070590425
506.63997976575246
506.71037171082736
506.78018002032536
506.8493064574295
506.91765121222
506.98511305490433
507.0515894994684
507.1169769777833
507.1811710241367
507.24406647012995
507.3055576498724
507.365538615322
507.42390336152823
507.48054606150765
507.5353613104446
507.58824437886386
507.6390914744267
507.6878000120001
507.7342688915881
507.77839878360726
507.8200924208556
507.8592548965125
507.8957939675612
507.92962036298564
507.96064809589836
507.98879477856264
508.013981939204
508.0361353395719
508.05518529228635
508.0710669769859
508.08372075420993
508.09309247585503
508.09913379099623
508.1018024458499
508.10106257662255
508.09688499397674
508.0892474578537
508.0781349414261
508.06353988295115
508.04546242422396
508.0239106342436
507.99890071668165
507.9704571997882
507.9386131074313
507.9034101100321
507.864898654229
507.82313807013054
507.7781966549689
507.73015173197774
507.67908968346114
507.62510595717674
507.56830504519405
507.50880043438843
507.4467145277789
507.3821785360033
507.3153323383239
507.24632431267173
507.17531113436155
507.1024575432205
507.0279360789494
506.9519267846116
506.87461687828755
506.79620039311857
506.716877786124
506.63685551628487
506.5563455924824
506.4755650919789
506.39473565026833
506.3140829233326
506.23383602350407
506.1542269302185
506.0754898770352
505.9978607163959
505.92157626372966
505.84687362265646
505.7739894932077
505.70315946511244
505.6346172983001
505.5685941928247
505.50531805048047
505.4450127304415
505.3878973013421
505.33418529235615
505.2840839460153
505.2377934755786
505.1955063297103
505.1574064671492
505.1236686440616
505.0944577168012
505.06992796283924
505.0502224227076
505.0354722658338
505.0257961830958
505.0212998087782
505.0220751745014
505.02820019767813
505.0397382069504
505.0567375068927
505.0792309841415
505.10723575705487
505.1407528709326
505.17976704068593
505.22424644266295
505.27414255723374
505.329390063666
505.38990678865775
505.4555937095936
505.52633501319895
505.6019982099839
505.68243430475616
505.76747802339133
505.85694809592974
505.95064759585375
506.0483643350933
506.14987131406417
506.254927225834
506.3632770133033
506.47465247805695
506.58877293929964
506.705345941074
506.8240680057771
506.94462543179327
507.0666951328314
507.1899455163366
507.314037398143
507.4386249503141
507.5633566788956
507.68787642817944
507.8118244080749
507.9348382411361
508.0565540256881
508.17660741138457
508.29463468343147
508.4102738516451
508.52316574047563
508.6329550761369
508.7392915669926
508.84183097334096
508.9402361627743
509.0341781473091
509.1233370984835
509.20740333667766
509.2860782910602
509.35907542668525
509.42612113534733
509.48695558692276
509.5413335380658
509.58902509531157
509.62981642983897
509.66351044132415
509.689927368439
509.70890534374405
509.72030089094756
509.7239893627519
509.7198653177703
509.7078428352469
509.6878557665445
509.65985792267344
509.62382319748895
509.57974562649304
509.5276393814377
509.46753870118386
509.3994977595236
509.32359047089375
509.2399102351424
509.1485696227493
509.04970000202934
508.9434511099755
508.82999056863565
508.7095033492035
508.582191186211
508.4482719443782
508.3079789408444
508.16156022572164
508.0092778240972
507.85140694276043
507.6882351450003
507.52006149684564
507.34719568817025
507.1699571321231
506.9886740463828
506.80368251977677
506.6153255678334
506.42395218087785
506.22991636824145
506.03357620202263
505.8352928637335
505.63542969706117
505.43435126989414
505.2324224487579
505.0300074887717
504.8274691421169
504.6251677878568
504.4234605857848
504.22270065679083
504.02323629204255
503.8254101931457
503.6295587453827
503.4360113260061
503.24508964922893
503.05710714922503
502.87236840228104
502.69116858908893
502.51379299802085
502.34051657006796
502.17160348592137
502.00730679542505
501.8478680894082
501.6935172137859
501.54447202571856
501.4009381914321
501.26310902508084
501.1311653678372
501.00527550621587
500.8855951285149
500.7722673181744
500.6654225827809
500.5651789172959
500.47164189992105
500.3849048188712
500.3050488282957
500.23214313158894
500.1662451903031
500.1074009568221
500.0556451288835
500.0110014240219
499.97348287200765
499.94309212333667
499.91982177181137
499.90365468932094
499.89456437098977
499.89251528891725
499.89746325275075
499.9093557752889
499.92813244128496
499.9537252777173
499.98605912394305
500.02505200027696
500.07061547367795
500.1226550193286
500.18107037688014
500.24575590012773
500.3166008989628
500.39348997262596
500.47630333344165
500.56491712030476
500.65920370127844
500.7590319647721
500.8642675988623
500.97477335838147
501.09040931944327
501.2110331211963
501.3365001947076
501.46666397887634
501.60137612329424
501.7404866780729
501.8838442707717
502.03129627069404
502.1826889409577
502.33786757878687
502.49667664445735
502.65895987926075
502.82456041283785
502.9933208603676
503.1650834101616
503.33968990218335
503.5169818980097
503.69680074278295
503.87898761973213
504.0633835978797
504.24982967356897
504.43816680644045
504.6282359504691
504.8198780806508
505.0129342159672
505.20724543932755
505.4026529151947
505.598997905507
505.7961217843567
505.9938660518322
506.1920723474738
506.3905824637784
506.58923836013213
506.7878821775525
506.9863562546228
507.184503144964
507.38216563653594
507.57918677302223
507.7754098775265
507.970678578807
508.16483684030794
508.3577289922284
508.5491997667856
508.73909433679984
508.92725835773444
509.113538013311
509.2977800648547
509.4798319045286
509.65954161251614
509.836758018161
510.01133076514753
510.18311038082356
510.3519483497474
510.5176971915186
510.68021054290307
510.8393432442425
510.99495143014065
511.1468926243886
511.2950258390237
511.4392116773885
511.5793124410592
511.71519224051883
511.84671710941626
511.973755122239
512.096176515224
512.213853810357
512.3266619423882
512.4344783888146
512.5371833027003
512.6346596481859
512.7267933385427
512.8134733766093
512.894591997398
512.9700448125911
513.0397309566346
513.1035532341577
513.1614182684626
513.2132366508431
513.2589230904472
513.2983965643641
513.331580467629
513.3584027628533
513.3787961291746
513.3926981101707
513.4000512603506
513.4008032898541
513.3949072070468
513.3823214587372
513.3630100676779
513.3369427668239
513.3040951297571
513.2644486967745
513.2179910962179
513.1647161606866
513.1046240377776
513.0377212949953
512.9640210183799
512.8835429042618
512.7963133434897
512.7023654975847
512.6017393663677
512.4944818466388
512.3806467814802
512.2602949997164
512.1334943450673
512.0003196945685
511.8608529659231
511.7151831135248
511.56340611283906
511.40562493273
511.2419494953597
511.0724966233966
510.89738997432084
510.7167599616197
510.5307436626752
510.3394847132153
510.1431331882535
509.9418454694592
509.7357840989881
509.5251176199073
509.31002040335073
509.09067246250055
508.86725925351925
508.6399714636486
508.40900478673785
508.1745596864471
507.93684114738215
507.6960584145292
507.45242472143224
507.2061570075312
506.95747562511986
506.7066040364987
506.4537685019592
506.1991977592754
505.9431226954829
505.6857760117518
505.42739188215205
505.1682056070672
504.90845326198445
504.6483713423804
504.388196405535
504.12816471022967
503.86851185533703
503.60947241822095
503.3512795937764
503.09416483491026
502.83835749531545
502.5840844754439
502.33156987260793
502.0810346361346
501.832696228499
501.5867682933108
501.3434603310048
501.1029773831065
500.865519725912
500.63128257439257
500.4004557971572
500.1732236432627
499.94976448155893
499.73025055317964
499.5148477377019
499.30371533353264
499.0970058531477
498.89486483372326
498.6974306636078
498.504834425023
498.3171997532679
498.1346427126572
497.957271689418
497.78518730167684
497.618482326559
497.457241644396
497.3015422000375
497.15145298124526
497.00703501404325
496.86834137479303
496.73541721872795
496.60829982467936
496.4870186557364
496.37159543551445
496.26204423962315
496.15837160191353
496.0605766350532
495.9686511648513
495.88257987761835
495.8023404798952
495.7279038699692
495.6592343205778
495.5962896721374
495.53902153576666
495.4873755052882
495.4412913774217
495.4007033794258
495.3655404034525
495.33572624684166
495.31117985755964
495.29181558390275
495.2775434275842
495.2682692994508
495.2638952771416
495.26431986395704
495.26943824818017
495.27914256210727
495.29332214007644
495.3118637748214
495.3346519714896
495.3615691987001
495.3924961360771
495.4273119177487
495.46589437132604
495.50812025189094
495.5538654705334
495.6030053170556
495.65541467651457
495.7109682392637
495.76954070415013
495.8310069745482
495.89524234696717
495.9621226920434
496.0315246277447
496.1033256846679
496.17740446335176
496.25364078351515
496.331915825159
496.4121122615196
496.4941143839016
496.5778082184298
496.66308163475077
496.74982444676954
496.83792850561275
496.9272877850424
497.01779845949505
497.1093589748886
497.2018701123756
497.2952350452738
497.38935938947964
497.4841512476561
497.57952124734516
497.6753825731707
497.77165099345837
497.86824488169447
497.9650852331857
498.06209567713285
498.1592024842186
498.25633456980205
498.3534234928373
498.45040345069947
498.54721127017206
498.6437863948984
498.74007086959256
498.836009321237
498.9315489374159
499.02663944194757
499.12123306801004
499.21528452894734
499.3087509869096
499.4015920194568
499.49376958419765
499.5852479815339
499.6759938156284
499.76597595372067
499.8551654838598
499.94353567110875
500.0310619123065
500.11772168947334
500.20349452190027
500.2883619169435
500.3723073195578
500.45531606053936
500.53737530339123
500.61847398983605
500.69860278406355
500.7777540157896
500.85592162218114
500.93310108871646
501.00928938909544
501.08448492431063
501.1586874609114
501.2318980684586
501.30411905625033
501.37535390941576
501.4456072243804
501.51488464366287
501.5831927899939
501.6505391998091
501.7169322562064
501.78238112148273
501.84689566939227
501.91048641729407
501.97316445836464
502.0349413939953
502.095829266448
502.1558404918943
502.2149877940369
502.27328413852587
502.3307426684132
502.3873766408933
502.4431993654975
502.49822414388643
502.5524642114032
502.6059326805422
502.6586424864966
502.7106063349472
502.76183665222715
502.81234553801744
502.8621447207168
502.9112455155853
502.95965878578977
503.0073949065068
503.0544637322578
503.10087456765905
503.1466361417008
503.19175658555156
503.2362434139032
503.2801035098999
503.32334311373853
503.3659678150914
503.4079825494522
503.44939159840845
503.4901985938736
503.53040652629886
503.57001775683955
503.6090340333689
503.64745651024407
503.6852857717531
503.72252185919166
503.75916430146367
503.7952121490305
503.83066401103247
503.86551809546773
503.89977225230376
503.93342401935155
503.9664706706842
503.998909267477
504.03073671123315
504.06194979925937
504.0925452820977
504.12251992262003
504.151870556517
504.18059415395567
504.20868788220366
504.2361491689633
504.26297576610193
504.28916581346647
504.3147179025273
504.33963113965035
504.36390520885874
504.3875404339247
504.41053783956954
504.4328992115432
504.4546271553754
504.47572515358934
504.4961976211481
504.5160499589009
504.5352886048255
504.5539210829273
504.5719560496557
504.589403337661
504.60627399668573
504.6225803313898
504.6383359359251
504.6535557251042
504.6682559620126
504.6824542819068
504.6961697122816
504.70942268902087
504.72223506852146
504.73463013568124
504.74663260767574
504.7582686334677
504.7695657889828
504.78055306789844
504.7912608680153
504.8017209731748
504.81196653068776
504.8220320242393
504.8319532422529
504.84176724173705
504.85151230762153
504.86122790750653
504.87095464173495
504.88073418875257
504.89060924575267
504.90062346461133
504.9108213831314
504.9212483515893
504.93195045457924
504.94297442820533
504.9543675726949
504.9661776604914
504.9784528398382
504.99124153384906
505.004592335109
505.0185538959332
505.03317481448056
505.04850351691346
505.0645881358055
505.0814763850037
505.0992154311322
505.11785176188806
505.1374310512926
505.1579980220988
505.17959630556345
505.2022682988188
505.2260550201179
505.2509959622286
505.27712894425287
505.3044899622009
505.3331130386976
505.36303007220624
505.39427068614816
505.4268620783152
505.4608288709984
505.4961929622995
505.53297337912187
505.5711861323331
505.61084407460567
505.651956761487
505.6945303163207
505.73856729964035
505.784066583532
505.83102323141554
505.87942838375386
505.92926915024
505.98052850902
506.03318521345903
506.08721370695315
506.1425840463936
506.1992618349529
506.25720816482055
506.3163795704545
506.3767279928976
506.4382007557388
506.50074055327605
506.56428545132513
506.62876890104974
506.69411976616334
506.7602623638395
506.8271165196671
506.8945976370167
506.9626167812156
507.03108077886884
507.09989233252105
507.1689501508465
507.23814909461834
507.3073803386278
507.3765315495917
507.4454870800676
507.5141281783225
507.5823332139858
507.6499779192605
507.71693564539567
507.78307763404234
507.848273303057
507.91239054626516
507.9752960466967
508.0368556027931
508.0969344669961
508.15539769603333
508.21211051216403
508.2669386745834
508.3197488601634
508.3704090526901
508.4187889396427
508.4647603154352
508.5081974899937
508.5489777014802
508.58698153196684
508.6220933248616
508.6542016028169
508.6831994847853
508.70898510088904
508.73146200374913
508.7505395748813
508.76613342473854
508.7781657849585
508.78656589138217
508.79127035643415
508.7922235294309
508.789377843304
508.78269414621474
508.7721420165835
508.7577000601224
508.7393561874401
508.7171078707278
508.6909623781022
508.6609369842692
508.6270591562085
508.58936671260545
508.5479079558164
508.5027417752149
508.45393772087704
508.40157604663375
508.3457477215731
508.2865544091327
508.2241084129609
508.1585325887711
508.0899602215304
508.0185348674652
507.9444101604849
507.8677495827278
507.78872619905707
507.70752235546325
507.6243293414434
507.5393470165329
507.4527834013008
507.364854233288
507.2757824885068
507.1857978692674
507.09513625923057
507.00403914671654
506.91275301741706
506.8215287177843
506.73062079051965
506.6402867837121
506.5507865353121
506.46238143477325
506.37533366386015
506.28990541872747
506.2063581154521
506.1249515812803
506.04594323395946
505.9695872516679
505.89613373621336
505.8258278722113
505.7589090849913
505.6956102000709
505.63615660712185
505.5807654314169
505.52964471582635
505.4829926164617
505.440996615071
505.4038327513022
505.37166487792246
505.34464394203997
505.32290729533867
505.3065780363047
505.295764387393
505.29055911002666
505.2910389602098
505.297264187438
505.309278079552
505.3271065560869
505.3507578124825
505.38022201732394
505.41547106463565
505.45645838305296
505.5031188034819
505.5553684866589
505.6131049118661
505.67620692789126
505.74453486714145
505.81793072357175
505.89621839478696
505.979203988362
506.06667619221196
506.15840670862275
506.25415075126335
506.3536476042268
506.45662124191426
506.5627810083261
506.67182235409354
506.7834276293295
506.89726693007935
507.0129989958756
507.1302721556843
507.2487253192642
507.36798901071177
507.4876864407556
507.60743461422584
507.72684546903383
507.8455270429042
507.96308466392225
508.0791221607083
508.1932430878651
508.30505196233025
508.4141555061838
508.52016389133587
508.62269198141297
508.7213605661426
508.8157975835951
508.90563932572354
508.99053162267114
509.0701310013377
509.1441058138035
509.21213733132555
509.2739207997354
509.32916645218774
509.3776004753369
509.4189659251301
509.4530235885394
509.4795527877908
509.4983521239165
509.50924015664174
509.51205601776525
509.5066599554941
509.4929338075869
509.4707814014701
509.4401288798214
509.4009249504693
509.3531410598173
509.2967714893629
509.23183337524404
509.15836665106326
509.0764339145331
508.9861202186777
508.88753278854745
508.78080066474723
508.6660742754339
508.543524938712
508.413344297659
508.27574369050467
508.13095345874837
507.97922219630647
507.8208159430234
507.656017326076
507.48512465297694
507.3084509600664
507.1263230205215
506.9390803160625
506.7470739766672
506.55066569268126
506.350226603796
506.14613616943245
505.93878102505414
505.728553828906
505.5158521036539
505.3010770773629
505.08463252823066
504.8669236374688
504.6483558546237
504.42933377948646
504.2102600646135
503.99153434236763
503.7735521802381
503.5567040679929
503.3413744400198
503.12794073603726
502.9167725031644
502.7082305420798
502.50266609973494
502.30042011085055
502.1018224901972
501.9071914773559
501.7168330353704
501.53104030445877
501.35009311172786
501.1742575375904
501.0037855392262
500.8389146311192
500.67986762248705
500.52685241121407
500.3800618336811
500.23967356967034
500.10585010128716
499.97873872452516
499.85847161181084
499.7451659237106
499.6389239677998
499.539833402517
499.4479674837157
499.3633853514818
499.28613235466923
499.2162404105383
499.1537283968291
499.09860257353563
499.05085703154555
499.0104741652197
498.9774251659284
498.95167053358847
498.9331606032982
498.92183608419447
498.91762860763424
498.9204612818535
498.93024925036616
498.9469002514911
498.97031517644444
499.00038862349703
499.037009445752
499.08006129020464
499.12942312587194
499.1849697589123
499.2465723327791
499.3140988116235
499.3874144453579
499.4663822149392
499.5508632565662
499.6407172636465
499.73580286554215
499.8359779822826
499.9411001545629
500.051026848447
500.16561573434785
500.2847249400302
500.4082132775146
500.53594044389763
500.66776719626773
500.8035555010671
500.9431686583691
501.0864714016573
501.2333299737686
501.38361217973477
501.5371874173637
501.69392668653734
501.8537025783229
502.0163892450284
502.1818623523584
502.3499990148967
502.5206777161966
502.6937782147787
502.8691814373894
503.046769360868
503.22642488397867
503.40803169060274
503.5914741056949
503.77663694539285
503.96340536272754
504.15166469037655
504.34130028182767
504.53219735218954
504.72424081980887
504.91731514982314
505.1113042007479
505.3060910751953
505.5015579757941
505.69758606735434
505.8940553462844
506.09084451812737
506.28783088399626
506.48489023668867
506.68189676719317
506.8787229821763
507.07523963293164
507.2713156562417
507.46681812754446
507.6616122267199
507.85556121677865
508.0485264357076
508.24036730164954
508.4309413315203
508.62010417314673
508.8077096509941
508.9936098254791
509.177655065831
509.3596941364714
509.53957429683294
509.71714141438804
509.89224009058046
510.06471379931196
510.2344050375895
510.40115548789686
510.56480619177177
510.72519773404804
510.8821704372021
511.03556456521034
511.1852205363644
511.3309791445666
511.47268178859247
511.6101707087344
511.7432892302185
511.87188201274785
511.9957953054662
512.1148772066241
512.2289779272294
512.3379500579694
512.4416488387135
512.5399324298822
512.6326621849728
512.7197029235369
512.8009232038879
512.8761955948258
512.945396945718
513.0084086542511
513.0651169311498
513.1154130611902
513.1591936598884
513.1963609252529
513.2268228839557
513.2504936312695
513.267293564132
513.2771496067547
513.2799954282187
513.2757716514435
513.2644260528476
513.2459137520685
513.2201973912032
513.1872473030664
513.1470416679216
513.0995666581373
513.0448165703016
512.982793944352
512.9135096692332
512.8369830746078
512.7532420082181
512.6623228985483
512.5642708024815
512.4591394376466
512.3469911991886
512.2278971607918
512.1019370598152
511.9691992663295
511.82978073585844
511.6837869456756
511.5313318145474
511.37253760583934
511.20753481396997
511.03646203427104
510.8594658163734
510.6767005013704
510.4883280430846
510.29451781373257
510.09544639429214
509.8912973499172
509.68226099073945
509.46853411838174
509.2503197585467
509.0278268801226
508.8012701013288
508.57086938349386
508.3368497131043
508.0994407727627
507.85887660170977
507.6153952465994
507.3692384032221
507.12065104988017
506.8698810731611
506.6171788868556
506.36279704479796
506.1069898484689
505.85001295025313
505.5921229532429
505.3335770085118
505.07463241087265
504.81554619412395
504.5565747266872
504.2979733085199
504.03999577020386
503.78289407510744
503.5269179255265
503.27231437371773
503.0193274387489
502.76819773011084
502.51916207901445
502.2724531782505
502.0282992314392
501.7869236124753
501.5485445359622
501.3133747393885
501.0816211777507
500.8534847312678
500.62915992680865
500.4088346736214
500.19269001389455
499.98089988861716
499.77363091920984
499.5710422053886
499.3732851396832
499.1805032389522
498.9928319931819
498.8103987317997
498.633322507668
498.46171399891836
498.29567542871075
498.1353005028896
497.9806743654631
497.8318735718315
497.68896607962347
497.5520112569239
497.42105990767027
497.29615431404136
497.1773282956127
497.06460728488963
496.9580084187494
496.85754064537235
496.76320484621465
496.67499397242136
496.59289319500823
496.51688006823355
496.4469247055996
496.38298996781924
496.3250316620154
496.27299875145405
496.22683357512534
496.18647207644875
496.15184404038183
496.12287333824514
496.09947817950336
496.08157136967236
496.0690605735736
496.06184858319494
496.0598335893644
496.0629094564061
496.0709659989867
496.08388926039015
496.1015617914563
496.12386292944774
496.1506690761535
496.1818539745586
496.2172889834335
496.25684334922687
496.30038447464364
496.3477781833046
496.3988889798985
496.4535803052639
496.5117147858844
496.57315447729695
496.6377611009407
496.7053962739939
496.7759217318187
496.8491995426999
496.92509231464885
497.00346339408344
497.0841770561766
497.1670986866467
497.25209495478333
497.33903397754483
497.427785474619
497.5182209143719
497.6102136506448
497.7036390504041
497.7983746122811
497.894300076042
497.99129752305214
498.08925146783224
498.1880489408057
498.2875795623677
498.3877356084425
498.4884120677779
498.5895066912686
498.69092003355087
498.79255548706976
498.894319308827
498.9961206400802
499.0978715193523
499.1994868891142
499.30088459649915
499.40198538838666
499.5027129012291
499.6029936459715
499.7027569883575
499.80193512492156
499.9004630550303
499.9982785493445
500.0953221150697
500.1915369583614
500.2868689442289
500.3812665542706
500.4746808425357
500.5670653897691
500.65837625634276
500.748571934253
500.8376132985457
500.92546355845036
501.0120882084577
501.0974549796366
501.18153379152625
501.26429670494184
501.34571787595104
501.4257735111531
501.50444182432653
501.58170299453883
501.6575391258496
501.7319342087141
501.8048740831867
501.87634640406384
501.94634060812035
502.01484788354855
502.0818611416394
502.1473749906956
502.21138571213334
502.27389123872933
502.33489113498035
502.3943865795368
502.45238034966286
502.50887680763526
502.563881888973
502.61740309241986
502.66944947164023
502.7200316285849
502.7691617084125
502.81685339585675
502.8631219129002
502.9079840174983
502.95145800304425
502.99356369835283
503.03432246797286
503.0737572126348
503.1118923696426
503.14875391298887
503.18436935295273
503.2187677349394
503.2519796372829
503.2840371677186
503.31497395831246
503.34482515870775
503.37362742753
503.40141892172875
503.42823928362264
503.4541296254288
503.4791325110919
503.5032919352553
503.52665329921797
503.549263383757
503.5711703187217
503.5924235492579
503.61307379846323
503.6331730262812
503.652774384545
503.67193216817225
503.6907017625299
503.7091395869406
503.7273030342467
503.7452504063829
503.763040846009
503.7807342642922
503.79839126490793
503.81607306428333
503.8338414080979
503.85175848409165
503.86988683129954
503.8882892458847
503.90702868379645
503.926168160471
503.945770647736
503.9658989680553
503.98661568632974
504.00798299950037
504.03006262416477
504.05291568241495
504.07660258614703
504.1011829201091
504.1267153239492
504.1532573735204
504.1808654617232
504.20959467913696
504.23949869464775
504.2706296363351
504.30303797292987
504.33677239612
504.37187970394564
504.4084046855355
504.44639000743365
504.48587610175645
504.5269010564471
504.56950050790374
504.61370753622606
504.65955256333706
504.70706325421554
504.756264421436
504.80717793320366
504.8598226250908
504.91421421571386
504.97036522658766
505.0282849063724
505.0879791597383
505.1494504810578
505.21269789307456
505.27771689066714
505.344499389811
505.4130336817822
505.48330439260457
505.55529244778387
505.62897504246104
505.7043256171597
505.78131383930247
505.85990559066676
505.94006296091004
506.0217442472404
506.1049039603201
506.1894928365043
506.2754578564972
506.3627422704786
506.4512856297555
506.5410238250137
506.63188913126083
506.72381025955167
506.81671241558183
506.910517365184
507.0051435067292
507.1005059504751
507.1965166049511
507.2930842704947
507.39011474005326
507.48751090734686
507.5851728824345
507.6829981146841
507.78088152315496
507.87871563445435
507.97639072818305
508.0737949901129
508.17081467323555
508.2673342667905
508.3632366733427
508.4584033939386
508.55271472134655
508.64604994139177
508.73828754238497
508.8293054325975
508.9189811656708
509.0071921737742
509.0938160082849
509.1787305877663
509.2618144530229
509.34294702899723
509.4220088932032
509.4988820503238
509.57345021257964
509.6455990854783
509.715216658538
509.7821935005312
509.84642305878276
509.90780196200643
509.9662303261049
510.02161206229704
510.07385518682753
510.12287213137336
510.1685800532272
510.2109011444285
510.2497629390308
510.2850986176438
510.3168473083108
510.3449543827236
510.36937174674085
510.3900581241654
510.4069793327164
510.4201085510991
510.42942657600565
510.4349220677733
510.4365917833648
510.4344407953655
510.4284826957021
510.41873978281717
510.4052432310764
510.38803324123245
510.3671591707418
510.3426796427297
510.3146626324336
510.28318552999076
510.2483351784482
510.21020788588356
510.16890941058955
510.1245549183809
510.0772689111712
510.0271851259633
509.97444640339836
509.91920452509635
509.86162001917546
509.80186193349334
509.74010757628065
509.67654222390934
509.6113587955865
509.544757494908
509.476945418394
509.40813613127926
509.338549210959
509.26840975869425
509.1979478803203
509.1273981367456
509.056998965053
508.9869920712085
508.9176217956411
508.8491344531627
508.7817776488211
508.71579957135987
508.6514482660688
508.58897088894145
508.52861294424883
508.4706175078615
508.4152244387614
508.36266958113663
508.3131839595239
508.26699296963466
508.2243155676333
508.18536346073853
508.1503403021148
508.1194408930971
508.0928503958371
508.07074355950624
508.0532839631983
508.04062327867786
508.03290055610745
508.0302415358404
508.0327579893365
508.04054709224806
508.0536908327155
508.0722554578569
508.0962909612998
508.1258306144679
508.1608905442426
508.2014693595543
508.2475478293449
508.29908861419557
508.3560360536984
508.4183160113806
508.4858357787376
508.5584840397307
508.6361308969024
508.718627960119
508.8058084987765
508.8974876580369
508.99346273937795
509.0935135454763
509.1974027891338
509.304876565687
509.4156648880527
509.5294822832842
509.6460284493111
509.76498897031047
509.88603608889173
510.0088295330393
510.13301739553293
510.25823706328555
510.38411619375455
510.5102737353177
510.636320988249
510.7618627027351
510.8864982102942
511.0098225848184
511.13142782922773
511.25090408354873
511.36784085012897
511.48182823163876
511.59245817745443
511.69932573394357
511.80203029411547
511.9001768420208
511.993377187266
512.0812511851061
512.1634279376475
512.2395469717026
512.3092593888684
512.3722289835011
512.4281333244136
512.4766647962288
512.5175315964933
512.5504586848389
512.5751886806693
512.5914827060031
512.5991211702138
512.5979044936112
512.5876537670445
512.5682113450016
512.5394413699776
512.501230226233
512.4534869213646
512.3961433943759
512.329154749182
512.2524994128968
512.1661792186674
512.0702194131909
511.96466858933763
511.8495985445566
511.7251040660161
511.59130264371464
511.44833411308656
511.2963602289172
511.1355641726229
510.9661499951663
510.78834199811695
510.6023840556336
510.40853888032996
510.2070872361814
509.9983271018746
509.7825727881819
509.56015401312
509.33141493887695
509.0967131745999
508.8564187490781
508.6109130573352
508.36058778523676
508.1058438162957
507.8470901248972
507.58474266012325
507.3192232243132
507.05095835043534
506.7803781822859
506.50791536146903
506.2340039250572
505.9590782177811
505.68357182247314
505.40791651228915
505.1325412280193
504.8578710835928
504.5843264027217
504.31232178946993
504.04226523537034
503.7745572654389
503.5095901252118
503.2477470107747
502.9894013435556
502.7349160913762
502.4846431369765
502.23892269497077
501.9980827779841
501.76243871251654
501.5322927048739
501.3079334572384
501.0896358336905
500.87766057576437
500.6722540670085
500.473648145949
500.28205996663195
500.09769190560894
499.9207315139782
499.7513515129612
499.5897098313226
499.4359496828456
499.29019968205745
499.1525739963301
499.0231725323585
498.90208115486035
498.789371935259
498.68510342808685
498.58932097286566
498.50205701922005
498.42333147299325
498.3531520611164
498.2915147129072
498.23840395548984
498.19379332113687
498.15764576437545
498.12991408671184
498.1105413668936
498.0994613947079
498.0965991063806
498.10187101971275
498.11518566717115
498.1364440252645
498.1655399386628
498.2023605376387
498.24678664752304
498.29869318900876
498.35794956826834
498.4244200559038
498.4979641537932
498.57843694902004
498.6656894542722
498.7595689342185
498.859919217434
498.96658099347115
499.0793920947635
499.1981877631771
499.32280090117763
499.4530623076966
499.58880089890675
499.7298439142011
499.8760171077334
500.0271449258457
500.1830506707148
500.3435566506291
500.5084843173661
500.67765439119546
500.85088697410595
501.02800165188864
501.2088175857712
501.39315359435994
501.58082822661197
501.77165982652156
501.96546659022096
502.1620666162412
502.361277949647
502.5629186207192
502.7668066788416
502.97276022230244
503.1805974247738
503.39013655917574
503.60119601944757
503.81359434071834
504.0271502184448
504.24168252710933
504.45701033902844
504.67295294377885
504.8893298686748
505.10596090064666
505.3226661098103
505.539265875049
505.7555809119616
505.97143230344915
506.18664153315876
506.4010305220392
506.6144216682772
506.8266378907898
507.0375026763501
507.2468401304319
507.4544750318729
507.660232891385
507.86394001386486
508.0654235644957
508.26451163874646
508.461033336386
508.6548188395834
508.84569949516725
509.03350790110045
509.2180779971635
509.3992451597793
509.5768463009347
509.7507199711973
509.92070646676154
510.08664794039225
510.2483885160903
510.40577440729095
510.55865403842006
510.70687816967256
510.8503000248918
510.9887754223747
511.1221629084414
511.2503238936362
511.3731227914142
511.49042715914834
511.6021078412864
511.7080391144478
511.8080988342372
511.90216858352926
511.9901338219675
512.0718840364083
512.1473128920392
512.2163183839067
512.2788029886389
512.3346738161558
512.3838427611299
512.4262266539002
512.4617474105328
512.4903321817424
512.5119135003785
512.5264294271567
512.5338236942744
512.5340458465673
512.5270513798312
512.5128018758694
512.4912651337957
512.4624152971581
512.4262329764958
512.3827053669609
512.3318263606228
512.2735966530057
512.2080238433655
512.1351225282493
512.0549143878833
511.9674282648649
511.8727002346207
511.7707736671376
511.66169927952546
511.5455351789907
511.42234689583324
511.29220740611
511.1551971436361
511.01140400102895
510.86092331952796
510.70385786732635
510.5403178060288
510.3704206447681
510.1942911815896
510.01206143185397
509.8238705434493
509.62986469865973
509.43019700269616
509.22502735893727
509.0145223308527
508.79885499056735
508.57820475408863
508.3527572032685
508.12270389460167
507.88824215500347
507.649574864768
507.4069102279114
507.1604615300993
506.9104468843992
506.65708896519436
506.4006147306576
506.1412551342364
505.8792448256795
505.61482184214384
505.3482272899152
505.0797050173041
504.8095012793747
504.53786439523634
504.2650443986313
503.9912926825555
503.71686163863905
503.4420042920442
503.16697393268083
502.8920237435462
502.61740642696464
502.34337382954084
502.0701765667254
501.79806364788817
501.52728210269856
501.25807660961743
500.9906891273601
500.7253585302527
500.46232024843107
500.20180591378903
499.9440430125186
499.68925454506314
499.4376586942928
499.18946850266434
498.9448915591075
498.70412969639835
498.4673786997696
498.2348280274855
498.00666054408737
497.78305226697125
497.56417212690775
497.3501817430798
497.1412352131601
496.93747891890285
496.73905134771474
496.546082930649
496.3586958971937
496.1770041471229
496.00111313961816
495.831119799865
495.66711244328815
495.50917071752207
495.35736556212834
495.2117591860727
495.07240506299064
494.9393479442091
494.8126238893932
494.69226031460084
494.57827605745973
494.47068145910936
494.3694784625399
494.2746607270154
494.18621375831066
494.10411505439674
494.0283342660377
493.9588333716896
493.89556686610007
493.8384819619576
493.7875188038855
493.742610694061
493.70368432876705
493.6706600451583
493.64345207747806
493.62196882203466
493.606113110333
493.5957824896765
493.5908695103983
493.5912620188938
493.5968434556799
493.6074931576326
493.6230866635175
493.6434960219491
493.66859010093253
493.69823489812376
493.73229385096437
493.77062814588203
493.81309702577187
493.8595580949713
493.90986762100346
493.9638808323718
494.021452211696
494.0824357835112
494.14668539609966
494.2140549966709
494.2843988992385
494.35757204466836
494.43343025243735
494.5118304636484
494.59263097491714
494.6756916627941
494.7608741983897
494.8480422518998
494.9370616867694
495.0278007431923
495.12013021066286
495.21392358935736
495.30905724018373
495.40541052336965
495.50286592551953
495.60130917510514
495.700629346378
495.80071895173614
495.90147402264984
496.00279417929085
496.1045826890284
496.2067465140186
496.3091963481873
496.411846643913
496.5146156287115
496.6174253122315
496.7202014838965
496.82287370153125
496.92537527133896
497.02764321962127
497.129618256643
497.2312447330716
497.3324705894785
497.4332472994458
497.5335298068024
497.6332764574843
497.7324489264788
497.8310121403044
497.92893419549125
498.0261862735256
498.12274255270097
498.21858011729677
498.3136788645312
498.40802140982805
498.50159299095475
498.5943813714977
498.6863767440822
498.7775716338199
498.8679608024324
498.95754115331005
499.0463116376638
499.13427316199983
499.2214284971997
499.30778218947046
499.3933404734303
499.47811118759824
499.5621036925277
499.64532879174567
499.7277986556373
499.80952674844866
499.8905277585395
499.97081753196153
500.05041300941576
500.1293321665907
500.2075939578168
500.2852182630097
500.3622258379245
500.4386382676955
500.5144779235234
500.5897679222941
500.66453208894023
500.73879492139616
500.81258155800487
500.8859177472106
500.9588298193118
501.03134466000967
501.10348968555434
501.1752928192954
501.2467824693528
501.31798750715643
501.38893724672477
501.4596614245223
501.5301901796726
501.6005540342643
501.6707838734324
501.7409109248619
501.81096673739154
501.8809831584071
501.95099230975404
502.02102656196547
502.0911185066183
502.16130092662985
502.231606764335
502.3020690871704
502.372721050758
502.44359585919267
502.5147267223703
502.586146810215
502.6578892036813
502.7299868423595
502.8024724685139
502.87537856741955
502.94873730391737
503.02258045515157
503.09693933950456
503.17184474179066
503.24732683477026
503.32341509703014
503.40013822725126
503.4775240548909
503.55559944736666
503.6343902138676
503.71392100594005
503.7942152149995
503.8752948669615
503.9571805142395
504.0398911253848
504.12344397259346
504.2078545172771
504.29313629395784
504.3793007928429
504.46635734147276
504.55431298581374
504.6431723711858
504.7329376234501
504.82360823094587
504.9151809276859
505.0076495782943
505.10100506519495
505.1952351785438
505.29032450930583
505.3862543459003
505.48300257493526
505.58054358655903
505.6788481848913
505.7778835040382
505.87761293025113
505.97799603081637
506.07898849027714
506.1805420546065
506.28260448392064
506.3851195142934
506.4880268292177
506.5912620412648
506.69475668444306
506.7984382177285
506.902230040217
507.00605151832406
507.1098180254784
507.2134409948145
507.31682798528783
507.41988276147
507.52250538723774
507.62459233361983
507.7260366010603
507.8267278563236
507.9265525842488
508.0253942545298
508.12313350366895
508.21964833224985
508.3148143176314
508.4085048420916
508.5005913363756
508.5909435385264
508.67942976776584
508.7659172130883
508.8502722361354
508.9323606878565
509.0120482384019
509.0892007196794
509.16368447995404
509.23536674974736
509.30411601821277
509.3698024191399
509.4322981257334
509.4914777532489
509.5472187684738
509.5994019049818
509.6479115830875
509.6926363333978
509.7334692227548
509.7703082812909
509.80305692926163
509.83162440221605
509.8559261730099
509.87588436916957
509.89142818412125
509.9024942807851
509.9090271859985
509.9109796741946
509.908313138736
509.90099794931314
509.8890137937973
509.87235000290184
509.85100585599093
509.8249908664267
509.79432504485646
509.7590391388214
509.71917484711474
509.6747850074308
509.62593375591047
509.57269665720156
509.5151608037147
509.4534248827985
509.38759921061444
509.31780573156885
509.244177982221
509.1668610187182
509.08601130693967
509.00179657464884
508.91439562507463
508.82399811146274
508.7308042721972
508.63502462622324
508.5368796286667
508.43659928666386
508.3344227355358
508.2305977756261
508.1253803703152
508.01903410586823
507.91182961388023
507.80404395718875
507.6959599803593
507.5878656260361
507.4800532186378
507.37281871706756
507.2664609382552
507.16128075347626
507.05758025958824
506.95566192737675
506.8558277292164
506.75837824840966
506.66361177278947
506.5718233753074
506.48330398447905
506.39833944770913
506.31720959064177
506.2401872758005
506.1675374638351
506.0995162806603
506.03637009380543
505.978334601362
505.92563393693797
505.8784797940443
505.83707057337267
505.801590556433
505.7722091090005
505.74907991777127
505.7323402635739
505.7221103344309
505.7184925817081
505.7215711224895
505.73141119118856
505.7480586432716
505.77153951378534
505.80185963317217
505.83900430269824
505.8829380316896
505.93360433861614
505.9909256178482
506.05480307364553
506.1251167226891
506.2017254662428
506.2844672327704
506.37315919159704
506.4675980379326
506.56756034930504
506.6728030131903
506.78306372533194
506.89806155790825
507.0174975964018
507.1410556437808
507.2684029903312
507.39919124719154
507.5330572413914
507.66962396990186
507.80850160987603
507.9492885820009
508.09157266363786
508.23493214817137
508.37893704680397
508.5231503288591
508.6671291964377
508.8104263890862
508.95259151405
509.0931723975709
509.2317164525044
509.3677720573955
509.50088994206675
509.63062457470926
509.75653554541395
509.8781889410705
509.99515870653875
510.107027987004
510.213390446528
510.31385155794663
510.40802985936983
510.49555817262933
510.5760847791244
510.6492745486207
510.7148100167374
510.7723924071538
510.8217425947923
510.8626020063532
510.89473345475176
510.9179219042489
510.93197516334544
510.9367245028037
510.93202519645
510.9177569827042
510.8938244450906
510.86015731029585
510.8167106626784
510.7634650745444
510.700426651952
510.6276269962548
510.5451230819896
510.4529970520696
510.3513559315222
510.24033126125363
510.120078653598
509.99077727177945
509.8526292357446
509.70585895709024
509.5507124060328
509.3874563135739
509.21637731227327
509.03778101930857
508.85199106567194
508.65934807551236
508.4602085998581
508.254944009122
508.0439393489092
507.82759216377957
507.60631129373417
507.38051564823206
507.15063296256653
506.9170985414232
506.6803539943898
506.4408459681457
506.19902488001946
505.955343657524
505.71025648837553
505.4642175854354
505.2176799709373
504.97109428423556
504.72490761715363
504.47956238080616
504.2354952075197
503.99313589126535
503.7529063698692
503.51521975207356
503.2804793922233
503.04907801508057
502.8213968930104
502.59780507750844
502.3786586868015
502.16430025096645
501.95505811566755
501.7512459052816
501.5531620459149
501.361089348596
501.1752946527176
500.9960285295596
500.8235250454679
500.6580015839874
500.49965872600154
500.3486801866743
500.2052328077865
500.06946660392794
499.94151486087384
499.82149428425834
499.70950519638353
499.60563177884967
499.50994235858707
499.4224897346947
499.34331154336087
499.2724306580542
499.2098556221043
499.15558111077894
499.1095884200275
499.0718459790647
499.04230988390435
499.0209244489334
499.0076227736064
499.002327321344
499.00495050774947
499.0153952952824
499.03355579157517
499.05931784870023
499.0925596608351
499.1331523578527
499.180960592488
499.235843118865
499.29765336028714
499.36623996429034
499.4414473430664
499.5231161975393
499.61108402355853
499.7051855988384
499.8052534493694
499.91111829413404
500.0226094670964
500.1395553155873
500.26178357437675
500.38912171488056
500.5213972690721
500.65843812782623
500.8000728135629
500.94613072716237
501.09644236923157
501.2508395359619
501.4091554899605
501.5712251065924
501.73688499645715
501.9059736046486
502.07833128751
502.2538003676628
502.4322251681999
502.61345202704535
502.797329292543
502.983707301338
503.1724383396694
503.36337658924003
503.5563780587861
503.7513005024893
503.9480033264933
504.1463474848827
504.34619536647824
504.5474106737735
504.7498582953162
504.95340417280977
505.1579151641978
505.36325890397285
505.56930366188914
505.77591820118874
505.9829716374564
506.1903332991925
506.3978725911315
506.6054588613113
506.81296127285054
507.0202486813336
507.2271895186962
507.4336516844897
507.6395024452951
507.844608342922
508.0488351119499
508.2520476071648
508.4541097414185
508.65488443437977
508.85423357258253
509.052017981074
509.24809740690074
509.442330514694
509.63457489461774
509.8246870828994
510.01252259509147
510.1979359721381
510.3807808392773
510.5609099777695
510.7381754093884
510.9124284935837
511.0835200372089
511.2513004166267
511.4156197118962
511.57632785262774
511.73327477500555
511.88631058945407
512.0352857584329
512.1800512838672
512.3204589037282
512.4563612972571
512.587612298236
512.7140671156235
512.8355825608361
512.9520172810285
513.0632319977467
513.1690897503116
513.2694561432885
513.3641995974026
513.4531916031871
513.536306976564
513.6134241155656
513.684425257442
513.7491967353998
513.8076292341889
513.859618043751
513.9050633101463
513.9438702829852
513.9759495586208
514.001217318359
514.0195955609826
514.0310123289128
514.0354019273078
514.0327051353596
514.0228694090976
514.005849075069
513.9816055142762
513.9501073357876
513.9113305394678
513.8652586672325
513.8118829421891
513.7512023950839
513.683223977548
513.6079626616755
513.5254415254964
513.4356918239083
513.3387530446611
513.2346729490578
513.1235075971574
513.0053213572953
512.8801868997173
512.7481851741713
512.6094053713458
512.463944868092
512.3119091564005
512.1534117561297
511.98857411155694
511.8175254718528
511.640402755556
511.4573503991825
511.26852019021874
511.07407108479805
510.8741690103103
510.66898665324806
510.45870323268036
510.2435042598005
510.02358128405257
509.7991316264635
509.5703581008417
509.3374687234455
509.10067641163977
508.8601986720885
508.61625727910933
508.3690779439107
508.11888997550466
507.8659259340994
507.6104212777945
507.3526140034704
507.0927442827952
506.83105409422296
506.567786851829
506.30318703182957
506.03749979763825
505.770970624327
505.50384492337724
505.23636766863325
504.96878302434635
504.7013339761326
504.4342619656411
504.16780652974285
503.90220494507787
503.63769187879933
503.37449904632047
503.11285487685547
502.8529841876027
502.59510786741754
502.3394425707028
502.086200422156
501.8355887330329
501.5878097295824
501.3430602942441
501.10153172011866
500.86340947914545
500.6288730043909
500.3980954868557
500.1712436871808
499.9484777625651
499.7299511091424
499.51581022001085
499.3061945591009
499.10123645105085
498.9010609871908
498.7057859476744
498.5155217397897
498.330371352399
498.1504303263052
497.97578674023896
497.80652121219697
497.64270691586967
497.4844096118495
497.33168769326943
497.1845922454855
497.04316711936605
496.90744901768534
496.77746759404477
496.6532455637007
496.5347988257374
496.4221365960486
496.3152615505486
496.2141699780159
496.11885194193525
496.0292914506238
495.9454666348432
495.86734993210814
495.794908277002
495.72810329683085
495.6668915118492
495.6112245392372
495.5610493001019
495.51630822884283
495.4769394842266
495.44287716150654
495.41405150490493
495.3903891198097
495.37181318405493
495.3582436576982
495.34959749069895
495.3457888278869
495.3467292106503
495.35232777490353
495.36249144495923
495.3771251229051
495.39613187310994
495.41941310154135
495.44686872964445
495.4783973625759
495.5138964515792
495.5532624503218
495.59639096509756
495.64317689879704
495.6935145885058
495.74729793665836
495.80442053582505
495.86477578727033
495.92825701339274
495.99475756416103
496.0641709176821
496.1363907749971
496.2113111492198
496.28882644923226
496.36883155830293
496.45122190800805
496.5358935477456
496.62274321013257
496.71166837263075
496.80256731576685
496.8953391783264
496.9898840099207
497.08610282134657
497.1838976331653
497.2831715229136
497.3838286713167
497.4857744078753
497.58891525620606
497.6931589793565
497.7984146252048
497.9045925721516
498.01160457537173
498.11936381383606
498.22778493826866
498.3367841202353
498.4462791025555
498.5561892511691
498.6664356085649
498.77694094885425
498.8876298345373
498.9984286750077
499.10926578679107
499.2200714554249
499.33077799882227
499.44131983198724
499.5516335329258
499.6616579095208
499.77133406712454
499.88060547663855
499.9894180428374
500.09772017264163
500.2054628430202
500.31259966820477
500.41908696585153
500.52488382172675
500.6299521525169
500.7342567663788
500.83776542080085
500.94044887734196
501.0422809528027
501.1432385663156
501.24330178176274
501.3424538449639
501.44068121521025
501.53797359081943
501.63432392840406
501.72972845548094
501.82418667598233
501.9177013682088
502.0102785748097
502.101927584413
502.19266090450634
502.2824942251997
502.3714463735939
502.4595392585381
502.5467978055885
502.6332498819913
502.7189262115561
502.80386027934156
502.8880882260739
502.971648732254
503.05458289194314
503.1369340763075
503.2187477870781
503.300071500134
503.380954499441
503.4614477016384
503.54160347161786
503.62147542941227
503.70111824872
503.7805874474479
503.8599391707607
503.9392299671527
504.0185165580946
504.09785560184304
504.17730345204666
504.25691591180106
504.3367479838091
504.41685361734733
504.49728545281175
504.5780945646604
504.65933020360876
504.74103953894263
504.8232674017771
504.90605603007856
504.989444816335
505.073470058824
505.15816471747235
505.2435581753438
505.32967600684253
505.41653975363295
505.504166709127
505.59256971236
505.68175695216803
505.7717317825915
505.8624925503844
505.95403243546133
506.0463393051389
506.1393955831197
506.23317813413473
506.3276581649697
506.42280114247257
506.51856672910014
506.614908736534
506.7117750978887
506.8091078590399
506.906843189628
507.0049114142893
507.1032370645417
507.20173895167517
507.30033026107844
507.39891866840657
507.49740647778265
507.59569078208096
507.69366364531714
507.7912123071375
507.8882194093443
507.9845632442592
508.0801180245798
508.17475417425817
508.2683386398849
508.3607352220679
508.4518049262382
508.5414063321107
508.62939598088985
508.7156287792953
508.7999584194768
508.8822378138412
508.9623195437449
509.0400563209084
509.1153014603579
509.1879093636117
509.25773601071063
509.3246394596514
509.38848035180405
509.4491224218314
509.5064330105242
509.5602835789176
509.6105502220257
509.6571141804447
509.6998623480387
509.73868777390794
509.7734901568664
509.8041763306095
509.83066073766247
509.8528658902417
509.8707228162289
509.88417148842854
509.89316123519757
509.89765113055097
509.89761036187946
509.89301857350875
509.8838661844016
509.87015467830895
509.8518968647032
509.8291171088865
509.80185152971603
509.7701481634896
509.73406709274917
509.69368053890037
509.6490729175005
509.60034085507283
509.5475931664832
509.4909507920901
509.43054669395207
509.36652571046153
509.2990443689452
509.22827065594197
509.1543837450051
509.0775736820264
508.99804102823816
508.9159964612121
508.83166033440773
508.74526219601074
508.65704026789166
508.5672408856021
508.47611790050695
508.3839320453475
508.2909502647018
508.19744501195066
508.1036935145153
508.0099770092907
507.91657995034916
507.8237891911458
507.7318931436145
507.6411809166715
507.55194143679023
507.4644625534586
507.3790301324151
507.29592713970203
507.21543271970194
507.13782127037086
507.0633615188704
506.9923156007961
506.9249381462191
506.861475375836
506.802164210611
506.74723139835913
506.69689266073385
506.6513518640126
506.61080021699803
506.57541549934956
506.5453613236363
506.52078643431236
506.5018240467158
506.4885912291071
506.4811883306336
506.4796984579263
506.484187002908
506.4947012242762
506.51126988493814
506.5339029474847
506.5625913295754
506.5973067208513
506.63800146273
506.6846084922327
506.7370413507826
506.79519425866073
506.858942255557
506.92814140745696
507.0026290798609
507.08222427703816
507.16672804674306
507.2559239495638
507.3495785918087
507.4474422205756
507.5492493794057
507.65471962271727
507.76355828691686
507.87545731578115
507.9900961374952
508.1071425905031
508.22625389511785
508.34707766766434
508.4692529737456
508.5924114169617
508.71617825915496
508.8401735680203
508.9640133878165
509.0873109289366
509.2096777721032
509.3307250829087
509.4500648323436
509.56731101883213
509.6820808872401
509.79399614034804
509.90268413834184
510.00777908193135
510.10892317468097
510.20576776016543
510.29797442974086
510.385216096882
510.46717803419045
510.54355886935434
510.61407153648275
510.6784441794264
510.73642100385626
510.78776307496486
510.83224905785903
510.86967589793164
510.89985943862104
510.92263497420385
510.93785773566935
510.94540330805506
510.9451679778696
510.937069009509
510.9210448498878
510.8970552608594
510.86508137939325
510.82512570584714
510.7772120210198
510.72138523292216
510.6577111544272
510.5862762132498
510.50718709603166
510.42057032854717
510.32657179420636
510.2253561931575
510.11710644447214
510.0020230341493
509.8803233118811
509.75224073973163
509.6180240960913
509.47793663842566
509.33225522842724
509.1812694232614
509.02528053674416
508.8646006743944
508.6995517463658
508.5304644622858
508.35767731205016
508.1815355366363
508.0023900929864
507.820596616957
507.63651438826116
507.4505053011457
507.2629328444213
507.0741610944457
506.88455372464347
506.6944730350508
506.50427900517644
506.3143283731978
506.1249737442678
505.93656273056394
505.7494371255805
505.56393211500466
505.3803755263603
505.19908711934494
505.02037791853667
504.8445495899762
504.671893862968
504.50269199820667
504.33721430305565
504.17571969451933
504.0184553103024
503.8656561681977
503.7175448737756
503.5743313760666
503.43621277074175
503.30337315009956
503.17598349898174
503.054201635542
502.9381721955548
502.8280266587637
502.72388341572025
502.62584787353853
502.53401259887596
502.44845749625415
502.3692500196695
502.2964454154088
502.23008699393165
502.1702064286117
502.1168240790748
502.0699493368378
502.02958099090176
501.9957076109325
501.96830794565324
501.9473513340892
501.93279812735045
501.9246001186672
501.922700979439
501.92703669917
501.93753602726565
501.95412091474026
501.9767069539523
502.0052038145377
502.0395156737599
502.07954163957424
502.1251761648009
502.17630945095095
502.23282784043914
502.29461419597556
502.3615482659419
502.4335070346456
502.5103650564737
502.5919947730901
502.67826681301074
502.7690502730714
502.8642129813724
502.96362174135453
503.06714255676695
503.17464083739605
503.2859815855504
503.4010295634693
503.51964944193116
503.64170593041484
503.76706388921286
503.8955884239595
504.02714496307357
504.16159931864684
504.29881773140465
504.4386669004351
504.5810139984184
504.7257266731409
504.87267303611037
505.02172163914366
505.17274143982377
505.32560175675275
505.4801722155628
505.6363226866628
505.79392321568577
505.95284394761273
506.11295504555767
506.2741266051989
506.4362285658636
506.5991306192671
506.7627021169361
506.9268119774379
507.0913285944522
507.25611974646483
507.4210525087619
507.5859931684877
507.7508071435523
507.9153589061138
508.0795119113021
508.2431285318293
508.40606999911563
508.56819635147866
508.72936638991854
508.8894376420403
509.04826633460476
509.2057073751586
509.36161434311026
509.5158394905028
509.6682337526853
509.8186467691057
509.96692691444764
510.11292134032027
510.2564760276717
510.39743585007085
510.5356446480292
510.67094531449237
510.80317989155765
510.9321896784421
511.0578153507284
511.1798970908359
511.2982747295649
511.4127878985025
511.5232761930537
511.6295793457864
511.7315374097046
511.82899095102266
511.92178125103584
512.009750516687
512.0927420993676
512.170600721416
512.2431727098118
512.3103062366312
512.3718515658526
512.4276613060715
512.4775906686718
512.521497730923
512.5592437033774
512.5906932009036
512.6157145167098
512.6341798987257
512.6459658276405
512.6509532958189
512.6490280863234
512.6400810513255
512.6240083892055
512.6007119195649
512.5700993553452
512.5320845712403
512.4865878676493
512.4335362294626
512.3728635789781
512.3045110222389
512.2284270880051
512.1445679585496
512.0528976915135
511.9533884321324
511.8460206151943
511.73078315605454
511.6076736300217
511.4766984394329
511.3378729676832
511.191221719513
511.0367784469076
510.87458625995293
510.7046977219903
510.5271749284822
510.34208956907617
510.1495229724407
509.94956613343606
509.74231972213687
509.527894074284
509.30640916284017
509.07799455036286
508.8427893219649
508.60094199870565
508.3526104312969
508.0979616740857
507.83717183935556
507.5704259320019
507.2979176646156
507.01984925303594
506.7364311925462
506.4478820149768
506.1544280270275
505.85630303016563
505.5537480225305
505.24701088332074
504.93634604018933
504.6220141202402
504.3042815853221
503.983420352395
503.6597073997744
503.3334243600627
503.0048571005982
502.67429529230253
502.34203196781806
502.00836306985167
501.67358699069683
501.33800410395986
501.0019162895728
500.6656264532144
500.32943804127353
499.9936545525176
499.6585790476325
499.32451365779895
498.99175909353806
498.6606141550983
498.3313752456672
498.0043358886887
497.6797862505498
497.3580126698295
497.0392971942431
496.7239171264292
496.41214457972507
496.1042460450932
495.80048197036876
495.5011063528983
495.20636634653147
494.9165018838961
494.63174531485413
494.3523210620043
494.0784452940784
493.81032561804597
493.5481607906892
493.2921404503399
493.0424448694371
492.7992447284874
492.56270091192556
492.3329643263222
492.11017574131523
491.89446565354444
491.6859541737959
491.48475093748937
491.29095503859526
491.10465498699733
490.9259286892124
490.754843452275
490.5914560105277
490.4358125749785
490.28794890485227
490.14789040088954
490.0156522198137
489.89123940933456
489.77464706312156
489.6658604951688
489.56485543285186
489.4715982279025
489.3860460845105
489.3081473037363
489.2378415433262
489.175060091941
489.1197261567675
489.071755163451
489.03105506727815
488.9975266745492
488.97106397306493
488.95155447065713
488.9388795407439
488.9329147738828
488.93353033421005
488.9405913196025
488.9539581244735
488.97348680417593
488.99902943998063
489.0304345035965
489.06754722025585
489.1102099294202
489.15826244215236
489.21154239422043
489.26988559411734
489.33312636527694
489.40109788178484
489.4736324968975
489.5505620637141
489.63171824738174
489.7169328282746
489.80603799564676
489.89886663130886
489.9952525829612
490.09503092687874
490.1980382196447
490.3041127386507
490.41309471112044
490.5248265314778
490.6391529669278
490.75592135120354
490.87498176652997
490.9961872139013
491.1193937718082
491.2444607435808
491.37125079356633
491.4996300724117
491.62946833173805
491.7606390284837
491.89301941922326
492.02649064484825
492.1609378060222
492.29625002977735
492.43232052759134
492.5690466453193
492.706329905365
492.8440760414718
492.982195026534
493.1206010938498
493.2592127522104
493.3979527951765
493.53674830487677
493.67553065067443
493.814235483045
493.95280272294934
494.0911765470066
494.22930536878624
494.3671418164502
494.5046427068892
494.64176901649404
494.7784858486889
494.91476239829143
495.05057191272533
495.18589165008547
495.32070283408444
495.45499060586263
495.5887439725875
495.7219557527473
495.85462251800755
495.98674453144787
496.11832568197775
496.2493734147344
496.3798986572241
496.50991574094854
496.6394423182787
496.7684992743469
496.8971106337381
497.02530346173035
497.1531077598179
497.28055635524595
497.4076847842839
497.53453116897447
497.66113608711754
497.78754243526464
497.91379528447766
498.0399417285947
498.16603072478387
498.29211292623035
498.4182405068509
498.54446697796874
498.6708469969591
498.7974361679218
498.9242908344779
499.0514678648299
499.1790244292729
499.30701777040946
499.43550496637897
499.56454268749115
499.69418694669633
499.82449284434153
499.95551430770024
500.08730382586
500.2199121806481
500.3533881743126
500.48777835470287
500.62312673875596
500.7594745351751
500.8968598672505
501.035317496787
501.174878550137
501.31557024738146
501.4574156357672
501.6004333285498
501.7446372504092
501.89003639060724
502.036634565058
502.18443018847626
502.33341605779236
502.48357914803813
502.6349004218778
502.7873546539291
502.9409102710208
503.0955292095364
503.25116679092065
503.4077716163896
503.56528548185656
503.72364331401866
503.88277312851477
504.0425960110306
504.2030261221844
504.3639707269826
504.5253302495906
504.68699835407074
504.8488620516606
505.0108018350715
505.172691840173
505.3344000353133
505.49578843845103
505.6567133621239
505.8170256860952
505.9765711573632
506.13519071708834
506.2927208538667
506.44899398270115
506.6038388489235
506.7570809562348
506.90854301793416
507.0580454302791
507.2054067668296
507.3504442925266
507.49297449614653
507.632813639651
507.7697783228443
507.90368606165936
508.0343558783234
508.1616089015784
508.2852689750271
508.4051632715637
508.5211229118368
508.63298358466494
508.74058616723585
508.84377734283123
508.9424102138117
509.03634490756696
509.12544917305246
509.2095989654941
509.28867901687494
509.3625833898538
509.4312160128222
509.4944911938673
509.55233411141336
509.60468127930113
509.6514809840725
509.6926936922893
509.728292425808
509.7582631030601
509.7826048444994
509.8013302404553
509.8144655797184
509.8220510372901
509.8241408198358
509.8208032675025
509.8121209109033
509.7981904821986
509.77912287935135
509.755043082802
509.72609002399054
509.6924164052963
509.65418847114495
509.6115857301999
509.5648006287018
509.51403817521197
509.4595155172644
509.4014614706105
509.3401160018849
509.2757296657047
509.2085629974063
509.1388858627862
509.06697676637884
508.99312211996494
508.91761547318487
508.8407567083343
508.76285120156746
508.684208952904
508.6051436875891
508.5259719314944
508.4470120633536
508.3685833467844
508.2910049452093
508.2145949228934
508.13966923539766
508.066540712838
507.9955180394112
507.9269047327138
507.86099812641874
507.79808835991196
507.73845737852264
507.6823779479642
507.63011268662365
507.58191311934985
507.53801875639306
507.49865620108534
507.4640382897829
507.4343632674789
507.40981400240895
507.39055724286726
507.37674291934
507.36850349494216
507.36595336702413
507.36918832265815
507.37828505057786
507.39330071195764
507.41427257218174
507.44121769554357
507.47413270462846
507.51299360594436
507.5577556831447
507.60835345891724
507.6647007263553
507.72669065041345
507.7941959398609
507.8670690899156
507.9451426954019
508.028229833854
508.116124517681
508.2086022142855
508.3054204327908
508.406319375765
508.51102265409594
508.6192380629818
508.7306584167459
508.84496243988553
508.9618157114973
509.08087165999314
509.20177260483996
509.3241508418705
509.44762976848494
509.57182504487275
509.6963457872677
509.8207957890971
509.94477476572524
510.0678796183818
510.1897057127651
510.30984816774895
510.42790314957426
510.5434691668971
510.6561483620665
510.7655477939991
510.87128070804266
510.97296778826427
511.070238387656
511.1627317318106
511.2500980916748
511.33199992111895
511.4081129552055
511.47812726518623
511.5417482664339
511.59869767572394
511.6487144144292
511.691555454344
511.72699660303414
511.75483322584364
511.77488090193316
511.78697601194096
511.7909762551154
511.7867610941301
511.77423212609733
511.7533133785618
511.7239515296116
511.68611605168223
511.6397992789899
511.5850163988627
511.52180536751507
511.45022675107896
511.37036349299007
511.28232060911785
511.1862248123107
511.08222406828924
510.9704870849935
510.8512027376832
510.72457943233456
510.590844410144
510.4502429961597
510.3030377952754
510.14950783900986
509.989947686654
509.82466648451947
509.6539869871773
509.47824454466513
509.29778605971006
509.11296891912093
508.9241599035928
508.73173408019244
508.53607368179456
508.33756697775
508.1366071400298
507.9335911090342
507.7289184631598
507.5229902961293
507.31620810599753
507.1089726996478
506.90168311649813
506.6947355750526
506.48852244580263
506.2834312538324
506.0798437142795
505.8781348035748
505.6786718692014
505.4818137805212
505.28791012299683
505.09730043791586
504.9103135094936
504.7272667010027
504.5484653413557
504.3742021633179
504.2047567942532
504.0403953000651
503.88136978276776
503.7279180319108
503.5802632298322
503.4386137104886
503.3031627713924
503.174088537952
503.0515538793378
502.93570637484453
502.82667832952103
502.72458683762943
502.62953389233235
502.54160653986804
502.46087707636315
502.3874032852926
502.32122871344103
502.2623829830969
502.2108821381151
502.1667290214139
502.12991368144225
502.10041380509125
502.0781951744777
502.0632121449913
502.0554081419802
502.0547161734199
502.06105935592456
502.07435145146945
502.0944974122499
502.121393931148
502.15492999534075
502.19498744069324
502.24144150469175
502.29416137572986
502.3530107365978
502.41784830008237
502.48852833467373
502.564901178526
502.6468137399728
502.7341099830281
502.82663139640147
502.9242174446693
503.02670600036015
503.1339337558167
503.2457366138147
503.3619500560279
503.48240948858563
503.6069505641775
503.73540948028375
503.8676232532031
504.0034299676591
504.14266900189415
504.28518122830474
504.4308091897926
504.57939725202027
504.7307917317068
504.8848410011324
505.041395569299
505.2003081405382
505.3614336515108
505.52462928753073
505.6897544791553
505.85667088006096
506.02524232723124
506.1953347844632
506.36681627023245
506.53955677102937
506.7134281413472
506.88830399156143
507.0640595649675
507.24057160524785
507.41771821567403
507.595378711358
507.7734334658298
507.9517637532078
508.1302515871974
508.3087795581464
508.4872306693974
508.6654881741684
508.84343541416735
509.02095566108517
509.1979319620484
509.3742469900625
509.5497829004154
509.7244211939662
509.8980425881757
510.07052689674583
510.2417529187455
510.411598338048
510.5799396337766
510.746652002403
510.91160929210196
511.0746839498597
511.2357469817709
511.3946679269464
511.5513148454025
511.7055543202176
511.857251474217
512.0062700014612
512.1524722137419
512.2957191021643
512.4358704138483
512.5727847437322
512.706319641376
512.8363317325274
512.9626768551141
513.0852102092467
513.2037865207923
513.3182602180823
513.4284856212888
513.5343171438936
513.6356095056044
513.7322179560315
513.8239985084494
513.9108081829721
513.9925052584568
514.0689495324017
514.140002588077
514.2055280680923
514.2653919535531
514.3194628479592
514.3676122649782
514.4097149192263
514.4456490191543
514.4752965611287
514.4985436237481
514.5152806614177
514.5254027962446
514.5288101073423
514.5254079166623
514.515107070481
514.4978242156678
514.4734820698867
514.4420096848626
514.4033427018702
514.3574235986081
514.3042019266867
514.2436345389557
514.1756858058866
514.1003278202155
514.0175405891158
513.9273122132349
513.8296390519291
513.724525874054
513.6119859937331
513.4920413905991
513.3647228140321
513.2300698709381
513.0881310967098
512.9389640091167
512.7826351448798
512.6192200786999
512.4488034246017
512.2714788194958
512.0873488888413
511.8965251942882
511.6991281632472
511.4952870004238
511.28513958142383
511.06883232857973
510.84652006918856
510.6183658764003
510.38454089305077
510.1452241387784
509.9006023007868
509.65086950867106
509.39622709379427
509.1368833337524
508.8730531824945
508.6049579866872
508.3328251889006
508.0568880182052
507.7773851688059
507.4945604673942
507.208662529967
506.9199444089377
506.628663231379
506.33507982921896
506.0394583621873
505.7420659343593
505.4431722051592
505.14304899565917
504.8419698909679
504.540209839517
504.2380447500702
503.9357510872949
503.63360546674494
503.3318842501066
503.03086314153063
502.73081678583407
502.43201836936976
502.13473922436015
501.83924843747474
501.5458124634289
501.25469474436903
500.96615533580416
500.6804505397749
500.3978325458736
500.11854908073747
499.8428430666778
499.57095229006256
499.3031090800095
499.03953999788445
498.7804655380613
498.52609984042664
498.2766504151839
498.0323178805065
497.79329571345875
497.559770014442
497.3319192853542
497.10991422166705
496.89391751861007
496.68408369158806
496.480558910942
496.28348085118165
496.09297855483265
495.9091723110057
495.73217354874106
495.5620847451259
495.3989993481703
495.24300171442746
495.09416706128764
494.9525614338356
494.8182416861288
494.6912554767574
494.5716412785531
494.459428402302
494.3546370342744
494.25727828731556
494.1673542652015
494.0848581399669
494.0097742419218
493.9420781620896
493.88173686681154
493.8287088242817
493.782944142774
493.7443847202437
493.71296440491807
493.6886091665015
493.6712372776831
493.6607595056405
493.6570793131826
493.6600930691618
493.669690267824
493.6857537567523
493.70815997308955
493.736779187769
493.77147575745414
493.81210838381736
493.8585303798002
493.9105899425083
493.96813043237523
494.0309906581882
494.09900516756375
494.1720045424613
494.2498156993671
494.3322621938015
494.4191645287637
494.5103404666453
494.6056053441247
494.7047723896185
494.80765304292083
494.9140572766797
495.02379391935085
495.13667097919307
495.25249596880394
495.37107622970655
495.4922192564868
495.6157330199826
495.74142628905463
495.8691089504504
495.9985923262437
496.129689488322
496.2622155693913
496.395988069961
496.5308271607996
496.66655598036516
496.8030009266657
496.9399919429307
497.0773627964693
497.2149513501002
497.352599825565
497.4901550583179
497.62746874310454
497.764397669747
497.90080394854965
498.03655522472684
498.1715248812726
498.30559222973994
498.4386426884181
498.5705679473482
498.70126611963525
498.830641878578
498.95860658012737
499.0850783701669
499.20998227612847
499.33325028252256
499.45482138999813
499.57464165744045
499.6926642265557
499.80884932855923
499.9231642727411
500.03558341663324
500.14608811754243
500.25466666540603
500.36131419706504
500.4660325920481
500.56883034993433
500.669722449338
500.76873018856844
500.8658810080992
500.96120829510636
501.054751170406
501.14655425814965
501.2366674386923
501.3251455851118
501.4120482839023
501.4974395403694
501.58138746932065
501.66396397174844
501.7452443983036
501.8253072004539
501.90423357027953
501.98210706986805
502.0590132512673
502.135039267951
502.21027347885894
502.28480504619193
502.358723528215
502.43211846829826
502.5050789814124
502.5776933393384
502.6500485559185
502.72222997370596
502.7943208534121
502.8664019675922
502.9385512000156
503.01084315213745
503.0833487581033
503.15613490973294
503.2292640929052
503.3027940367164
503.37677737676154
503.4512613338709
503.52628740961507
503.6018910998618
503.6781016276661
503.7549416967452
503.8324272666641
503.91056735071305
503.98936383739886
504.0688113364551
504.14889705023927
504.2296006713402
504.31089430712905
504.3927424318893
504.47510186707996
504.55792179024314
504.6411437730377
504.7247018488072
504.8085226099898
504.89252533554406
504.9766221484556
505.060718203303
505.1447119037459
505.2284951496631
505.31195361354247
505.3949670455789
505.4774096067853
505.5591502292707
505.64005300271083
505.71997758596785
505.7987796427552
505.87631130016223
505.95242162876974
506.0269571430378
506.09976232056704
506.1706801387276
506.23955262708085
506.3062214339552
506.37052840544163
506.4323161749866
506.4914287616703
506.54771217516645
506.60101502531285
506.6511891341681
506.698090148413
506.7415781499296
506.78151826240924
506.81778125182984
506.8502441186223
506.8787906793701
506.9033121359075
506.9237076296496
506.93988477900155
506.9517601977318
506.9592599921854
506.96232023519894
506.96088741461864
506.95491885440913
506.94438310643204
506.9292603110765
506.9095425250219
506.8852340145196
506.85635151263193
506.82292443893317
506.78499508027517
506.7426187313509
506.6958637939705
506.6448118341075
506.58955759583904
506.53020897138566
506.46688692657733
506.39972538122294
506.3288710440797
506.2544832023281
506.17673346559377
506.0958054646822
506.01189450533496
505.92520717744264
505.83596092032974
505.74438354488893
505.6507127135226
505.5551953790077
505.4580871835219
505.35965181921154
505.26016035184585
505.1598905093202
505.0591259369611
504.9581554216907
504.85727208721715
504.7567725625517
504.65695612630304
504.55812382931873
504.46057759833394
504.36461932341405
504.2705499320834
504.1786684531073
504.08927107291504
504.00265018774496
503.9190934547025
503.8388828449398
503.76229370223064
503.68959381030845
503.62104247233833
503.5568896058167
503.49737485614486
503.4427267321586
503.39316176698736
503.34888370764173
503.3100827365658
503.27693472818925
503.24960054344024
503.2282253650816
503.21293807655303
503.20385068689615
503.20105780426616
503.20463616040814
503.21464418834677
503.2311216554195
503.2540893535931
503.2835488487208
503.3194822901751
503.36185228210473
503.4106018173905
503.4656542751316
503.5269134822775
503.594263839861
503.6675705140775
503.7466796921608
503.83141890273333
503.92159740003956
504.01700661123726
504.1174206456737
504.22259686486814
504.33227651169983
504.44618539700184
504.56403464147513
504.6855214706179
504.8103300602029
504.93813242968025
505.0685893806641
505.20135147741723
505.33606006603947
505.472348328904
505.6098423707347
505.7481623325713
505.88692352973874
506.0257376098322
506.1642137266321
506.30195972579514
506.4385833381323
506.57369337626807
506.7069009304596
506.83782055930885
506.9660714710561
507.09127869112984
507.2130742116941
507.3310981191087
507.4449996953697
507.5544384897042
507.6590853565733
507.7586234564357
507.8527492157512
507.94117324285355
508.0236211964651
508.0998346038103
508.16957162543184
508.23260776394346
508.2887365141193
508.3377699519721
508.37953926077415
508.41389519228755
508.44070846172457
508.4598700751966
508.47129158867335
508.47490529778923
508.47066435822427
508.45854283677176
508.43853569351813
508.41065869582286
508.37494826504405
508.33146125719037
508.280274678902
508.221485340387
508.15520944710624
508.0815821321947
508.00075693185056
507.9129052061891
507.81821550828334
507.7168929043037
507.6091582478329
507.49524741157865
507.3754104798309
507.2499109051277
507.11902463272605
506.9830391966077
506.8422527908225
506.69697331993456
506.54751743232305
506.39420954012775
506.2373808296168
506.07736826574734
505.9145135946699
505.7491623478784
505.58166285158677
505.41236524485413
505.2416205099742
505.06977951860927
504.8971920969642
504.72420611311077
504.5511665893761
504.37841484253363
504.20628765437283
504.03511647508503
503.86522666172255
503.69693675377744
503.5305577877336
503.36639265222243
503.2047354851867
503.0458711142723
502.8900745414752
502.7376104728716
502.58873289405216
502.44368469163214
502.302697320935
502.1659905197218
502.0337720676606
501.90623759105716
501.78357041218
501.6659414423522
501.55350911781903
501.44641937719473
501.3448056791474
501.24878905890387
501.1584782220257
501.0739696737103
500.9953478816713
500.92268547055573
500.85604344587523
500.7954714454381
500.7410080162081
500.6926809144188
500.6505074267245
500.6144947101698
500.5846401487417
500.56093172424943
500.54334839932034
500.5318605103593
500.5264301683246
500.5270116652083
500.533551884164
500.5459907112226
500.5642614465372
500.58829121326386
500.6180013623632
500.6533078717052
500.69412173786736
500.74034935902324
500.79189290740686
500.84865069001154
500.91051749636364
500.9773849323855
501.04914173953097
501.1256740984839
501.20686591672984
501.29259909935814
501.3827538026106
501.47720866983747
501.5758410496198
501.6785271959402
501.78514245041487
501.8955614067179
502.0096580574175
502.12730592350175
502.2483781669676
502.37274768696784
502.50028720003525
502.6308693049205
502.7643665326615
502.90065138256614
503.03959634486165
503.18107391082344
503.32495657127595
503.47111680441856
503.61942705397973
503.7697596987355
503.92198701441185
504.0759811289758
504.231613972324
504.3887572213673
504.54728224152785
504.70706002569966
504.8679611317489
505.02985561956456
505.19261298858135
505.3561021166441
505.5201912010694
505.68474770271166
505.8496382938362
506.0147288106002
506.17988421089035
506.34496853819354
506.50984489207866
506.67437540582074
506.83842123171985
507.00184253468194
507.16449849454335
507.3262473174615
507.48694625659573
507.64645164224777
507.80461892158314
507.9613027080334
508.1163568404349
508.2696344519449
508.42098804875513
508.5702695985837
508.71733062888603
508.86202233470516
509.0041956960594
509.1437016047337
509.28039100026695
509.41411501483844
509.54472512671464
509.6720733219045
509.7960122636617
509.9163954694344
510.033077494819
510.145914123991
510.2547625660429
510.35948165661785
510.4599320642076
510.55597650047724
510.6474799339711
510.73430980655576
510.8163362519649
510.89343231584695
510.96547417672076
511.0323413672018
511.09391699481193
511.15008796170594
511.200745182663
511.2457838007144
511.2851033998141
511.3186082139833
511.34620733235033
511.36781489947936
511.38335031039986
511.3927383998164
511.3959096250182
511.3928002420253
511.38335247452204
511.3675146751313
511.3452414785834
511.31649394635093
511.2812397023652
511.2394530594377
511.1911151359974
511.1362139627618
511.0747445789843
511.0067091179519
510.9321168814896
510.85098440328204
510.7633355008162
510.6692013157573
510.5686203426205
510.46163844563677
510.3483088636868
510.22869220316903
510.10285641871485
509.9708767817064
509.83283583655873
509.68882334470646
509.5389362162469
509.38327842923076
509.2219609366447
509.0551015611983
508.88282487807135
508.7052620858289
508.52255086573524
508.3348352296996
508.1422653570858
507.94499742063437
507.74319340172843
507.5370208952447
507.32665290427343
507.11226762505254
506.89404822250964
506.6721825968275
506.4468631414041
506.218286492521
505.986653271065
505.7521678167328
505.51503791516546
505.2754745184257
505.03369145923364
504.78990515941416
504.5443343329968
504.2971996844132
504.04872360226676
503.7991298491656
503.5486432481289
503.2974893661464
503.045894195508
502.7940838335011
502.5422841610362
502.29072052074986
502.03961739518934
501.78919808576416
501.5396843931046
501.2912962994462
501.0442516536371
500.7987658592947
500.55505156659376
500.31331836821164
500.0737725000589
499.83661654746095
499.6020491574173
499.370264757513
499.1414532820491
498.9157999059508
498.6934847870222
498.4746828171214
498.2595633827735
498.04829013574505
497.8410207740973
497.63790683416954
497.43909349395807
497.2447193884105
497.05491643716164
496.8698096851893
496.6895171567963
496.514149723276
496.34381098460324
496.17859716543205
496.0185970255912
495.8638917852449
495.7145550649555
495.5706528408904
495.43224341531266
495.29937740240484
495.1720977294388
495.0504396532578
494.9344307919832
494.82409117183545
494.7194332889949
494.62046218642996
494.5271755455953
494.43956379287977
494.3576102206023
494.2812911222287
494.2105759414047
494.1454274343761
494.085801845362
494.0316490944258
493.98291297730975
493.9395313766148
493.9014364836755
493.8685550305288
493.840808531343
493.81811353264436
493.8003818716695
493.78752094217845
493.7794339670231
493.7760202766948
493.7771755930294
493.7827923172278
493.7927598213506
493.8069647424442
493.8252912784845
493.8476214853408
493.87383557398005
493.90381220712607
493.93742879458733
493.9745617864709
494.0150869635254
494.0588797238439
494.10581536510443
494.1557693615051
494.20861763459567
494.26423681728164
494.3225045103299
494.38329953075254
494.4465021515319
494.511994332233
494.5796599400958
494.64938496118265
494.72105770114933
494.7945689752547
494.8698122872784
494.94668399701317
495.0250834760574
495.104913251705
495.18607913877213
495.2684903592175
495.3520596494528
495.43670335528213
495.5223415144902
495.60889792718245
495.69630021400314
495.78447986234835
495.87337226068615
495.9629167211315
496.05305649045744
496.1437387497795
496.23491460324306
496.32653905609914
496.41857098254985
496.5109730836993
496.6037118359859
496.6967574305012
496.79008370356587
496.88366805891974
496.97749138191284
497.07153794609314
497.16579531257
497.260254222516
497.35490848324247
497.4497548482966
497.5447928919781
497.6400248786484
497.73545562723234
497.8310923713547
497.9269446155222
498.023023987755
498.1193440890797
498.21592034028845
498.31276982632073
498.40991113854113
498.5073642151276
498.60515017973785
498.7032911785964
498.80181021619364
498.9007309898328
499.0000777232338
499.09987499941417
499.20014759307344
499.3009203027172
499.40221778272996
499.5040643755741
499.6064839442811
499.70949970538106
499.81313406239065
499.91740844000367
500.0223431191828
500.1279570733974
500.23426780624965
500.34129119073054
500.44904131034934
500.55753030235724
500.66676820327683
500.7767627969972
500.8875194657213
500.9990410440645
501.1113276765766
501.22437667900726
501.3381824037021
501.45273610955036
501.5680258369033
501.68403628791674
501.8007487127972
501.91814080244734
502.03618658807494
502.15485634831765
502.2741165243775
502.39392964358876
502.51425425183663
502.63504485528495
502.75625187192145
502.877821593458
502.99969615816207
503.1218135351286
503.24410752047226
503.366507745952
503.4889397005341
503.6113247653665
503.73358026262946
503.8556195186818
503.977351941848
504.098683115136
504.21951490417865
504.3397455806919
504.4592699617278
504.57797956491663
504.6957627798124
504.8125050554713
504.9280891043616
505.0423951225709
505.15530102610893
505.26668270301894
505.37641428093735
505.4843684096557
505.59041655814235
505.6944293254352
505.7962767647734
505.89582872025557
505.9929551752306
506.087526611557
506.1794143787503
506.26849107196153
506.3546309177373
506.4377101665106
506.5176074906724
506.59420438695537
506.6673855817812
506.73703943817003
506.8030583628013
506.86533921177937
506.92378369360216
506.97829876784533
507.02879703807935
507.07519713747746
507.1174241054441
507.1554097535678
507.18909301928926
507.2184203057582
507.2433458063738
507.2638318125117
507.2798490029659
507.2913767136357
507.29840318596285
507.30092579265994
507.29895123940645
507.2924957413017
507.28158517292974
507.2662551909183
507.24655132796937
507.2225290574652
507.19425382789274
507.161801066468
507.1252561514089
507.08471435239346
507.04028073885706
506.99207005585134
506.9402065672365
506.8848238660772
506.8260646522745
506.7640804776445
506.69903145880096
506.6310859583933
506.5604202354363
506.4872180655679
506.4116703321498
506.3339745892388
506.25433459757295
506.1729598348447
506.09006498166497
506.00586938466176
505.9205964981584
505.83447330600814
505.7477297253722
505.66059799436397
505.57331204558864
505.4861068676959
505.3992178570974
505.3128801619742
505.22732802069186
505.1427940968105
505.0595088129811
504.9776996860465
504.8975906656958
504.8194014790299
504.743346983401
504.6696365298822
504.59847333967804
504.5300538957542
504.46456735196045
504.40219496183715
504.3431095292043
504.2874748826002
504.23544537556995
504.18716541469973
504.142769017126
504.1023793991367
504.066108597428
504.03405712449927
504.0063136594747
503.9829547754617
503.9640447044843
503.94963514100965
503.9397650850192
503.93446072546334
503.9337353646901
503.9375893842035
503.9460102519902
503.95897257150114
503.97643817217795
503.998356241232
504.0246634962638
504.0552843981601
504.0901314035601
504.12910525602
504.17209531483405
504.21897992034536
504.26962679447144
504.32389347501976
504.3816277822259
504.4426683158754
504.5068449812826
504.57397954230845
504.64388619953473
504.7163721915918
504.7912384174546
504.868280077421
504.9472873304657
505.0280459655903
505.1103380847069
505.19394279453365
505.2786369049709
505.3641956314046
505.45039329838875
505.53700404219234
505.62380250974377
505.7105645515586
505.7970679063034
505.8830928747405
505.9684229808931
506.05284561828944
506.13615267915475
506.21814116441925
506.2986137724527
506.37737946457986
506.4542540055848
506.52906047751804
506.60162976525294
506.67180101238915
506.73942204624615
506.80434977080745
506.8664505265892
506.925600416536
506.9816855971648
507.0346025342979
507.0842582228404
507.13057037018257
507.1734675429336
507.2128892767761
507.2487861493369
507.2811198161305
507.3098630098822
507.3349995038354
507.3565240398743
507.37444222244466
507.3887703794115
507.39953539104647
507.4067744883361
507.41053502186634
507.4108742026414
507.40785881627505
507.401564912087
507.3920774687073
507.37949003778203
507.36390436739623
507.3454300069378
507.32418389528135
507.30028993426873
507.2738785494919
507.24508624033604
507.21405512118463
507.18093245564626
507.14587018558996
507.1090244567056
507.07055514233764
507.0306253674017
506.9894010342214
506.9470503520024
506.90374337150104
506.85965152639136
506.8149471828112
506.7698031984951
506.72439249280984
506.67888762894495
506.6334604093911
506.5882814857288
506.5435199836749
506.4993431442437
506.45591598182887
506.4134009599347
506.37195768516597
506.33174261993275
506.29290881419985
506.2556056565407
506.21997864467636
506.18616917553896
506.1543143547931
506.1245468256324
506.09699461658664
506.07178100806783
506.0490244173878
506.0288383018938
506.01133107970935
505.99660606746113
505.9847614342903
505.97589017138404
505.9700800762224
505.96741375073447
505.96796861255604
505.9718169185273
505.9790257995577
505.98965730602123
506.0037684627839
506.0214113328962
506.04263308896554
506.0674760912356
506.09597797141544
506.12817172131435
506.16408578539495
506.2037441564143
506.24716647332133
506.29436812055155
506.34536032789174
506.4001502701
506.45874116553756
506.52113237314364
506.5873194871428
506.6572944289634
506.73104553589735
506.808557646035
506.88981217906115
506.9747872125637
507.06345755354687
507.15579480489123
507.25176742658454
507.35134079170297
507.45447723720787
507.5611361095351
507.67127380488176
507.7848438042155
507.90179670320435
508.0220802372734
508.1456393018874
508.27241596816526
508.4023494940018
508.53537633100655
508.6714301276664
508.81044172908145
508.95233917358075
509.0970476866206
509.24448967244956
509.3945847040065
509.5472495115183
509.70239797028825
509.85994108819216
510.0197869934272
510.1818409230089
510.346005212467
510.5121792871935
510.68025965589186
510.8501399064924
511.02171070486304
511.1948597966475
511.3694720125101
511.54542927705694
511.7226106217685
511.9008922023216
512.0801473206266
512.2602464518725
512.4410572768837
512.6224447201289
512.8042709937091
512.9863956476037
513.1686756263905
513.3509653325622
513.5331166964745
513.714979252938
513.8964002244494
514.0772246110373
514.2572952866467
514.4364531020238
514.6145369940896
514.7913841017883
514.9668298883842
515.1407082701423
515.3128517512913
515.4830915651427
515.6512578212047
515.8171796580891
515.9806854019399
516.1416027301145
516.2997588398699
516.4549806218213
516.6070948379626
516.755928304067
516.9013080762652
517.0430616415673
517.1810171121261
517.3150034230731
517.4448505338082
517.5703896326132
517.6914533443837
517.8078759411549
517.9194935550565
518.0261443933213
518.1276689549497
518.2239102486749
518.31471401197
518.3999289308675
518.4794068602755
518.553003044462
518.6205763373575
518.6819894223826
518.7371090315579
518.7858061636664
518.8279563011735
518.8634396255114
518.8921412302582
518.9139513317332
518.928765476617
518.9364847463047
518.9370159577325
518.9302718604075
518.9161713293557
518.8946395536702
518.8656082203196
518.8290156927794
518.7848071840413
518.7329349236121
518.6733583181376
518.6060441052449
518.5309665001886
518.4481073348511
518.3574561887217
518.2590105115759
518.1527757374866
518.0387653897233
517.9170011761067
517.7875130743936
517.6503394072206
517.5055269061605
517.3531307645123
517.1932146784595
517.0258508762046
516.8511201346798
516.6691117834654
516.4799236955926
516.2836622650134
516.0804423705802
515.8703873262733
515.653628817289
515.4303068215786
515.2005695165614
514.9645731707782
514.722482020356
514.4744681301813
514.2207112397697
513.961398593857
513.6967247577065
513.4268914171577
513.1521071635203
512.8725872634936
512.5885534142969
512.3002334842373
512.0078612389403
511.71167605352525
511.41192261104084
511.10885058757736
510.802714324494
510.4937724882432
510.1822877183474
509.8685262641417
509.5527576109691
509.2352540965934
508.9162905186093
508.59614373361325
508.2750922489066
507.95341580754115
507.63139496756975
507.30931067637687
506.9874438409795
506.6660748952808
506.3454833653331
506.02594743368894
505.70774350387165
505.39114576593926
505.0764257641169
504.7638519675521
504.45368934534923
504.14619894703617
503.84163748956706
503.54025695197566
503.2423041788093
502.94802049341223
502.65764132207244
502.3713958300056
502.0895065701125
501.8121891454741
501.53965188656224
501.2720955440332
501.0097129978493
500.7526889834701
500.501199835851
500.2554132519125
500.01548807208763
499.78157408154107
499.5538118316298
499.33233248210666
499.11725766443334
498.908699366464
498.7067598387077
498.51153152235815
498.32309699925474
498.14152896388833
497.9668902175073
497.7992336842757
497.63860244933386
497.4850298185513
497.33853939969055
497.1991452045771
497.06685177174006
496.9416543089098
496.82353885475857
496.71248245926546
496.60845338205723
496.5114113079888
496.42130757917613
496.33808544267373
496.2616803129481
496.1920200482415
496.1290252398518
496.0726095133323
496.0226798405934
495.97913686191436
495.94187521684347
495.91078388292505
495.8857465211745
495.8666418272028
495.8533438868715
495.84572253540347
495.84364371891786
495.8469698573775
495.8555602079218
495.869271227528
495.8879569339178
495.91146926367907
495.9396584266514
495.97237325572576
496.0094615512401
496.05077041912364
496.09614660196064
496.145436802257
496.1984879972709
496.2551477447929
496.31526447927104
496.37868779766643
496.4452687344239
496.5148600249921
496.5873163574397
496.66249461179063
496.74025408677613
496.82045671378347
496.9029672577962
496.9876535051027
497.0743864375803
497.1630403934282
497.2534932143572
497.3456263793563
497.4393251251586
497.5344785534912
497.6309797251625
497.7287257410882
497.82761781046753
497.9275613063921
498.0284658091456
498.1302451374348
498.232817367858
498.3361048429961
498.44003416846823
498.5445361991925
498.64954601510533
498.7550028866486
498.8608502304003
498.96703555518314
499.0735103989377
499.180230256686
499.2871544999191
499.39424628767597
499.50147246961853
499.60880348146725
499.7162132331719
499.82367899014906
499.9311812478583
500.0387035999767
500.1462326004639
500.2537576198065
500.36127069571285
500.4687663785162
500.57624157151304
500.68369536651215
500.7911288749499
500.89854505493145
501.00594853449246
501.1133454313096
501.22074316911414
501.3281502911113
501.435576270636
501.5430313192256
501.6505261923015
501.7580719926961
501.8656799722589
501.97336133180085
502.0811270196732
502.1889875293565
502.29695269648784
502.4050314957579
502.5132318380833
502.6215603684627
502.7300222649417
502.8386210391512
502.9473583389572
503.0562337538473
503.1652446236732
503.27438585129244
503.3836497196763
503.4930257141165
503.6025003501961
503.71205700814454
503.82167577417937
503.9313332895185
504.0410026078159
504.15065306176604
504.26025013954387
504.36975537171975
504.47912622934786
504.5883160339557
504.69727388017236
504.80594457176034
504.91426857176856
505.0221819674092
505.1296164501728
505.236499311678
505.34275345576964
505.4482974273924
505.55304545871854
505.65690753294905
505.75978946622325
505.86159300803365
505.96221596041494
506.0615523161061
506.1594924158435
506.2559231248506
506.35072802852727
506.44378764732403
506.534979670733
506.6241792101514
506.7112590702401
506.79609003831615
506.87854119125933
506.95848021935814
507.0357737664738
507.1102877857573
507.1818879099774
507.2504398353838
507.315809717942
507.3778645807211
507.4364727311826
507.49150418705335
507.5428311094764
507.5903282421115
507.63387335474846
507.67334768986865
507.708636410517
507.73962904784287
507.76621994667295
507.7883087074743
507.80580062303005
507.8186071080458
507.826646119849
507.8298425683481
507.8281287134528
507.8214445482164
507.80973816596503
507.7929661096675
507.77109370185747
507.7440953535287
507.7119548504561
507.67466561546496
507.6322309452354
507.58466422027334
507.53198908671965
507.4742396087678
507.411460390616
507.3437066669841
507.2710443613055
507.19355011081655
507.1113112579001
507.0244258071105
506.93300234745834
506.837159939747
506.73702796888506
506.6327459611377
506.52446336636353
506.4123393054154
506.2965422830833
506.1772498672091
506.0546483348107
505.9289322861595
505.80030422785296
505.66897412606056
505.5351589312769
505.399082076039
505.2609729471489
505.12106633402465
504.9796018549467
504.83682336311455
504.6929783344808
504.54831723936354
504.40309289993934
504.2575598358215
504.11197359998846
503.96659010735226
503.82166495820434
503.6774527588093
503.5342064415191
503.3921765868784
503.2516107501754
503.11275279484016
502.9758422351081
502.84111359046295
502.7087957543341
502.5791113793962
502.45227628170255
502.3284988657648
502.2079795725721
502.0909103524816
501.97747416494934
501.86784450705846
501.7621849726138
501.660648843316
501.5633787133896
501.47050614899155
501.38215138368105
501.2984230510777
501.2194179556394
501.14522088232945
501.07590444576124
501.0115289792233
500.9521424638482
500.8977804980323
500.8484663069599
500.80421079192047
500.7650126190118
500.73085834671826
500.7017225916766
500.67756823174886
500.65834664541745
500.64399798642813
500.6344514925264
500.6296258270138
500.6294294516763
500.6337610294858
500.6425098553622
500.6555563131395
500.6727723567821
500.69402201388453
500.7191619094416
500.74804180779523
500.7805051706047
500.8163897286711
500.8555280653487
500.8977482091399
500.9428742330391
500.99072685827343
501.04112406018334
501.0938816739876
501.14881399818694
501.2057343934151
501.2644558746085
501.32479169444787
501.3865559160638
501.44956397301667
501.51363321464174
501.5785834349392
501.6442373832721
501.71042125524735
501.7769651622916
501.84370357847797
501.91047576329686
501.9771261592924
502.0435047636392
502.1094674728473
502.1748763999586
502.23960016378913
502.303514149874
502.3665007427899
502.42844952952595
502.489257473641
502.5488290601437
502.60707641125117
502.6639193733073
502.7192855752014
502.7731104586787
502.8253372810035
502.8759170904989
502.9248086756359
502.9719784885232
503.0174005437538
503.06105629369887
503.1029344814626
503.14303097276064
503.18134856804824
503.2178967963388
503.25269169221747
503.28575555756515
503.3171167094645
503.3468092157506
503.3748726196179
503.40135165463494
503.42629595149157
503.4497597379049
503.47180153322137
503.4924838392162
503.51187282839857
503.5300380310575
503.54705202230343
503.56299011035327
503.57793002733786
503.59195162393013
503.60513656901014
503.6175680554199
503.6293305126917
503.64050932757027
503.65119057315974
503.661460747402
503.671406521499
503.68111449881644
503.690670984719
503.70016176777307
503.7096719127637
503.71928556595486
503.7290857728986
503.7391543089525
503.74957152259645
503.7604161916381
503.7717653923553
503.78369438156005
503.796276491518
503.80958303753727
503.82368323784084
503.838644145316
503.85453059078293
503.8714051374996
503.8893280466528
503.90835725353327
503.9285483539874
503.94995460070385
503.9726269088192
503.99661387023775
504.02196177604424
504.0487146463439
504.0769142667689
504.1066002309258
504.1378099881958
504.17057889636527
504.2049402785266
504.24092548366195
504.2785639503066
504.3178832727103
504.35890926899395
504.4016660508
504.4461760939236
504.4924603094634
504.5405381150099
504.5904275053148
504.6421451218134
504.6957063204138
504.751125237074
504.80841485077025
504.8675870434056
504.928652656195
504.9916215421632
505.0565026144966
505.12330389056876
505.1920325314714
505.26269487684493
505.3352964747244
505.40984210604364
505.48633580354357
505.56478086496185
505.645179860363
505.7275346333561
505.8118462959513
505.8981152168914
505.9863410033702
506.0765224760936
506.1686576377288
506.2627436348524
506.3587767134619
506.45675216809974
506.556664284747
506.658506277694
506.76227022059294
506.86794697188145
506.97552609479203
507.08499577219794
507.1963427165376
507.30955207506383
507.4246073306538
507.5414901984624
507.66018051880746
507.7806561467257
507.9028928386537
508.026864136716
508.15254125104354
508.2798929405387
508.4088853925545
508.5394821020331
508.6716437506842
508.8053280867482
508.94048980587456
509.0770804337007
509.215048210801
509.35433798066555
509.4948910813021
509.636645241046
509.7795344792448
509.9234890125649
510.06843516764366
510.21429530071117
510.36098772474014
510.508426644734
510.65652210180525
510.805179926692
510.95430170328245
511.1037847426368
511.25352206802586
511.4034024115831
511.55331022313015
511.70312569160757
511.8527247794602
512.0019792702589
512.1507568296701
512.2989210797841
512.4463316868948
512.5928444629762
512.7383114811197
512.8825812051002
513.0254986331024
513.1669054555153
513.3066402266738
513.4445385504401
513.5804332795348
513.7141547284673
513.845530899845
513.9743877237444
514.1005493097176
514.2238382109728
514.3440757001848
514.4610820562589
514.5746768613005
514.6846793070346
514.7909085098794
514.8931838338303
514.991325220384
515.0851535247007
515.1744908571857
515.2591609296769
515.3389894054125
515.4138042518706
515.483436095472
515.547718577034
515.606488706921
515.6595872189521
515.7068589221444
515.7481530493142
515.7833236015523
515.8122296875506
515.8347358567021
515.8507124249251
515.8600357922709
515.8625887514468
515.8582607864025
515.8469483600873
515.8285551905426
515.8029925145862
515.7701793384174
515.7300426745227
515.6825177642821
515.6275482856462
515.5650865452623
515.4950936544908
515.4175396888045
515.3324038301449
515.2396744918933
515.1393494261267
515.0314358128417
514.9159503308618
514.7929192102528
514.6623782661856
514.5243729142763
514.3789581674774
514.2261986145309
514.0661683799167
513.8989510652343
513.7246396720573
513.5433365063939
513.3551530649954
513.1602099038599
512.9586364892851
512.7505710319015
512.5361603042569
512.3155594426111
512.0889317334721
511.85644838528503
511.6182882856635
511.3746377446742
511.1256902248245
510.8716460584035
510.6127121527264
510.3491016838139
510.081033779108
509.80873318988387
509.53242995411534
509.25235905066444
508.9687600457628
508.6818767327127
508.3919567655897
508.09925128760096
507.80401455475095
507.5065035555682
507.20697762764115
506.90569807163143
506.6029277634198
506.29893076513116
505.9939719358862
505.68831654315665
505.38222987557646
505.07597685797145
504.7698216693341
504.46402736447686
504.15885550011666
503.85456576610125
503.5514156224193
503.249659942611
502.94955066424
502.6513364470817
502.35526233958274
502.0615694541209
501.77049465164146
501.4822702362188
501.1971236600482
500.9152772393434
500.63694788163014
500.36234682489004
500.0916793889911
499.82514473982144
499.56293566653466
499.3052383723028
499.0522322788953
498.8040898453326
498.5609764008266
498.32304999216535
498.09046124572217
497.86335324431593
497.64186141905117
497.42611345616723
497.21622921892464
497.0123206845052
496.81449189587335
496.6228389285537
496.4374498722492
496.25840482719605
496.08577591511107
495.91962730454134
495.7600152503973
495.6069881473367
495.46058659656177
495.32084348561136
495.1877840808415
495.06142613230867
494.94177999066017
494.82884873556037
494.7226283152312
494.6231076967618
494.53026902682456
494.44408780226445
494.36453304988953
494.2915675147818
494.22514785651987
494.16522485279273
