509.99999999999994
510.07783418926635
510.15536694719015
510.2322890127593
510.3082883918816
510.38305296192357
510.45628400330196
510.5276859434078
510.59697373031076
510.6638582522595
510.7280447560408
510.78924858696627
510.8472065669458
510.9016513880348
510.9523362879357
510.9990135893084
511.0414483498442
511.07942127310776
511.1127208312921
511.1411596110379
511.1645468143383
511.1826865332195
511.19538638385535
511.2024899233059
511.20386576464216
511.1993819801931
511.18890652160877
511.1723245605204
511.14954490225387
511.120487018195
511.0850901206239
511.04329580168115
510.99504769719204
510.94031737265476
510.8790911916529
510.8113592918809
510.73712839969477
510.65641721113303
510.5692474190788
510.4756609202293
510.37570611873497
510.2694593608416
510.1570098464207
510.038442331659
509.91386546335997
509.7833765524017
509.64707422407156
509.50508627798155
509.3575472202312
509.2045865786447
509.0463610154639
508.88303431638127
508.7147793981671
508.5417649937281
508.3641706253327
508.1821951601235
507.9960283212746
507.8058480115134
507.6118524494791
507.4142596897621
507.2132744261429
507.00911387082766
506.80197660288866
506.59207894680276
506.37965664294876
506.1649274825046
505.9481151042945
505.7294508142557
505.509168941657
505.28750682190855
505.064684994206
504.8409308659673
504.6164916431571
504.3915994333606
504.16646221784174
503.9413046104576
503.7163518381925
503.4918316764949
503.2679677869998
503.04497942631303
502.82307882231885
502.60248610622176
502.3834227167972
502.1661006326311
501.95071996533926
501.7374638252884
501.52652809691347
501.3181078500254
501.1123928948267
500.9095700467085
500.70980540209445
500.51327221352284
500.3201329666683
500.1305436315151
499.94466457533235
499.76264746040215
499.58462861095336
499.410737503704
499.2410921385134
499.0758141087841
498.9150196657217
498.7588175072464
498.6073044403836
498.4605631455645
498.31868178618646
498.18173669090766
498.0497947995585
497.9229048483109
497.8011211527957
497.6844858979946
497.57302696804703
497.4667755918488
497.36576223607926
497.2700015882185
497.1795126763763
497.0942908885681
497.0143124499016
496.93955380460994
496.8699802494953
496.8055588081259
496.74624929608365
496.6920109171855
496.64280494527515
496.5985956304697
496.5593115432624
496.52486954363917
496.4951941914429
496.47021802236014
496.4498623901935
496.4340378596395
496.42265539599606
496.4156288576885
496.4128645632222
496.4142618996
496.41971363551613
496.42911697701413
496.44236726832503
496.4593604908975
496.47998486701766
496.5041410486893
496.5317273933089
496.5626338869867
496.5967334787373
496.6339124411678
496.6740659089297
496.71707614350476
496.76283234770005
496.8112441948289
496.86221401788777
496.91564602794676
496.97144239110617
497.0295012812181
497.0897233723891
497.15199857579415
497.21623860604024
497.2823527915308
497.3502480295821
497.4198330952755
497.49103625613657
497.56379248607135
497.63801972201605
497.71364741540685
497.7906056382265
497.86883416775214
497.94826307246507
498.0288145774405
498.1104222799637
498.1930286791438
498.2765695714183
498.36098235613304
498.4461989664942
498.5321695196725
498.6188511477087
498.706183837187
498.794116528076
498.8826138096251
498.97162994172857
499.061117633402
499.15103025833724
499.24132412321
499.3319497536705
499.42286278175027
499.51401062917034
499.6053431715855
499.69682789054747
499.7884194897243
499.8800755239359
499.9717431597503
500.0633653498883
500.15489791489097
500.24629630688094
500.3375201888231
500.42850938881594
500.51920979566864
500.6095884273829
500.69960305945176
500.7892070165213
500.878353824816
500.96699521408436
501.0550966855029
501.14261380993935
501.229494597475
501.315681533638
501.40112217863526
501.48577111980774
501.5695744720089
501.65249813331957
501.73450834723747
501.81558328478695
501.89568300076417
501.9747562332946
502.05277096873164
502.1296947774238
502.20549050496817
502.2801183671612
502.3535443964676
502.4257402690483
502.4966945504669
502.566386880066
502.63481017511924
502.70195567616275
502.76780454333465
502.83233003379024
502.8955123481402
502.95734018557187
503.01782814261804
503.07698009181695
503.13479839166115
503.1912816971639
503.24643573800574
503.3002688702872
503.35278761785963
503.4039984699181
503.4539140439688
503.50255958343024
503.5499599997107
503.5961312310343
503.6410931762191
503.68486710967153
503.72747985272804
503.76895053391826
503.8093099129226
503.8485827040193
503.88680957758186
503.9240209781106
503.96023481168805
503.9954801911956
504.02978408894575
504.0631732086943
504.0956845624436
504.12734134104437
504.1581725953441
504.1882065674721
504.21746621685674
504.24598897117227
504.2737961662327
504.30091043340485
504.32735559652986
504.353154592723
504.37832507144066
504.4028659101146
504.42679391568896
504.4501215622529
504.4728524386194
504.4949942050199
504.5165585267703
504.5375612628617
504.5580141099059
504.5779205818019
504.597289355444
504.61611923747023
504.6344279544814
504.6522176109505
504.66947930003334
504.68621284927605
504.7024116759126
504.71807152651274
504.733179491028
504.74772043414146
504.76168761352994
504.775071572941
504.78787548965323
504.80009789988975
504.8117308853431
504.8227689982388
504.8331936690065
504.84301016524483
504.85221507192097
504.8608119925496
504.8688075484206
504.87619419022735
504.88297427092607
504.8891600889964
504.8947635261954
504.8997922893446
504.90423446098373
504.9080929161908
504.9113696511072
504.9140699822279
504.9162176163204
504.9178283776278
504.91891916684216
504.9195125735478
504.9196371959865
504.9193192457025
504.91858493307626
504.9174693607539
504.9159902578571
504.91417392197
504.9120394356065
504.90961360467685
504.9069374856114
504.90404013774685
504.90094494071803
504.89768445974653
504.89431764318664
504.89089072554265
504.8874355687901
504.8839761593073
504.88054773989995
504.8771787019526
504.8739052967587
504.87076928777503
504.8678227099129
504.8651130382398
504.86267467944697
504.86052211622956
504.8586843345454
504.8571935110602
504.85608051847896
504.85537262598757
504.85510647329676
504.855315095298
504.85601719426165
504.85723009488106
504.8589692860085
504.86125239641405
504.86410790020443
504.8675556840686
504.87160065183605
504.8762588102037
504.88155293110395
504.8874843540949
504.8940615356452
504.9012781394643
504.90912808414
504.91761851165586
504.92674581719075
504.9365176810961
504.94693358781
504.9579761431515
504.9696328800332
504.9818896260464
504.99472815062353
505.008145743563
505.02211596903777
505.03662151969957
505.0516387869246
505.0671487334811
505.08313483240596
505.09957025977957
505.1164488925691
505.13374639226805
505.15142922512644
505.1694744264949
505.18785659935565
505.2065458550669
505.22550118311295
505.2446898298554
505.2640936484263
505.2836808361148
505.3034281383491
505.3232902416394
505.3432257512422
505.3631881091186
505.383133859968
505.4030331445806
505.422858648443
505.44258602148585
505.462188068786
505.4816286355372
505.5008803078591
505.5199004932439
505.53865329778233
505.5571119111891
505.5752459277491
505.59302170342505
505.6103935758457
505.6273364670066
505.6438087807253
505.6597654821836
505.6751775021904
505.69002280672515
505.70425793044126
505.7178551996059
505.7307897339989
505.7430420661884
505.75457441431996
505.7653722523387
505.7754248738764
505.78468851015015
505.79313408850066
505.80074462326536
505.80749778734696
505.8133747354752
505.8183644972908
505.82245762419154
505.8256376430537
505.82789652296225
505.829223833527
505.82961116404914
505.8290543988758
505.8275449971967
505.82509403443754
505.82172605177755
505.8174514166259
505.8122466371007
505.8061059312687
505.79905598907584
505.79113451702625
505.78237568081096
505.7728063805067
505.76243551171007
505.751284148516
505.73938056422696
505.7267533000807
505.7134353573772
505.69947295021376
505.6849059017495
505.66977845852705
505.65413696231735
505.6380276066915
505.6214895058854
505.6045760415031
505.58734386926096
505.5698552847496
505.55217167488524
505.5343513333984
505.51644487852997
505.4985102020968
505.4806145795791
505.4628105177141
505.44514834261514
505.4276910179707
505.4104986727272
505.393630824746
505.3771529284915
505.361118708324
505.3455940644587
505.3306306604617
505.316272235448
505.3025673884169
505.2895714817441
505.2773421884365
505.26592873427023
505.25536080699374
505.2457007325881
505.2369868182363
505.22925547811235
505.2225322545054
505.21683792844254
505.2122012637795
505.20863671363645
505.20615933678874
505.2047890360657
505.2045351681644
505.20540950880036
505.2074218741934
505.21059360466006
505.2149384417853
505.2204344709933
505.2270655972852
505.2348058535226
505.2436431550726
505.2535771607114
505.26460908982796
505.27673622753565
505.28993734925024
505.3041685613508
505.3193979998516
505.3355990747524
505.3527441239143
505.3707936032004
505.3897135807657
505.40946474632597
505.43001320304415
505.45132395286583
505.4733677532315
505.49611499142935
505.51952279261815
505.54356801848957
505.568236996988
505.5935044554166
505.61932070636186
505.6456596963317
505.6724927596575
505.69979309238954
505.72753588842835
505.7557118396737
505.7843011426894
505.8132800129681
505.84265597560136
505.8724203008727
505.9025569172311
505.93306851824497
505.96395472035897
505.9952142216174
506.0268576837099
506.0589012015173
506.0913621885854
506.12425733202684
506.15760918202506
506.1914439232023
506.2257979802607
506.2606916400081
506.2961481053949
506.33221043897794
506.3689352612746
506.40636912780093
506.44455482726244
506.48352856335225
506.52332144279677
506.5639783957265
506.6055622057907
506.6481272364063
506.6917213325037
506.7363963067387
506.7822032418717
506.82918558983414
506.87739622492995
506.9268795276855
506.97768632524986
507.0298649539998
507.0834524659897
507.1384741398881
507.1949668126095
507.25295870298277
507.31246897903765
507.37351384410397
507.4361061152246
507.50025043472357
507.5659428191748
507.63317464696695
507.70194098841733
507.7722184236257
507.84397579809036
507.91718718755766
507.9918034171498
508.0677760207699
508.1450350886382
508.22350861983034
508.3031224183649
508.3837936627925
508.46542218022483
508.54789459194706
508.6310972518795
508.71491202251644
508.7991855423806
508.88377486323355
508.96853002414724
509.0532943667261
509.13791592964736
509.2222240761201
509.30603898250416
509.3891832105085
509.471467169039
509.5527009265032
509.6326818544077
509.7112018603287
509.78803686530887
509.8629512413298
509.93573744066697
510.00619494126744
510.07412945729664
510.1393304477395
510.20156332511823
510.2606068929788
510.316240381057
510.3682526672357
510.41644757503593
510.4606185909044
510.500566888379
510.5361127276247
510.5670788909594
510.5932983119379
510.61461277873235
510.6308780737153
510.6419670406931
510.64775764611625
510.6481472552003
510.64304946480087
510.6323821454078
510.6160769732955
510.59408449431305
510.5663795434957
510.5329446474892
510.49378580920563
510.4489264208769
510.39840779534165
510.34228731371036
510.280638463962
510.21356171859895
510.1411646269792
510.0635877430877
509.9809979680269
509.893573123002
509.80152578354495
509.7050836283872
509.60447185126895
509.499940897316
509.3917546401851
509.2802070202715
509.1656059301087
509.04827029156337
508.9285377885469
508.8067682882813
508.6833277366337
508.55858266220713
508.4329140914521
508.30671398091584
508.18037491000706
508.0543080422821
507.92893958167207
507.80469219233777
507.681990274149
507.56125861893815
507.44292111842185
507.32739714607146
507.2151044723937
507.10645574425257
507.00185042822727
506.9016906206685
506.80635101722766
506.71620125633143
506.6316086922662
506.55292404411085
506.4804690765139
506.41454805144343
506.35544824978837
506.3034406080168
506.2587717732862
506.22166284908434
506.19231255104705
506.1708983146991
506.1575532349082
506.15238447982904
506.1554764938227
506.166878890293
506.186625279774
506.2147109341304
506.2510969163754
506.2957119894497
506.34845230789824
506.409181280396
506.477736168008
506.5539262035122
506.63752879605823
506.72827939767666
506.82588989284505
506.93004285424985
507.04039249297676
507.1565680258808
507.2781529060566
507.4047164396299
507.53580405210323
507.67092980830904
507.8095951470109
507.95127718523594
508.095439045026
508.2415250510036
508.3889692352581
508.53720844287244
508.68565184856226
508.83369170772283
508.980715949029
509.12611230258665
509.2692904582735
509.4096497997614
509.54658653930244
509.6795050416481
509.80782254007045
509.93097414838206
510.0484026490313
510.1595478712671
510.26388388513124
510.3609059426133
510.4501328431652
510.5310849855582
510.60330547380437
510.6663721003553
510.71988741029685
510.7634817376543
510.7968271088784
510.81962271427335
510.8316022057315
510.83254098022456
510.8222460361187
510.8005564904196
510.7673438100943
510.72253163984254
510.66609171091176
510.59802706648827
510.5183726911531
510.42720673833406
510.3246353168207
510.2108009661301
510.08588210822575
509.9500702543024
509.8035969724714
509.64675433145857
509.4798501510836
509.3032420230703
509.1173033750596
508.9224332229062
508.71907014222575
508.5076602506374
508.28867080963073
508.0625991378826
507.8299664538962
507.5913031741879
507.34715810362184
507.09810965491505
506.8447312753727
506.58759393424145
506.32728350402317
506.0643873975786
505.79949661278215
505.533199074186
505.266083820691
504.99873426521725
504.7317369339361
504.465672920535
504.2010962382641
503.93856466105143
503.6786203738983
503.42179477422707
503.16859824250565
502.91953203030874
502.6750740376137
502.43568000464325
502.2017823703239
501.97379356077556
501.75210734270433
501.5370960045517
501.32911206773315
501.1284750381057
500.9354889486801
500.75042918509087
500.5735381250042
500.4050292928138
500.2450957997487
500.09391699630265
499.9516414037515
499.8183981348532
499.69429309253525
499.57939869445704
499.47376083857625
499.3773990857725
499.2903289407913
499.2125473490773
499.1440249126738
499.08471337183295
499.034537715926
498.99341677532834
498.961251026781
498.93792797708295
498.92332115101186
498.91728680532265
498.91967586621445
498.93032408830913
498.9490707508662
498.97574039817846
499.0101353580523
499.0520607157173
499.1013208747304
499.15771614283204
499.22105042525453
499.2910973125025
499.36762903350626
499.4504319913466
499.5392853049058
499.633972115224
499.7342777042687
499.83998342033584
499.9508847523505
500.06677651969886
500.1874511229984
500.3127032917546
500.44234376750615
500.576186970762
500.7140473166855
500.8557441360931
501.00109999211554
501.1499365750241
501.30208130630496
501.45737391455253
501.6156599087969
501.7767952179821
501.94063778591703
502.1070632233145
502.27593003453103
502.4470901446353
502.62040778143154
502.795750062509
502.97300154769437
503.1520615832606
503.33281812185754
503.51516291309935
503.69900664793096
503.8842681525084
504.0708415637021
504.25864203258766
504.4475637248819
504.6375097356982
504.828397946978
505.02012984525163
505.2126272169258
505.4058122092429
505.59958963268286
505.7938682511307
505.9885733699978
506.18363804016553
506.37895930503095
506.57444156860925
506.77000490931283
506.9655586864774
507.1610035923299
507.35624663641977
507.55120096703115
507.7457706793012
507.93985969662094
508.1333673839639
508.32618407179024
508.5182085703515
508.7093394922139
508.8994644508712
509.0884600161274
509.2762111781747
509.46258935619414
509.6474719425403
509.83073789467284
510.0122591163048
510.1919093085285
510.3695575215849
510.54506609758164
510.7182840034454
510.8890729966915
511.0572836317647
511.2227683234365
511.38538363017244
511.5449818071781
511.70140664776545
511.8545000262351
512.0041106359791
512.1500810531977
512.2922523084327
512.4304686106551
512.5645756116269
512.6944187268957
512.8198369898819
512.9406654173818
513.0567417080182
513.1679041939891
513.2740008853418
513.3748811637229
513.4703896679309
513.5603753997643
513.6446920818449
513.7231964299386
513.7957441414159
513.8621924007301
513.922389010319
513.9761919017596
514.0234757130679
514.064127667536
514.0980283763971
514.1250522230699
514.1450782275394
514.1580142706609
514.1637716262566
514.1622503203862
514.1533744050455
514.1370703868706
514.1132632967723
514.08189900058
514.0429184124209
513.9962664555344
513.941898576228
513.8797851067883
513.8099026345271
513.7322342042529
513.6467738286967
513.5535244173197
513.452502350226
513.3437355696809
513.227266129125
513.1031352224281
512.9713898284657
512.8320891405541
512.685306651164
512.531110337075
512.3695974700214
512.2008771933636
512.025075204689
511.8423342898652
511.6527819709896
511.4565455788023
511.2537824260638
511.0446512367126
510.82932497738335
510.60797278940856
510.38079023011676
510.14797489018014
509.9097459401281
509.6663288922837
509.4179445155568
509.1648370090241
508.90724750299444
508.6454180673956
508.3796154379124
508.1101089227769
507.83716564162114
507.5610365922824
507.2819973417987
507.0003407090726
506.7163651462618
506.430374479539
506.1426780705705
505.8535776806106
505.56337137561275
505.27236383390584
504.98086575318763
504.6891823580453
504.3976194528685
504.10648494549474
503.8160770418589
503.5267053055853
503.23867700623265
502.95229007977093
502.6678566712648
502.38567223245536
502.1060260980149
501.8292074994437
501.5554940907536
501.28515351852707
501.0184514733965
500.75565110759874
500.49700382094943
500.24276194793794
499.99316088744735
499.74843616515335
499.5088099916543
499.2744999278292
499.04571216750514
498.8226303294924
498.60543248008264
498.3942818372578
498.1893372494082
497.990739639292
497.7986269223965
497.6131271760685
497.434356462386
497.2624189181969
497.09740682593485
496.9393984785031
496.78845597668436
496.6446339978378
496.50797328126083
496.378502846788
496.2562378676616
496.14118189928666
496.03333575057417
495.932702305856
495.8392742697919
495.7530241814501
495.67389615516015
495.6018235158913
495.53674418315353
495.4785855073228
495.4272687764693
495.38271170774425
495.34483364335296
495.3135212862257
495.2886463233195
495.27009803653385
495.2577483479427
495.25148066560473
495.25116870706347
495.2566794906857
495.2678672791013
495.28458263960323
495.30667931328793
495.3340036736915
495.3663973044386
495.4037037934021
495.4457580102838
495.49240808620846
495.54350490161045
495.59889209769335
495.6584089950987
495.72188001886417
495.7891498533356
495.86005508028666
495.9344330419142
496.01211740578054
496.0929466819482
496.17676654417977
496.26342158097333
496.3527554748482
496.44463303642493
496.5389034903397
496.63542281557625
496.7340452416632
496.83462552318906
496.9370211034843
497.04108984221364
497.1466965849106
497.2537043097792
497.3619783444604
497.4713973383799
497.5818314610307
497.6931576417994
497.8052551160745
497.91802324680464
498.0313691158228
498.1451797103074
498.2593240604387
498.3736765772404
498.4881249867702
498.60256548979567
498.7168982720942
498.831027492386
498.94485247106417
499.05827638356556
499.171215054133
499.28357740844325
499.3952809368586
499.5062364326122
499.61636112727126
499.7255766132351
499.8337869288222
499.9409132825225
500.0468829806542
500.15161417750096
500.25502896818807
500.3570664306939
500.45766533288725
500.5567579749128
500.6542813849807
500.75017295234517
500.8443770503723
500.93683191948355
501.0274827055909
501.1162836567762
501.203182912624
501.2881402575237
501.37111200450136
501.45206208500946
501.5309577741751
501.60777864298785
501.6824928418051
501.7550702816871
501.8254890543205
501.89372882210716
501.95977295572135
502.02360842891176
502.0852301320911
502.14463433737996
502.20181653021166
502.256775645593
502.30952480694805
502.36008042147955
502.40846011249243
502.45467163634504
502.4987255997418
502.5406328399064
502.5804238102543
502.6181465121948
502.6538363607828
502.6875361563362
502.71927417441583
502.7490791390484
502.77698836822117
502.80305411212623
502.82734172279453
502.84989047232443
502.8707548703571
502.889978000582
502.9076151711382
502.9237293124272
502.938373587786
502.9516110953296
502.96349936404164
502.974107768864
502.9835089424093
502.9917659169772
502.9989497593596
503.0051021258721
503.01026282484173
503.01449067726753
503.017849822293
503.02042297468216
503.022283413617
503.0234931846956
503.02411424390846
503.0242061931737
503.0238172711085
503.0229949014557
503.0218028682862
503.02030150735385
503.0185300459844
503.0165368864826
503.0143728006638
503.0120820902367
503.0097156301867
503.0073177097929
503.00493047846953
503.0025983445884
503.0003570617972
502.99824688501246
502.99629723643545
502.99453981599686
502.9929997348112
502.9916974899164
502.99065297640163
502.989882830704
502.98940910198553
502.9892597106511
502.98946030149307
502.9900215237489
502.9909500343986
502.9922549326087
502.99394330977805
502.99602470474326
502.9985113860651
503.00140551181346
503.00471250197893
503.0084259289053
503.0125428522244
503.0170528125263
503.0219464279525
503.0272219616994
503.0328744953707
503.0388849628264
503.04525076294584
503.05197063286283
503.0590164011945
503.06636108677503
503.0739937734505
503.0819108637195
503.09009673708846
503.0985371738778
503.107215124948
503.1161064807397
503.12518424310576
503.13442920749117
503.14382780828356
503.15336145248926
503.16301558736956
503.1727667343803
503.18258463493714
503.19245184455735
503.20234856325357
503.212248400644
503.22213149045183
503.2319779583095
503.24176367217217
503.2514667793477
503.26106767591955
503.27055359610216
503.27990803225464
503.2891108460854
503.2981447469474
503.30698655518427
503.31561815678236
503.3240243309908
503.33219952840216
503.34011969435335
503.3477616839539
503.3551182536187
503.36216969108165
503.3689058163574
503.37532615422026
503.3814226545713
503.3871908081935
503.3926165998741
503.397696334683
503.40242131476697
503.406790865457
503.4107925971207
503.414415140252
503.41766977985725
503.42056002255305
503.42309277864774
503.42526751222204
503.42707831544556
503.42853343072653
503.42964204698245
503.43042341628933
503.43090095165576
503.4310894652838
503.43099956536855
503.4306417557916
503.43001725646786
503.42914611146784
503.4280517303251
503.42675218421067
503.425273374026
503.42365353920485
503.4219171788353
503.4200837246753
503.4181870979787
503.41626040248724
503.41433811372843
503.4124627364284
503.41065868648025
503.40895176541795
503.4073840052844
503.4059936988061
503.4048307247457
503.40393481783906
503.4033466484282
503.4031143703556
503.4032870865174
503.40391945042296
503.4050543387372
503.40672705690264
503.4089780005183
503.4118522389042
503.4153970573981
503.41966849572384
503.42472062828995
503.43060130926335
503.43735642431386
503.44503180903405
503.4536685552044
503.4633092550793
503.47399330398457
503.4857676155383
503.4986733679147
503.51275686623995
503.5280651390027
503.5446416339515
503.56251967787995
503.581744333293
503.60234612696314
503.62435173061243
503.64780578569975
503.6727493746143
503.6992136680633
503.72721099866783
503.75676512833365
503.78789781526103
503.82063085261626
503.85499711427286
503.8910124251963
503.92869095197324
503.96803613935236
504.00905790990896
504.0517636644648
504.09616475069555
504.14226572988366
504.1900622503625
504.2395496167488
504.290731462738
504.3436023208322
504.39815426091127
504.45438358060306
504.51227566935705
504.571813794632
504.632976803096
504.69575656436496
504.76012971905743
504.8260599621301
504.89352186177734
504.96248321011495
505.03290492731264
505.1047450911406
505.1779762888659
505.25255731777776
505.32843526469213
505.40556498423314
505.483902514287
505.5633875446485
505.6439607352116
505.72555029603876
505.8080957536569
505.89154789015686
505.9758363520202
506.0608874264124
506.1466350542172
506.23300141377257
506.31989471465
506.40721763768505
506.4948734919309
506.5827636734074
506.6707985520473
506.7588647524
506.84684241318075
506.93461782881513
507.022083217168
507.10913032502003
507.19563787225513
507.28147193366266
507.36650796546866
507.45060914143266
507.53363519130164
507.6154469858962
507.69590249484463
507.7748503843582
507.85213895805236
507.92762308794374
508.00114715936667
508.0725520160344
508.1416708001439
508.20833551644716
508.27240132852086
508.33372995906785
508.39216009299327
508.4475298776306
508.4996705675738
508.5484241675695
508.59364822163406
508.6351880036272
508.6728923364536
508.7066116769875
508.73620944022326
508.76155612678616
508.7825256947424
508.79899397449975
508.8108413108382
508.8179550504018
508.8202342543632
508.81759021677
508.8099427359997
508.7972076115941
508.7793166844293
508.7562180548864
508.7278765631236
508.69426572638133
508.6553728616065
508.6111976026444
508.5617458998575
508.50704799348216
508.4471525736273
508.38211234398125
508.3120022148197
508.2369090165412
508.1569341569459
508.07219609513066
507.9828240795345
507.88896940653416
507.79079899570644
507.6884865476189
507.5822231626872
507.47220788689526
507.3586732740203
507.24186744316927
507.12205160223505
506.99950622320233
506.87452393885394
506.7474068103373
506.6184767636481
506.4880686127038
506.3565317763554
506.2242120992764
506.0914661864753
505.9586623538215
505.82617490530316
505.69439376241144
505.5637189128674
505.4345549932972
505.3072969067731
505.18235247272105
505.0601391594786
504.9410611196655
504.82552535872844
504.7139425917427
504.60672596997665
504.5042723675866
504.40697213124287
504.31521657062746
504.2293836057023
504.1498299210272
504.076913602361
504.01097531101505
503.952350304641
503.9013454289902
503.85822872698
503.8232779139946
503.79673959119276
503.77882784215024
503.7697422303308
503.7696728306332
503.77878836926504
503.79722035631323
503.82507330427273
503.86241285648236
503.90930000271214
503.96576895385
504.03181183563254
504.1073651880753
504.1923263702045
504.286585099703
504.39000970602467
504.5024295659043
504.62365051915975
504.75343767968616
504.89152680581174
505.0376159481186
505.19137675805973
505.3524572129893
505.520467103256
505.69499207675017
505.87559471918314
506.06181375780415
506.25315905196504
506.44910629830093
506.64910894844957
506.8526060991285
507.0590198358113
507.26775923217315
507.47821573560765
507.6897518719014
507.90173363315694
508.11351499830783
508.3244466820871
508.5338761876211
508.7411481051968
508.9456045514968
509.1465921589962
509.34346034492063
509.5355616936699
509.7222609095325
509.9029306016414
510.07695144518505
510.24373863803277
510.4027291056987
510.5533665409938
510.69511017667213
510.8274474897849
510.9498914816649
511.0619822110738
511.1632925666788
511.25341409865996
511.33196650295804
511.39862005036167
511.45307435734395
511.49506349761987
511.52435646418746
511.540757347074
511.5441142660781
511.5343196458157
511.51130172798105
511.4750468002492
511.4255780027879
511.3629517799748
511.2872538863589
511.19860574627444
511.0971837595055
510.98318179533203
510.85682364448814
510.7183683547798
510.568113131289
510.4063940057397
510.23356906736757
510.0500432401539
509.8562516763876
509.6526476269478
509.4397097222973
509.2179358114457
508.9878496768375
508.7499968666779
508.50493204161
508.25322142006826
507.99545143542434
507.73222228300006
507.464148247165
507.19184488036814
506.9159159735959
506.6369730473535
506.3556330204992
506.0725005770543
505.7881810328594
505.503284670198
505.21840504010385
504.93413011067156
504.65103599218486
504.36968964616176
504.0906520306197
503.8144484211754
503.5416064056929
503.27264847979745
503.0080633151312
502.7482985214413
502.49378340848574
502.2449365437885
502.0021540254066
501.76581993877943
501.53628191106907
501.31385282290563
501.0988343490215
500.8915213514951
500.6921873243688
500.50106755042015
500.31836587663315
500.1442701364782
499.97893697983847
499.8225052771936
499.67509652141587
499.53681544750117
499.40774425248316
499.28793672660703
499.1774255158931
499.0762314703874
498.9843532913421
498.901783563931
498.8284988072349
498.7644563050593
498.7095928909841
498.6638389097289
498.6271147783713
498.59932321995683
498.58035889463565
498.57011593004046
498.568473654767
498.5753085164341
498.590479721544
498.6138320535607
498.64520711218273
498.68444357385783
498.73138402016014
498.7858753999658
498.8477633193521
498.9168776221571
498.9930417343518
499.07609055843125
499.16584674513706
499.26212291840795
499.36474125028553
499.4735379641883
499.5883440655761
499.70898810009015
499.83530095521985
499.967114009882
500.1042595885931
500.2465824290264
500.39391165002854
500.54607845603084
500.70292722251514
500.86429391159925
501.03001721325376
501.19995163849876
501.37394581997717
501.5518493718182
501.7334886930682
501.91869689618517
502.1073240158563
502.29921928959396
502.4942289205873
502.6921846116778
502.89293791393794
503.0963382009217
503.3022392489968
503.51049474424667
503.7209515655949
503.9334606824818
504.14786165984987
504.3640040685455
504.5817473694377
504.800950357499
505.02146508574526
505.24312826264236
505.4657696164531
505.68923334312103
505.9133692239058
506.13801946821644
506.3630230595075
506.58820901022307
506.8134134307457
507.03847938616104
507.2632527170195
507.4875779517393
507.7112987873788
507.93425414222145
508.15627391012396
508.37719202011885
508.59685507135384
508.81510063486706
509.0317641457113
509.24667903288986
509.459692216251
509.6706336605064
509.879322729432
510.085598459133
510.28930443201966
510.4902848407514
510.68838035753987
510.8834283347746
511.0752561989388
511.26369424174953
511.4485907502715
511.62978144011936
511.8071068729518
511.98041674359365
512.1495504929039
512.3143572498105
512.4746805672212
512.6303628983514
512.7812609624052
512.9272262019855
513.0681094042632
513.2037564199902
513.334025662681
513.4587884024156
513.5779052409248
513.6912396347481
513.7986448207756
513.8999810790257
513.9951177815425
514.0839291263771
514.1662942975133
514.2420888730089
514.3111959735991
514.3734998586627
514.4288837981816
514.4772431586689
514.5184745184786
514.5524847683275
514.5791829535975
514.5984873821149
514.6103217456258
514.6146023955027
514.6112426808971
514.6001635553512
514.581300003378
514.5546012953969
514.5200203480703
514.4775184947687
514.4270726387474
514.3686650010762
514.3022595927338
514.2278306512119
514.1453711868965
514.0548820330356
513.956367601593
513.8498513707514
513.7353541666225
513.612911864124
513.4825734829507
513.3443839044874
513.1984168453087
513.0447534152802
512.8834561361331
512.7146101734571
512.5383054747895
512.3546586628341
512.1637913447227
511.96582351313964
511.760895213355
511.54916222253473
511.3307832950458
511.10592463531134
510.87476862004405
510.63750300043404
510.39432300695074
510.1454355670566
509.8910636454273
509.6314376292706
509.3667821156469
509.09732619647974
508.8233091424402
508.5449840663853
508.26261096284463
507.97646950766244
507.6868478103492
507.3940290975106
507.09830014826525
506.7999552287608
506.4992979138697
506.1966406005589
505.89229972588214
505.5865779881299
505.27977678439356
504.9722061470873
504.66419257711937
504.35607641913913
504.04819445431093
503.74085129731407
503.4343623458829
503.12904193213944
502.8252069376896
502.523160618874
502.2232135782036
501.92568529583633
501.6308730453595
501.3390710379733
501.05056968534507
500.76564830949553
500.484589843261
500.2076739142133
499.9351745707032
499.6673447544427
499.40443570783674
499.1466813071214
498.89429520948994
498.6475030405185
498.4065114142094
498.1715164210464
497.9427143921905
497.72026889644997
497.50433874220823
497.2950840909707
497.09264466445984
496.8971375854264
496.7086633672182
496.5273184572176
496.353192749592
496.1863674306596
496.0269086322872
495.87487196051865
495.7303027328445
495.59321879675724
495.463630378802
495.34154231624296
495.2269542839034
495.1198614007359
495.0202265246015
494.92799812933896
494.84311687861066
494.7655267046416
494.6951555307287
494.63192227267353
494.57573516155173
494.5265010300782
494.48411269365266
494.4484559927783
494.41941451530863
494.3968524541322
494.3806345708249
494.3706109606531
494.3666301628161
494.3685526640739
494.3762386369736
494.38953129550725
494.40826625116523
494.4322850894189
494.4614161194201
494.4954922576124
494.53434269367494
494.57779324453986
494.6256776819675
494.6778161746133
494.73403070684884
494.79416077565634
494.8580376967473
494.9255004617785
494.9963875591873
495.0705309657471
495.1477653398178
495.22791935097007
495.31082857675455
495.39633769165965
495.4842918973161
495.5745413624365
495.66694797990317
495.7613638607795
495.8576424813922
495.9556362898596
496.05520737344773
496.15623179311365
496.2585866966349
496.36214621818596
496.4667902933968
496.57241356290183
496.6788993606735
496.78612830511935
496.89398454699284
497.0023642485653
497.11118415542984
497.2203600761099
497.3297853562795
497.4393567907627
497.5489939213544
497.65863043591315
497.76820372713456
497.87763117932093
497.98682296113043
498.09569000025317
498.20416757288484
498.31218886992326
498.4196979948152
498.52663904250426
498.6329650676956
498.7386252252994
498.8435559926416
498.9477115794282
499.05105301862056
499.1535330332303
499.2551114390591
499.35574409966574
499.4553914280729
499.55401595091774
499.65158439724064
499.74806769760175
499.8434366559913
499.93767084887503
500.03074549669583
500.1226336001778
500.21332120327736
500.30278322299506
500.39100974769207
500.47798643712633
500.5636855122552
500.6481003991804
500.73123049130794
500.81307928096965
500.8936481108808
500.9729385252117
501.0509523311359
501.12769165831327
501.20315444193875
501.27734059437233
501.3502714978131
501.421970603776
501.492450639507
501.56171567922274
501.62976708990914
501.69662269478897
501.7623079295462
501.82684932436763
501.8902656874194
501.9525766798685
502.01380476470183
502.073981667545
502.13312872036585
502.1912786664824
502.2484669247433
502.3047185189607
502.3600678202773
502.4145476558175
502.46818935656916
502.5210183334674
502.5730646746141
502.6243474394307
502.6748983846611
502.72474650669955
502.77391571230726
502.82243551908545
502.8703343535605
502.91764170182614
502.9643816106026
503.01058135877474
503.0562648688844
503.10145935288085
503.14617998888673
503.1904385267952
503.2342450926153
503.2776055263126
503.3205364279914
503.36305867828366
503.4051890758368
503.44692969831834
503.4882963117533
503.52929224574757
503.56991291390733
503.61014547601434
503.6499882043122
503.6894461414846
503.7285204534877
503.7672109707292
503.8054966644449
503.8433595472947
503.8807866075549
503.9177631496849
503.9542704677203
503.9902946114903
504.0258244149032
504.06086071508156
504.09539081766775
504.1293777874213
504.16279509432024
504.19562665284377
504.22785413400925
504.25945492299
504.2904063444981
504.3206767589711
504.3502409197018
504.3790756838974
504.40717327267504
504.4345175802001
504.46109990973116
504.4869039754467
504.51191272960574
504.53610628448
504.5594684816288
504.5819914178663
504.60366027587185
504.6244641555903
504.64439610711685
504.6634554916592
504.68164158297924
504.6989515375385
504.71538253453866
504.7309382339392
504.7456155830361
504.75942656859706
504.77238286245864
504.7844958690993
504.795787798476
504.80626772021
504.81595121635445
504.82486023357984
504.83302302444315
504.8404700510771
504.8472297817332
504.8533330334327
504.85880855663584
504.8636916916947
504.86801551664155
504.87181949332665
504.8751494566467
504.87805779907876
504.88059062711665
504.8827877000044
504.88468639799265
504.8863366794747
504.88779659581667
504.8891258683181
504.8903838429731
504.89162734862686
504.8929084101979
504.89428713249674
504.89582718333816
504.8975891903974
504.8996283668366
504.90201396832543
504.90480723100023
504.9080720273586
504.9118768660773
504.91629052218263
504.9213798005904
504.92721828483997
504.9338799673008
504.9414284039351
504.94993635108574
504.9594681589976
504.97009493473513
504.9818879257661
504.9949140919771
505.00923590460513
505.02491318287844
505.04202024267425
505.0606150548457
505.08076528215076
505.1025283128605
505.12596857972676
505.15114876502764
505.1781275625127
505.2069617102873
505.23770135542173
505.27038740112266
505.30507067423866
505.3418052248866
505.3806197872959
505.4215501959525
505.46463256033525
505.50989658155515
505.5573697049707
505.6070636170989
505.658986893653
505.7131422279768
505.76954364394874
505.82819690941346
505.8891040176327
505.95225235836915
506.01762344071045
506.0851949166047
506.15492730448653
506.22677007290196
506.30066982884557
506.37657230665826
506.45440901064177
506.5341144085653
506.6156150004168
506.69882288436173
506.78363337634744
506.8699487629499
506.95767184746177
507.04669335726464
507.1368835108781
507.2281139529759
507.3202359672487
507.41309358300913
507.5065234911813
507.60036155882784
507.6944363494571
507.7885737154246
507.88259282004657
507.97630000371925
508.0695066489958
508.16201216884707
508.2536089538357
508.34408948820834
508.4332403697066
508.52083849871906
508.6066800660664
508.6905419426564
508.7721977443452
508.85142273455745
508.9279943237365
509.0016950242031
509.0723156707139
509.13963454123314
509.2034268268234
509.26347386717714
509.31956792051614
509.3715104731902
509.419102143345
509.46214779408876
509.5004680026247
509.5338909743616
509.5622489139172
509.5853720860873
509.60310676896677
509.61531343757895
509.62187824018895
509.6226875899255
509.6176332977684
509.6066217427327
509.58957419686806
509.56642943945843
509.5371487578666
509.5017035442213
509.4600825333949
509.4122903392665
509.35835921993646
509.2983302185701
509.23226270774063
509.16022405725874
509.0823030372213
508.99860996195764
508.9092703369645
508.81442056236466
508.7142142964307
508.6088286878529
508.49845739690727
508.3833145195819
508.2636384721042
508.1396828540407
508.01171840349616
507.8800327170076
507.7449386737723
507.60674551855146
507.4657932454835
507.32242348213106
507.1769962181363
507.0298823145992
506.88146908597446
506.73215717308534
506.5823530823951
506.43247474591595
506.28295264847674
506.13421115740107
505.986682364816
505.8408090812637
505.6970369814928
505.5558197714449
505.41761360878434
505.2828671957643
505.1520358431265
505.0255715746246
504.9039176216887
504.7875048788559
504.6767612653648
504.57209476450987
504.4739180199799
504.38262275210695
504.29858475455404
504.22217103492113
504.1537230002333
504.0935701436256
504.04202411548994
503.99937953987495
503.9658951296602
503.9418075169093
503.92734075882197
503.92269218368534
503.9280139292293
503.9434290157555
503.96902770714064
504.00487718134144
504.05101154801287
504.10743538280127
504.1741232296465
504.2510149288447
504.3380131927532
504.4349790109115
504.541735730958
504.6580840566598
504.78378037732836
504.91854138350857
505.06205289450594
505.21397031847556
505.37391497318333
505.5414749718823
505.71621515196426
505.89764319087953
506.0852455816148
506.2784865573279
506.47680288048235
506.6795987693187
506.8862584106637
507.0961344830727
507.30857185727297
507.5229032686974
507.7384541524544
507.95451263106264
508.170345057963
508.3852309543271
508.5984436851377
508.8092423041906
509.016880676334
509.22061869927614
509.4197360095872
509.61351768033416
509.8012552627043
509.98223651011364
510.1557764306522
510.3212157125663
510.4779083893976
510.6252333415633
510.7625880509496
510.88939517478684
511.00510879516287
511.1092095852704
511.20121945396505
511.28069189135175
511.34721752846576
511.40042525162613
511.4399941695719
511.46564146261653
511.47712314703443
511.47424560413066
511.45686847082794
511.42490117311314
511.37830165294713
511.3170684386036
511.2412477920389
511.1509184957159
511.04620465480156
510.9272772841972
510.7943600988501
510.64770450689315
510.48761690367655
510.3144397698765
510.1285633578105
509.9304177538412
509.72046924765857
509.4992121720166
509.26717134484204
509.0249109022369
508.77302129340853
508.5121149347743
508.2428371033402
507.9658484274431
507.68183140209203
507.3914814644864
507.0955000002873
506.79459367064163
506.4894867362537
506.18090491950954
505.86957248343543
505.5562136856503
505.24155861763234
504.9263250955374
504.6112357836545
504.2969851308699
503.98426099910176
503.6737379017209
503.3660704011359
503.0619064622548
502.76186607103995
502.466548425053
502.1765194687679
501.89232582426234
501.61449360090904
501.34350542449386
501.0798080991904
500.8238422026564
500.5760086345212
500.3366946899431
500.10624136346513
499.8849434305556
499.67307763315824
499.4708806972477
499.27856697991604
499.0963178162744
498.92429531964245
498.76261713212375
498.6113526881428
498.47056942662346
498.3403006984247
498.2205489311053
498.1112996267337
498.0125049093202
497.92410001054105
497.845991272889
497.7780750313489
497.72023266739365
497.67231913219894
497.6341688489978
497.6056036705103
497.58642985361683
497.57644820674085
497.57544239333873
497.5831889418072
497.59944300556185
497.623972361578
497.65655023422033
497.6969284213344
497.744858194545
497.80009149134463
497.86237999788784
497.9314740588323
498.0071190732979
498.08907577567203
498.17710134515465
498.2709613055525
498.3704193087508
498.4752397098735
498.5852075580634
498.7001071776936
498.81973805671583
498.9439088739647
499.0724293631114
499.20512398757165
499.3418235756082
499.48235685151974
499.6265636501284
499.77430142760636
499.9254277683546
500.0798112541957
500.2373335082388
500.39788032977106
500.56133927838033
500.72760579968696
500.896576066105
501.06815950233045
501.24226728958183
501.4188162349797
501.5977282696938
501.7789342305576
501.9623622357376
502.14795466237354
502.33565027855315
502.52538812003706
502.71711123475137
502.91075731621
503.1062668061008
503.30358887407425
503.5026701586304
503.70345003968725
503.9058644830706
504.1098520424053
504.3153379509427
504.5222531378683
504.73052924253363
504.9400873265267
505.15085504151176
505.36276431861177
505.575725255001
505.7896434298249
506.0044283396661
506.2199911621119
506.43622075968057
506.6530075914622
506.87023239250567
507.0877835147279
507.30554400325144
507.52338530583484
507.7411784079644
507.9587807747258
508.1760450950045
508.3928170086155
508.6089394177559
508.82425467933086
509.038593587407
509.2517929124749
509.46369808596137
509.67412219096263
509.8828854749504
510.0897911301274
510.29464708017366
510.4972728577438
510.6974672079288
510.8950390009668
511.08978564293096
511.28149551001667
511.4699544659611
511.6549634706235
511.8363284429936
512.0138347142042
512.187273599249
512.3564362556247
512.5211030231364
512.681069813789
512.836124380749
512.9860554557107
513.1306595981905
513.2697283517906
513.4030617516077
513.5304557224389
513.6517068784558
513.7666280126778
513.8750353392111
513.9767448288165
514.071566202358
514.1593316791775
514.2398789246135
514.3130363287099
514.3786431366553
514.4365453089935
514.4865979904799
514.5286681217752
514.5626283918367
514.5883643111074
514.6057482611997
514.6146636104039
514.6150177299439
514.6067312271789
514.5897341733577
514.5639490385117
514.5293192080405
514.4858024740923
514.4333537643256
514.3719494174695
514.3015763784283
514.2222257933
514.133912932504
514.0366622809349
513.9305056321531
513.8154932358917
513.6916831911632
513.5591372314267
513.4179293663908
513.2681500741361
513.1098995771086
512.9432920790562
512.7684534082259
512.585523054501
512.3946563736476
512.1960247222205
511.98980681158116
511.7761865489073
511.5553615937344
511.32754527568045
511.0929599343254
510.8518279484251
510.60439098615944
510.35089860106234
510.09160769305686
509.8267841308638
509.55670444607995
509.2816597375303
509.00194214511856
508.71785984011814
508.4297213610642
508.13783285632843
507.8425258857307
507.54411752431474
507.2429248942157
506.9392927036208
506.63356437689794
506.32608608442825
506.01719524197813
505.7072484775174
505.3965950395009
505.0855807319083
504.774547173889
504.4638330967658
504.15378225294387
503.84474262231123
503.5370571158812
503.23106542008514
502.9271035602301
502.62550566290923
502.32659693174594
502.0306974810689
501.7381129631586
501.44914242126515
501.1640929250832
500.88325295589044
500.60690067367494
500.33530768586195
500.06873613022486
499.8074469224724
499.55167754878414
499.30165469318234
499.05760251708153
498.8197247634795
498.5882216494174
498.3632850560244
498.1450964293042
497.93381600754293
497.729593761393
497.5325737566209
497.3428700632257
497.16059063888014
496.98583937170815
496.8186963811583
496.6592355012152
496.5075111702163
496.36358488812994
496.227506161853
496.0992846897197
495.9789187299128
495.8664079955874
495.7617473921096
495.6649033364366
495.57582243316676
495.49445539710564
495.42075061914176
495.3546348761439
495.2960224556067
495.244824001736
495.2009489625548
495.16428209197545
495.13471252190345
495.1121345522284
495.0964091207833
495.0873882886579
495.0849263115011
495.088880176401
495.0990928403045
495.11539144218017
495.1376117245685
495.1655787977719
495.1991140093613
495.238046236556
495.28219274132334
495.331372836901
495.3853996181118
495.4440825231492
495.50723421088435
495.5746666861304
495.64619183928187
495.7216240140823
495.8007760501639
495.88346630236856
495.9695059557855
496.0587081069663
496.15088574293526
496.2458517938342
496.3434278204964
496.4434442291786
496.5457275373336
496.65010054810506
496.7563932958818
496.8644519335866
496.9741215940597
497.08524678578044
497.1976716232168
497.3112486450945
497.4258345407258
497.5412836253593
497.6574609442507
497.7742357223034
497.89147927603454
498.00907395309537
498.1268934207239
498.24482889117536
498.3627828186083
498.48064061201364
498.59830111993233
498.7156610659247
498.8326323965818
498.94912247835424
499.06504929436716
499.1803327184148
499.29489672505366
499.40867592321706
499.5216046838542
499.6336038797695
499.7446066586811
499.8545580067753
499.9634014756216
500.0710878298428
500.1775705595665
500.2828014850169
500.38673948254734
500.4893416033814
500.5905671662141
500.69037975582665
500.7887537905389
500.88565930565244
500.9810662770965
501.0749399940138
501.1672561703349
501.2580052632499
501.3471752088122
501.4347606615718
501.52073698506746
501.6050818382559
501.6877769282018
501.7688122022443
501.84817925204874
501.925862434463
502.00185844066226
502.07616315144907
502.1487714758762
502.21968380732494
502.2888907030112
502.3563924237396
502.4221788939437
502.48624456628096
502.54859716448
502.60924046593414
502.66817210051516
502.7253942764406
502.7809138121963
502.834744652938
502.88690163589996
502.93738316943876
502.98620195051467
503.0333742664584
503.0789005030818
503.1227779341825
503.1650244076186
503.2056587230576
503.2446831983457
503.2821208842185
503.31799614381663
503.3523217999852
503.38511443146166
503.416392119317
503.4461767216609
503.4744961020542
503.50138427142235
503.5268729790275
503.55098310785513
503.5737464550642
503.59519250696195
503.6153571422029
503.6342804430065
503.6519979885882
503.6685562108609
503.6840037769015
503.6983829659032
503.71173839497015
503.7241102240159
503.73555793226075
503.7461428598853
503.75592853729347
503.7649810019176
503.7733514029497
503.7810997698833
503.78829465346286
503.79501533822395
503.80134116211286
503.80733634859644
503.8130716242515
503.8186238954663
503.8240761603548
503.8295108935969
503.8350099823587
503.8406590264363
503.84654063907954
503.85273415267045
503.85932839174393
503.86641484294984
503.8740853881462
503.882432264482
503.8915391139654
503.901500517214
503.9124043771357
503.924340504528
503.9373915987595
503.95164600599907
503.9671842706291
503.98409199052554
504.0024508431686
504.0223404531696
504.04384026144515
504.0670339324883
504.0919963139077
504.1187931846454
504.1474984167107
504.17817628877634
504.2108856884965
504.2456865135336
504.2826351949279
504.3217846104758
504.3631817769453
504.4068743112067
504.45289940514544
504.50129907262766
504.5521070720306
504.6053534524611
504.66106245900335
504.719241311524
504.779905950527
504.8430611019541
504.9087069089515
504.9768344410541
505.0474318605089
505.12048841214323
505.1959920546906
505.2739274444934
505.3542762116931
505.43700849040135
505.5220764945779
505.6094426613745
505.69907309219684
505.79091831705347
505.88492230744583
505.9810224953509
506.07915631137416
506.17925693623766
506.28125567009903
506.38506889236834
506.4906155077137
506.59780590274653
506.70654393160413
506.816742126848
506.9283043373304
507.04113242922125
507.1551310444862
507.2701928183497
507.3861984700075
507.5030230642007
507.62055336280446
507.7386616161088
507.8572098839829
507.976067384104
508.09509944554617
508.2141741120262
508.3331624273704
508.4519213157732
508.57030251828303
508.6881526798497
508.80532010279813
508.9216526550704
509.036997923337
509.1511947718819
509.2640822157868
509.3755017910004
509.4852912838347
509.5932849868904
509.6993184442554
509.8032310751832
509.904862352849
510.0040368672791
510.1005774566767
510.1943182600126
510.28509391867016
510.37275330791005
510.4571384288311
510.53808713960126
510.61543123346036
510.6890030383955
510.7586596348834
510.8242527366423
510.8856402024939
510.9426799554525
510.9952326119494
511.0431684433429
511.08635907587455
511.1246888841565
511.1580577329219
511.1863598488899
511.2094886956028
511.22735024670413
511.2398565086602
511.2469410063745
511.24853730253886
511.2445947377787
511.23507445438423
511.2199521547001
511.19921212801097
511.1728522863082
511.14088921998973
511.1033568094035
511.060291879554
511.01174588548054
510.9577855349859
510.8984956266133
510.8339731164009
510.76432748256417
510.6896874871624
510.61019493971804
510.5260049041665
510.4372878234162
510.3442336592841
510.247049442399
510.14595460311455
510.04118934321144
509.9330032244598
509.8216611638153
509.70744942624236
509.5906772831251
509.47167015570506
509.3507386288685
509.22822347935386
509.1044905111204
508.97991059963255
508.85486800971086
508.7297530320752
508.6049522635495
508.4808604969998
508.3578856778857
508.2364584103466
508.11702253975983
507.999995131745
507.8857912776099
507.77483978634143
507.6675728565462
507.56442031231336
507.465808158667
507.37216151089683
507.28389226258895
507.2014130206788
507.125118193058
507.0553977754734
506.9926270602678
506.9371628561396
506.8893439888102
506.84948952581266
506.8178991577593
506.79486688227945
506.78066001552776
506.77551585269964
506.7796423634267
506.793227554434
506.8164448761818
506.8494305162941
506.89228912777946
506.9450840946208
507.0078363100762
507.08054464983854
507.16317384292
507.2556624013467
507.35791998108704
507.4698030907537
507.5911322056865
507.72170668208827
507.86128723985183
508.0095940996921
508.16630735082185
508.3310716893881
508.5034991142709
508.68316953086895
508.86962941101393
509.06239735954364
509.2609677371981
509.4647881236987
509.6732781956265
509.8858309909521
510.1018165437032
510.3205814188297
510.5414615950499
510.76377602063644
510.9868114781972
511.2098466872032
511.43214805970916
511.6529722061493
511.8715751825721
512.0872021664752
512.2991056869398
512.5065332781135
512.7087215431628
512.9049294364837
513.0944302471567
513.2765081700992
513.4504635829531
513.6156006142091
513.7712604396978
513.9168021368346
514.0516075608836
514.1750837758887
514.2866630257727
514.3858177834899
514.4720405402744
514.544855993185
514.6038329919016
514.6485811094077
514.6787536974907
514.6940443323967
514.694194139884
514.6789771204513
514.6482135385742
514.6017809833055
514.5396125984267
514.4616890418164
514.3680326299424
514.2587012374788
514.1338058769473
513.9934995549804
513.8379748060598
513.6674740911666
513.4822846297367
513.2827176747985
513.0691201278726
512.8419035876133
512.6015056651308
512.3483947642313
512.0830857682483
511.8061142375783
511.5180387511301
511.21947369550907
510.9110635086889
510.593444044458
510.26726203673485
509.9331828639469
509.59190740777575
509.2441522221109
508.89063847539177
508.5320872929898
508.1692258875861
507.8027826087424
507.43348852236267
507.0620770234865
506.68927054943174
506.3157892085173
505.9423419005327
505.5696284280146
505.19833087297195
504.82912039839397
504.46265103548376
504.0995690019539
503.74048280721297
503.38598370229806
503.0366488002184
502.6930291559442
502.3556466765445
502.02498872338964
501.70152019496095
501.385684843429
501.0779048222187
500.77858298777267
500.4880791160863
500.20672970055335
499.9348370401093
499.67267579623444
499.42050860928146
499.17856944838263
498.94704248998795
498.72608420928646
498.515834377002
498.31640769571527
498.12790534878593
497.95040493316185
497.7839527362726
497.6285777928845
497.48428629364264
497.35105592980614
497.22886084701133
497.1176596734966
497.0173902746535
496.92797321784235
496.84932175490525
496.7813254984312
496.72386457183853
496.67681285557603
496.6400303736629
496.61336207061305
496.5966517249229
496.58972733418227
496.5924214642357
496.6045522173573
496.6259325899315
496.65638424880405
496.69572071712935
496.74375018922547
496.8002782817332
496.8651062952397
496.9380448267616
497.01889012517427
497.10744180641916
497.2035008669901
497.3068699752994
497.41736041986053
497.5347772271273
497.658928401262
497.7896276130102
497.92668810797863
498.069923107696
498.2191438594884
498.37416414233417
498.5348002949868
498.70088014814456
498.8722236729213
499.04865169070666
499.2299832643778
499.41603748209303
499.60662874271287
499.80159055048966
500.0007469178896
500.20391436918163
500.4109256946869
500.621607830504
500.83578596571004
501.0532921457195
501.27396106768566
501.49762132491907
501.724093040351
501.9531985013151
502.1847616257778
502.4186164429322
502.6546029550073
502.8925256179379
503.13218542592057
503.37341428754297
503.6160357587917
503.85987619755696
504.10475170257723
504.3504812070889
504.5968755028276
504.8437548021319
505.0909401404564
505.33824711227334
505.58548383131404
505.832459579739
506.0789913643876
506.32489977574613
506.5699984274367
506.81409423393984
507.0570006665805
507.2985269427449
507.53849123268066
507.776696622266
508.0129530706353
508.2470731122761
508.4788653206472
508.7081430361404
508.9347266284149
509.1584351158461
509.3790887740036
509.5964961830276
509.8104716114722
510.02082604758397
510.2273846829424
510.4299673496368
510.6283995878333
510.82250178431167
511.0120890505641
511.19698188758605
511.37702156849
511.5520444440232
511.72188677962953
511.8863872577374
512.0453740186094
512.1986819873568
512.3461549865902
512.4876349198631
512.6229684570766
512.75201163048
512.8746169275878
512.9906355505981
513.099926188821
513.2023529491511
513.2977789090166
513.3860749828683
513.4671157090444
513.5407794102902
513.6069506389326
513.6655205811729
513.7163699082618
513.7593929015538
513.7944907503467
513.8215782252802
513.8405732929056
513.8513932424034
513.853957078196
513.8481965651558
513.8340454934676
513.8114530589759
513.7803709873764
513.7407561212158
513.6925641552135
513.6357627151801
513.5703400094762
513.4962765780025
513.4135586024339
513.3221931957191
513.2221931984824
513.1135796635333
512.9963843256259
512.870654294081
512.7364481775122
512.5938235423133
512.4428503658535
512.2836179155543
512.1162133248516
511.94072388028917
511.75724984129175
511.5659107320779
511.3668210343946
511.1601159812394
510.9459623068523
510.7245212792818
510.4959620233301
510.26045924994264
510.01819955736374
509.7693789968728
509.51420274217037
509.2528980001964
508.9856965537572
508.71283462324686
508.4345524449642
508.1510959009105
507.8627359114566
507.56975318270855
507.2724205837782
506.9710269139634
506.6658634464699
506.3572323743232
506.04543335323257
505.73077841585376
505.4135871259199
505.0941729636378
504.77286251422686
504.4499862506621
504.1258759206832
503.8008661037115
503.47528472185996
503.1494697993475
502.82376016105155
502.4984949299408
502.1740195384853
501.8506611117376
501.5287518398137
501.208626101361
500.89061326775646
500.5750480681357
500.26224824479544
499.9525226028043
499.64617887309606
499.34352074619704
499.0448538676697
498.7504701173722
498.4606581093616
498.1756917794161
497.89583425640643
497.62134598084447
497.35247762864645
497.0894720564661
496.83255528086517
496.58194468756153
496.3378573657752
496.10048823553495
495.87002529791334
495.64664960119427
495.43051778913554
495.22177278316576
495.0205455536775
494.8269634933597
494.64113923562735
494.4631662215063
494.293131705994
494.1311078710342
493.9771561498073
493.83132288256576
493.69364813302684
493.5641461442854
493.4428184962202
493.32965172995387
493.2246325035309
493.1277567054016
493.03899985595535
492.9583005165129
492.8855823193144
492.82076688051376
492.76376948559175
492.71450161131236
492.67285169090155
492.63870518370555
492.6119360240305
492.59240465243556
492.57997371450057
492.5745087555279
492.57585948736903
492.5838450509671
492.5982979715753
492.6190602914923
492.64594943123666
492.67877637311227
492.7173504796009
492.76147333151437
492.81093893797345
492.86553593812386
492.92506088826826
492.9893032482429
493.0580521378543
493.1310989032286
493.208240016338
493.2892668834309
493.3739708074027
493.4621589769642
493.5536291231381
493.6481591337537
493.7455377801531
493.8455627118083
493.9480343102031
494.0527583303957
494.15955076600136
494.26822534700045
494.3785983808301
494.49049785920823
494.6037486361851
494.7181771884302
494.8336183063297
494.94991073625994
495.0668971365092
495.1844306314647
495.3023682705126
495.420573169651
495.53891225650204
495.65726498171097
495.77552116555705
495.89356350366205
496.0112959927465
496.1286221072417
496.2454536296123
496.36170414015226
496.47728665978207
496.5921351867961
496.7061760857286
496.8193498219736
496.9316041784762
497.04288749717745
497.15315959816405
497.2623853226422
497.3705367095028
497.4775864543729
497.58350339463686
497.68826976379233
497.7918679569665
497.8942890717854
497.9955260814873
498.09557138250307
498.1944230443835
498.2920844475209
498.38856620922337
498.4838884100453
498.57805657106996
498.6710811007478
498.7629769120241
498.85376319822814
498.94344999311846
499.03204841260987
499.11958105409775
499.2060686307317
499.2915275481167
499.3759872757092
499.45947510464555
499.54202726850826
499.6236628313432
499.70439891084806
499.78426581618334
499.86328953020444
499.9414983225093
500.0189140615546
500.09556099511207
500.17145028041904
500.24661261318033
500.32107865805085
500.3948838074793
500.468042175196
500.54055710227
500.6124400259944
500.6837233835627
500.7544369179261
500.82460362663664
500.89424640373824
500.9633814063468
501.03203996222067
501.100251340104
501.1680277052659
501.23539691002463
501.302382722607
501.36900260277804
501.43528292278296
501.50126145010137
501.56696371751167
501.6323963437527
501.6975816186692
501.76254633071426
501.8273239076145
501.8919502275643
501.9564596161298
502.0208873468009
502.08527203370767
502.14964931551754
502.21404762377193
502.2785012034968
502.34305000325674
502.4077397602291
502.47261129159085
502.5376938617841
502.6030201293532
502.6686346768391
502.73458518313777
502.8009136418747
502.8676650796399
502.9348874197928
503.00262254051484
503.07091925628066
503.1398200891229
503.20936096353597
503.27958392320403
503.3505412875095
503.4222824962988
503.49485198703053
503.5682957190967
503.64266108108285
503.71799251830527
503.7943315342379
503.87172320628343
503.9502095756642
504.02982512785564
504.1106119668518
504.19260217440103
504.2758307037799
504.3603264470721
504.4461252344643
504.53326548394864
504.62176192915996
504.71164255617174
504.8029417896265
504.8956742423029
504.9898455657052
505.0854650972767
505.1825410088362
505.28106894279244
505.38104904085174
505.4824724882096
505.5853277448258
505.68961114817716
505.79530931663726
505.9024013378668
506.010863140887
506.1206674906005
506.2317751812794
506.34413920957655
506.45770223573834
506.57241164865343
506.6882085778648
506.8050278500636
506.9228067527131
507.04146784953844
507.16091697764494
507.2810538448396
507.4017759315242
507.5229826560673
507.6445622503903
507.7663962040233
507.8883504488043
508.01029495535136
508.1321017192564
508.25362536554144
508.3747099327975
508.49519105949594
508.61490252361756
508.7336741570176
508.85133873812777
508.96771052126735
509.0825985542701
509.19580456144047
509.30714293312826
509.41641957230587
509.52342822710835
509.6279573990747
509.7297949964519
509.8287287911551
509.9245469052198
510.01703623792946
510.1059764948891
510.19115154587564
510.27236338997943
510.3493960698148
510.4220383348343
510.49008872398133
510.5533323247097
510.61156100971175
510.6645782236116
510.7122063654532
510.7542681726568
510.79058989066067
510.8210019599917
510.8453395533394
510.86345404534626
510.87521139233394
510.88047965396044
510.87914274647414
510.87109895332816
510.8562615942586
510.83454643447806
510.8058851120016
510.7702319571303
510.72756240828676
510.6778629224043
510.6211448003663
510.55742727857546
510.48675353320226
510.40918698776403
510.3248053782882
510.23370789214437
510.1360091266447
510.0318504996957
509.92139863307614
509.8048438383866
509.68238319462637
509.5542251665745
509.42060696476574
509.28177671230844
509.1380037672529
508.98958010152546
508.83682178089066
508.68006387856826
508.5196575698676
508.35597159172966
508.18939135172536
508.02032015907304
507.84918043603915
507.6764128677424
507.5024646873258
507.3277930038489
507.15288133419915
506.9782125050181
506.80425197878594
506.63149635226097
506.4604565464835
506.2916412762586
506.125559996938
505.96273016599883
505.80366261803374
505.6488863182323
505.49892528117016
505.3542820618019
505.2154536346455
505.08293397019287
504.95720793855037
504.8387408234788
504.72798955995546
504.62539423129346
504.5313871256402
504.44638221357695
504.37077135828844
504.3049183155101
504.2491524204503
504.20379722297287
504.1691515346094
504.1454838598999
504.1330288345195
504.1319813519307
504.1425058878735
504.16474372311933
504.1988031017927
504.24475406173843
504.3026166076037
504.37237723979445
504.4539903353106
504.5473688616979
504.65239053603506
504.76889099122724
504.89666145738516
505.03545971400433
505.1850015975796
505.3449592242667
505.5149503175978
505.694575478412
505.8834056854809
506.08096393244693
506.28674187695543
506.5001990437391
506.7207512948889
506.94778556310587
507.18065932535114
507.418695752571
507.6611853204626
507.9074050619705
508.15660746947253
508.40801598467885
508.6608622723572
508.91435403385475
509.1676867271115
509.4200376269395
509.6705817479098
509.91849257436326
510.1629385274523
510.40309917681833
510.63815091381514
510.86727214858666
511.0896615047322
511.3045321012233
511.51111910267696
511.7086719342577
511.8964705814921
512.0738155920039
512.240033088959
512.3944751406684
512.5365441120338
512.6656556543799
512.7812713449233
512.8828894265507
512.9700506154549
513.0423349421147
513.0993714874897
513.1408392179179
513.1664568145212
513.1759874398006
513.1692343113567
513.1460623242272
513.1064067754897
513.0502518298402
512.9776420743189
512.8886657066896
512.7834549640072
512.6621882871588
512.5250898561833
512.3724332686427
512.2045429063293
512.0217863892759
511.8245777727058
511.6133585829341
511.3886133924723
511.1508720117245
510.9006964208653
510.63867841367704
510.3654479678492
510.0816797764918
509.7880604669866
509.4852991683369
509.17413574514705
508.85532294545266
508.52962817668646
508.1978351359004
507.8607189549629
507.51906031131443
507.1736573912561
506.8253053333129
506.4747975612733
506.1229227116867
505.77047715340933
505.41824288568375
505.0669919371175
504.71747321986726
504.37041237997124
504.0265181864557
503.6864912870255
503.35101599189767
503.0207348434937
502.6962668427076
502.37820598699255
502.06711558804795
501.7635425380316
501.46799692778495
501.1809426168206
500.90281377223243
500.63400958717915
500.3749068049792
500.12584852397947
499.88714413634375
499.6590716450459
499.44187355353677
499.2357572128248
499.04089971951106
498.8574375679779
498.6854825207076
498.52512455543035
498.3764419705076
498.23945260963416
498.1141432943014
498.0004881476136
497.89842561437035
497.80787034696357
497.7287229514856
497.6608603289613
497.60414135980227
497.55841046896387
497.5234992126237
497.49921921582427
497.48536818486826
497.48173596077015
497.4880841047002
497.50417553489194
497.5297604748208
497.5645865309623
497.6083934127373
497.6609141183404
497.7218782555134
497.7910107804178
497.8680416137149
497.95270231079564
498.04471828680533
498.1438205116769
498.2497374390658
498.36220003545105
498.4809466817816
498.60572153270186
498.7362707598934
498.87234752195985
499.0136991600762
499.1600958943085
499.3113094305372
499.4671265629984
499.62733437909174
499.79172958315155
499.96011231650954
500.1322884988483
500.3080787572101
500.48730998099063
500.6698288432271
500.85548036083304
501.04410575092277
501.23554636028587
501.4296473031179
501.62626751813116
501.82528132488164
502.026556212448
502.2299698150401
502.435417942354
502.6427945175836
502.8519891689399
503.0628932282051
503.27541224741253
503.4894546507718
503.70492033976916
503.9217242078686
504.1397826122246
504.3590109358848
504.5793188643712
504.8006209299795
505.0228339311032
505.24585893914735
505.46961129159155
505.6939982239991
505.918922805229
506.1442987615573
506.37004153185154
506.5960572846733
506.8222603803736
507.0485559804101
507.27484891959205
507.50102171055215
507.72696253501
507.95256475488065
508.17771589215346
508.4023021844255
508.6262087302529
508.84929976297167
509.071435740676
509.29248389034643
509.51230723743146
509.73076240426013
509.9477061291456
510.16298639042617
510.37644235008327
510.5879219669949
510.7972624846181
511.0043059957605
511.20888439841116
511.4108306284453
511.6099680355244
511.8061172354676
511.9990918977958
512.1887054468002
512.3747646575144
512.5570895767954
512.7354876670471
512.9097628263279
513.0797065243388
513.2451219189761
513.4058066625538
513.5615639120127
513.7122091676707
513.857555732652
513.9974046010948
514.13156473338
514.2598447448306
514.3820511628537
514.4979931017358
514.6074825617686
514.7103369635755
514.8063773021562
514.8954308195509
514.9773226808949
515.0518871837829
515.118963691071
515.178394787888
515.2300375507041
515.2737596831188
515.3094314579213
515.3369284833112
515.3561277902949
515.3669256841637
515.3692227614534
515.3629287497406
515.3479630031197
515.3242504554014
515.2917239708238
515.250328864267
515.2000252628935
515.1407862192835
515.072591426931
514.9954361791008
514.9093183758332
514.8142495241277
514.7102591984143
514.5973842587682
514.4756755471158
514.3451957072294
514.2060192651797
514.0582260191667
513.9019118049039
513.7371862038722
513.5641769354214
513.3830169155835
513.1938442172492
512.9968125458308
512.7921085968796
512.5799130943523
512.3603897497597
512.1337302391169
511.9001468912484
511.65986370414277
511.4131183203976
511.16015313307014
510.90122625284755
510.63658515634773
510.3664836243248
510.09119179812797
509.810993335206
509.52617413732463
509.23702627236946
508.94385635133557
508.6469654948498
508.34666637947214
508.0432851045543
507.73713465631744
507.42853182586464
507.11780298437753
506.80525927228354
506.4912306572307
506.1760497630905
505.86006035476186
505.54359538623237
505.2269699175766
504.91050864424307
504.59453414576046
504.27936179911495
503.96531881154175
503.6527219365903
503.34188140258055
503.03311131430075
502.7267183847751
502.4229994819924
502.1222323817589
501.82471233788823
501.5307122945617
501.24050448074814
500.9543468236611
500.6724912172227
500.3951698874232
500.1226144524605
499.8550466147534
499.59267996648003
499.3357153067212
499.08435353754214
498.83876920400553
498.5991387086655
498.36562270702717
498.13837488658464
497.9175377490625
497.70324732711055
497.49561367300066
497.29473370891617
497.10069302610856
496.91357681656746
496.7334547305555
496.5603766071224
496.3943899684912
496.23552905543846
496.08382592197273
495.9392932653836
495.80193348985915
495.67174332302716
495.5487120451191
495.4328154192353
495.3240204892635
495.2222904045787
495.12757390558215
495.0398078120555
494.95892167173935
494.8848358147968
494.8174813536557
494.7567722123581
494.70260779890765
494.6548864280585
494.6135055731612
494.57835789485216
494.5493295591118
494.5263006941957
494.50915439913626
494.4977683438094
494.49201744991547
494.4917698993848
494.49689183387216
494.50725422977854
494.5227222551761
494.5431687759555
494.5684595507891
494.59846018853665
494.63304084997816
494.6720679524257
494.71541330980864
494.76293913913275
494.81450473089546
494.8699882680994
494.9292674535069
494.9922066828417
495.05866543305416
495.1285219434399
495.2016736005367
495.27799593142487
495.3573732351399
495.43969841845797
495.5248467583237
495.61269539317306
495.70313155688274
495.7960590011051
495.8913874908849
495.98900697050385
496.0888027931284
496.19066840668114
496.29450490412535
496.40021857584736
496.5077166124204
496.6169116503078
496.72770433411586
496.84000968519973
496.9537354393849
497.068782024371
497.18507964459815
497.30253592476606
497.4210445828879
497.54050665107667
497.66083201854303
497.78194372071795
497.9037496704037
498.0261645250311
498.14910531263405
498.27248050852074
498.39620747023804
498.52020378104385
498.644378557617
498.76863893723
498.89289215198573
499.0170630312015
499.1410611954714
499.26480300854314
499.38820519412883
499.5111805998668
499.63364267265615
499.7555187436833
499.876728513277
499.9971953124736
500.11684419581843
500.23560451761546
500.3533971012125
500.4701563223927
500.5858106286055
500.7002892680311
500.8135201212332
500.92544488764304
501.0360104001012
501.1451734080696
501.25287482395277
501.3590595133645
501.4636869786131
501.5667225867092
501.6681489690516
501.76794040963136
501.86607859167617
501.96253526543404
502.05730069936436
502.1503684571514
502.24173333507923
502.3314000718445
502.4193790106962
502.50568621599894
502.59034346898414
502.6733760536302
502.75481056984387
502.8346813762336
502.91304133614227
502.9899419590005
503.0654267927407
503.13955979661034
503.21240769291853
503.2840420345604
503.3545368723945
503.4239796261004
503.4924646285698
503.5600756622608
503.6269031881757
503.69304176953904
503.7585919064525
503.82365976854305
503.88835030218615
503.9527755423917
504.0170410342476
504.0812606857434
504.145545355082
504.2100044556224
504.2747541135017
504.33990348469433
504.4055739795981
504.4718881464938
504.5389496980587
504.6068691820623
504.67575921832736
504.7457255098505
504.81687073629257
504.8892896002335
504.9630838173685
505.0383464841381
505.1151461591966
505.1935721687603
505.27371030759645
505.35562526520755
505.4393688750971
505.52498365664724
505.6125218865293
505.70203674010634
505.7935758875884
505.8871531846774
505.9827701166402
506.08042588380283
506.18010349409167
506.2817866059264
506.38544590719965
506.4910563400739
506.59858415989
506.7079541747304
506.81909746416534
506.93195133678756
507.0464334563833
507.1624421028579
507.2798604933896
507.39857426369707
507.5184497981384
507.63934531223674
507.76111540640807
507.8835960641221
508.00660709023254
508.12996751469075
508.2534958665073
508.37700869349106
508.50029510359803
508.6231347591462
508.74530910155863
508.86658427258556
508.9867269424867
509.1055048615779
509.22266780718854
509.3379700852712
509.45115586992785
509.56196421518626
509.67012738226754
509.77539102080897
509.87749732539555
509.9761925239063
510.07123025206727
510.16236425023146
510.24933868864866
510.331899940026
510.40978409872866
510.4827657699057
510.55062854669745
510.61314881607194
510.67010328344367
510.7212739071355
510.76646366219444
510.8054818560535
510.8381580642435
510.86432759700335
510.88384090265305
510.89656647097485
510.90238056924966
510.901176575814
510.8928611376918
510.87736549172655
510.85464380078133
510.8246763518507
510.7874751787827
510.7430547197644
510.6914262892242
510.63264903677964
510.56679552874033
510.4939610891199
510.41426205450597
510.32783617052297
510.23483404162783
510.1354255014135
510.02980583506354
509.9181931503817
509.80082997207137
509.67798482801584
509.54994298256554
509.41701241899926
509.2795164767977
509.13780834543496
508.9922594259594
508.84325437655315
508.6911947812499
508.5364981658266
508.3795991728074
508.22093753025644
508.06096980965117
507.9001725016137
507.73902333281575
507.5780108501234
507.41763517962187
507.2583955878895
507.10080418116814
506.945379997601
506.79262787322745
506.64306539043383
506.4971860850585
506.35549655523187
506.21850574602473
506.08671265823574
505.960602784591
505.8406442352606
505.7272878877073
505.62096947845356
505.5221361674101
505.43121041493
505.3485845189549
505.2746323506316
505.2096990666625
505.15411042765555
505.10815359647864
505.0720884962879
505.04616820314345
505.0306050318503
505.0255715307276
505.03121446208604
505.0476450261056
505.0749336285821
505.11311750319004
505.16221283673747
505.2221880874079
505.2929679659038
505.37444386776457
505.46648245387706
505.56890607667185
505.6814995035834
505.8039969915767
505.9361067474138
506.0774984370186
506.2278059569538
506.3866457144321
506.5535895990166
506.7281642008874
506.9098782647404
507.0982043848722
507.2925937513443
507.4924736715329
507.69725854407017
507.9063193859821
508.119003404426
508.3346357817147
508.55252355294886
508.7719683258499
508.99226406195834
509.21269512528863
509.4325653192734
509.65114184571536
509.867686326976
510.08146801092437
510.29177286986373
510.49789774118756
510.6991380525812
510.8947951299841
511.084189753253
511.26666464438335
511.4415893022622
511.60834748075155
511.76635523493763
511.9150548293457
512.0539217927085
512.1824453816816
512.3001412209425
512.406563386317
512.5012810058412
512.5839026007682
512.6541049372196
512.7115876570026
512.7560954896508
512.7874118646924
512.8053567810051
512.8098020015627
512.8006732828143
512.7779376943777
512.7416107388408
512.6917524492063
512.6284590369655
512.5518607922169
512.4621371858127
512.3595034373976
512.2442100336149
512.1165330334836
511.9767812789582
511.8253143044357
511.66252540561186
511.48883567601536
511.30469440030276
511.11058154108747
510.9069991062155
510.6944731892798
510.47354948961805
510.2447975395337
510.0088148004357
509.76622019703734
509.5176238748197
509.26364022440265
509.0049072410603
508.74207115931
508.4757911716531
508.20669378435156
507.9354073509151
507.66257017774694
507.3888151377725
507.1147721198259
506.84106181894595
506.5682808260187
506.2970037806162
506.0277963221588
505.7612153669969
505.49780093888467
505.2380770086568
504.9825415549021
504.7316742906776
504.48593590256746
504.24575417938445
504.0115320882005
503.78365164319627
503.56245810283946
503.3482836171356
503.14144940988876
502.9422399819937
502.75089026065064
502.5676271131903
502.3926498588744
502.2261372916635
502.0682371529587
501.9190644028946
501.77870584843146
501.64724444641104
501.5247425571477
501.4112453529397
501.3067645981454
501.2112728812927
501.12473688288605
501.0471159260176
500.978347630875
500.91835552232607
500.86704357569766
500.8242994232531
500.78999074922626
500.76399235752353
500.74616339981117
500.7363553643162
500.7344090040378
500.7401576546478
500.7534304735463
500.77405141869946
500.8018204380792
500.8365557790214
500.87807538892537
500.9261871711979
500.98069416325063
501.0413927554276
501.1080840353997
501.18058751425156
501.2587178513927
501.3422833550764
501.43107965746884
501.52491804436056
501.62360778226224
501.7269647406298
501.8348069240743
501.94696988264076
502.063294069968
502.18361881318464
502.30779379090967
502.4356754088449
502.5671119611069
502.70197009424425
502.8401154615797
502.9814196757746
503.1257628860198
503.27301652277544
503.4230452002099
503.57573011371386
503.73095311597905
503.888591742174
504.0485315978317
504.21066348794585
504.3748783626591
504.54106882833173
504.7091351832968
504.878987325945
505.05053602281725
505.22368184376296
505.3983256829419
505.5743727204516
505.7517299731924
505.9303083743624
506.1100140181122
506.29074806495396
506.47242848672846
506.6549683125966
506.8382493632503
507.0221477144128
507.20656558522586
507.3914092289287
507.5765693627572
507.7619231848686
507.9473447021598
508.13273281420265
508.3179721233842
508.50293293494195
508.6874928436849
508.8715190914494
509.0548749952598
509.23743304366894
509.41905105485756
509.5995875782939
509.77890184272866
509.95684729973885
510.1332696033018
510.30801106557493
510.4809085126522
510.65179105435953
510.8204864698453
510.98682989379284
511.150646508734
511.3117694054251
511.4700202631566
511.6252028751074
511.7771204582798
511.92559317705127
512.0704277454619
512.2114286133568
512.3483958903807
512.4811296983372
512.6094392094769
512.7331323041279
512.8520006681557
512.9658351375501
513.0744256387329
513.1775678985412
513.2750683211063
513.3667380825186
513.4523785327269
513.5317840119566
513.6047530827985
513.6710865958871
513.7305924272636
513.7830837093363
513.8283638419769
513.8662486030161
513.8965577284449
513.9191219062737
513.9337679389132
513.9403234445799
513.9386235426413
513.9285198672674
513.9098612758364
513.8825050745919
513.8463283768649
513.80120692341
513.7470223293789
513.683673543239
513.6110553726747
513.5290740890233
513.437643373041
513.3367066482042
513.2262157892393
513.106125329264
512.9763974432459
512.8370153712152
512.687955257385
512.5292124738328
512.3607949594068
512.1827276262807
511.9950568916743
511.7978401664216
511.5911352182846
511.3750176046826
511.1495761986746
510.91491092123135
510.67114366693335
510.4184163171034
510.15687559200205
509.8866817867612
509.6080131961674
509.3210574275563
509.02602008444757
508.72311591393714
508.41257966125846
508.09465068536525
507.76958145900664
507.4376393723524
507.09910427621617
506.7542703678677
506.4034370550706
506.0469171911876
505.6850342371736
505.3181261006163
504.9465447624853
504.57063602977155
504.1907539623344
503.80727775154674
503.4205917709499
503.031076191247
502.6391124854265
502.24509999257026
501.8494466446007
501.45256861786686
501.0548678860983
500.6567555528434
500.25864677638793
499.86095339584006
499.46409623840583
499.06849360006817
498.67455186035977
498.2826910049193
497.8933221184529
497.5068378642256
497.1236288315017
496.7440976068239
496.36862954463413
495.9976096440891
495.63142407494206
495.27044009082704
494.91500540830623
494.56546257964084
494.2221414135805
493.8853645495377
493.5554489801537
493.2326990988626
492.9174018178434
492.60983255968245
492.31025710685327
492.01892697525057
491.7360747803144
491.4619161120317
491.1966491683068
490.94045886154964
490.6935143618844
490.45597101730226
490.2279702356602
490.00963290308357
489.8010504169407
489.6023062009355
489.4134734501575
489.23460650956156
489.06574980406117
488.9069272246176
488.7581424521415
488.61938584468015
488.49063476047155
488.3718495527199
488.2629739364891
488.16394196405616
488.0746764912019
487.9950811235171
487.92504289703294
487.8644392266318
487.81313395251027
487.7709688452555
487.73778566968485
487.7134244519083
487.69770440926095
487.6904398504896
487.6914407709507
487.7005180793911
487.71746262535675
487.7420457623333
487.77404820566244
487.81325189151363
487.8594209889711
487.9123311370615
487.9717485007002
488.03743934957123
488.10916426297547
488.1866743132654
488.2697289655865
488.3580923303958
488.45152298443537
488.54977894134026
488.652626880765
488.7598317167264
488.87115922302564
488.9863763491408
489.1052580262031
489.22758524485846
489.3531433035777
489.4817177909974
489.6130991924729
489.7470742406788
489.88344995458664
490.0220362748429
490.1626441307424
490.3050943645129
490.44921125914146
490.5948292627835
490.74178441852075
490.88991874503864
491.03908235313327
491.1891246461287
491.33990956222215
491.4913024505192
491.6431809930192
491.79543089177486
491.94793731390257
492.10059149157087
492.25328398732006
492.40591535560515
492.5583892442499
492.71061876621155
492.8625264519783
493.01403768526393
493.16507851461944
493.3155732191012
493.46545047937525
493.61465840266965
493.76313813054355
493.9108390217788
494.0577274762271
494.2037676229568
494.34889724885716
494.4930819608279
494.636286319917
494.7784691017039
494.91960044278574
495.0596639263639
495.1986479830397
495.3365396354758
495.4733247160779
495.6089901335521
495.74352609979553
495.8769238921276
496.0091822781345
496.1403074839403
496.27030018970436
496.3991665481596
496.526915981808
496.65356559758936
496.77914037811377
496.9036625361465
497.0271560391062
497.1496465617677
497.27116581502764
497.39175383415136
497.51145037486725
497.63030370957273
497.74836196432375
497.8656709129137
497.98228687766704
498.0982700752117
498.2136868480714
498.3286052169729
498.4431013540931
498.55724644366194
498.67111743846135
498.78479675394857
498.89837432318154
499.01194321027094
499.12560176138805
499.23944702828425
499.353585720075
499.4681232032134
499.58315889370186
499.69880340615344
499.8151695243466
499.93236314903913
500.0504914778492
500.1696601728181
500.28999039499575
500.4115943459238
500.5345790805615
500.65905462405686
500.785128988952
500.91290978473313
501.04249491778546
501.1739828653892
501.30746985632965
501.4430426617218
501.58078221330055
501.72076731029586
501.8630740914824
502.0077645629117
502.15489476613317
502.30451419770685
502.4566697107321
502.61138764804275
502.7686820475368
502.928562718053
503.0910237961258
503.2560542586516
503.423637676407
503.5937323621655
503.76627975430705
503.9412214975457
504.118479525682
504.29796249953205
504.47956563628526
504.6631706456921
504.8486456767133
505.0358408520015
505.2245992314909
505.4147459621704
505.60609723512044
505.79844956878
505.9915821377842
506.1852701079053
506.3792740691664
506.5733471366057
506.767233363481
506.9606575156464
507.1533367373307
507.3449723871878
507.5352637110559
507.72390421358637
507.9105826538994
508.09498856311745
508.2767893138494
508.45565735499014
508.6312624292091
508.803263823545
508.9713288521138
509.135145245491
509.2943856764673
509.4487245173731
509.5978435753577
509.74143346455173
509.87917738377416
510.01076517990856
510.1359006438886
510.2542958144183
510.3656828121077
510.46981047643084
510.56643902556385
510.6553389503602
510.73629179949705
510.809104085613
510.873601636465
510.92963054143587
510.97705151175705
511.0157471927908
511.04562949606907
511.0666362074796
511.0787233350064
511.08187050117476
511.07608396728244
511.0613996782136
511.03786658892153
511.0055625861375
510.96460367600145
510.91512038397974
510.85726685696784
510.7912208513305
510.71718336046456
510.63538011866837
510.5460762153151
510.44955588085634
510.3461240304964
510.2361140993296
510.11987834751454
509.9977933523992
509.87026765729127
509.73772556784803
509.6006040414979
509.4593668982225
509.3144838942958
509.16644457363253
509.01576115023005
508.8629540579015
508.7085594036253
508.5531121843869
508.3971642456991
508.2412716460624
508.0859951889385
507.9318964250571
507.779537931369
507.62949020826
507.4823189956876
507.33858573446963
507.1988501909249
507.06366222462685
506.9335601614123
506.80907120614546
506.69071186526605
506.5789797358804
506.4743539257626
506.37728651081994
506.28822024251747
506.20757801306837
506.1357524287714
506.07311295220694
506.01999770279645
505.97671388950886
505.94354056517375
505.9207359950831
505.9085079265392
505.9070406948622
505.9164809131809
505.93694087352486
505.9684999222194
506.01119292435516
506.06502068047297
506.1299451054451
506.20588458766343
506.2927225598769
506.3903008912519
506.4984245071532
506.61685729988454
506.7453268853775
506.88352517836177
507.03109374684476
507.18764645513016
507.35276380692534
507.52599414258515
507.70684841275926
507.89480593015713
508.0893136916607
508.28978568065673
508.49562203439336
508.7061935232245
508.92084141060525
509.13889487557833
509.35966009447316
509.58241806964674
509.80644432456023
510.0310003832152
510.25534068418676
510.4787107045471
510.7003606496379
510.91953750644757
511.1354879743085
511.34747236443695
511.55475231449384
511.75659810534887
511.95229597824164
512.1411445535019
512.3224598842851
512.4955802842641
512.6598666412987
512.8147048176209
512.9595167364885
513.0937451857181
513.2168623492073
513.3283647586384
513.4277876663414
513.5147060533669
513.5887266820291
513.6494951443427
513.6967071979237
513.7301071185972
513.74945963218
513.7545893460995
513.7453874744077
513.7217995727957
513.6838072622825
513.6314163317148
513.5646678891185
513.4836618799495
513.3885457378811
513.2795052684824
513.156777266094
513.0206314142723
512.8713670796491
512.709324959537
512.53489429863
512.3484916681729
512.1505790455932
511.9416446316748
511.7221987302605
511.49278902945446
511.25398964839525
511.0064056814598
510.7506536238807
510.48737443006763
510.21722466928844
509.9408764228408
509.6590127594818
509.37232307799513
509.08150270388415
508.78725466157425
508.4902738900004
508.19125980535904
507.89091142018157
507.5899203894194
507.28896626562835
506.9887293329853
506.68987741587335
506.39307052539095
506.09894376891594
505.80811641393996
505.5211923029597
505.238756246755
504.96137062700103
504.6895721142956
504.42387725774836
504.1647640319625
503.91269721922544
503.66810797449585
503.431397587107
503.2029390852089
502.9830766319066
502.7721295723401
502.57038357683655
502.3780926967988
502.19548810358475
502.02276511340534
501.8600899648374
501.7076110785435
501.5654421247139
501.43367149209075
501.3123476332856
501.2015125810251
501.10117667047695
501.01132401673476
500.93191353685734
500.86287779821305
500.80413052717444
500.7555719798894
500.7170814258184
500.6885161794983
500.66971269873903
500.6605008308365
500.6606940043187
500.6700882260393
500.6884764401137
500.7156300588777
500.75132199858456
500.7953103602714
500.8473483375078
500.90718528926914
500.9745701103549
501.04924595595315
501.13094700900797
501.21940156392156
501.3143370969953
501.41548299337495
501.522577738608
501.635367593535
501.7535922764396
501.87699673812574
502.00532746162014
502.1383286027992
502.2757555257493
502.4173643134531
502.56292752891073
502.7122304327649
502.86506078829825
503.02121841536695
503.18050501958777
503.3427334870919
503.507717267211
503.6752948930469
503.8452998420794
504.0175428209029
504.19183456806786
504.36800834198027
504.54594536427
504.7255357376698
504.9066571397698
505.089192384123
505.2730270275118
505.4580489537044
505.64415222184834
505.83123881542525
506.01922033149305
506.20800867041385
506.3975243167654
506.58768929317546
506.77843323054526
506.9696953009168
507.1614065008627
507.35349798525453
507.54590044590424
507.73854567377737
507.93136587997134
508.1242995265284
508.3172798476683
508.5102452951001
508.70313033854717
508.89587167955494
509.0883991508496
509.28064640946695
509.4725419947447
509.6640090976801
509.8549718566734
510.0453552538961
510.2350763278165
510.42404405941454
510.61216355952746
510.79934465877176
510.9854800450021
511.17045600297484
511.3541563745569
511.53645784826716
511.71723845623666
511.89636645900174
512.0737090990912
512.2491282067543
512.4224757856986
512.5936072306184
512.7623683685492
512.9285956071787
513.0921225265193
513.2527821717184
513.4104007694195
513.5647957958664
513.7157849099535
513.8631862575093
514.0068034325092
514.1464453654428
514.2819135102537
514.4130176883793
514.5395459520082
514.6612932365823
514.7780528300905
514.889618939093
514.9957937859364
515.0963707939335
515.191141646338
515.279905387962
515.362462411358
515.438619581231
515.5081778560374
515.57093716495
515.6267099364212
515.6753084187011
515.7165583991612
515.7502823360678
515.7763152514725
515.7944944103157
515.8046620180825
515.8066633820649
515.8003493844992
515.7855876410157
515.7622628993149
515.7302690130296
515.6895009441279
515.6398551988178
515.5812385472962
515.513578956556
515.4368105377816
515.3508825796745
515.2557555220179
515.1513969468394
515.0377949914463
514.9149476637047
514.7828586397603
514.6415461056637
514.491040624562
514.3313940079277
514.162664184472
513.9849262895615
513.7982596044106
513.6027584795855
513.3985500401182
513.1857728803076
512.9645775670631
512.7351002720402
512.497490531746
512.2519193402726
511.9985655343396
511.7376305925401
511.46932948698674
511.1938883664382
510.91155106094214
510.62256363076443
510.3271806702512
510.02567362661483
509.7183172654875
509.40539356679506
509.08718883508107
508.76400610101035
508.43615581773463
508.10395538363707
507.7677374433498
507.42784081402823
507.0846035813444
506.7383736825291
506.38949754695574
506.0383283176607
505.68521869939775
505.3305246898377
504.9746070676234
504.6178263118615
504.2605506945559
503.90314030309486
503.5459572160931
503.18936682599474
502.83373503195253
502.47942120466536
502.1267730915908
501.7761501179325
501.42790755823
501.08239175349763
500.7399440393207
500.4009001610073
500.06560282991717
499.73438411039973
499.4075500613492
499.085419601892
498.768299954906
498.4564799193448
498.1502404770167
497.8498497699964
497.55557322940786
497.2676707584472
496.9863986691446
496.7119986707088
496.44469559109933
496.18470810995535
495.9322353597176
495.68746752864274
495.4505810813515
495.2217516618734
495.00114092066895
494.78889868658524
494.5851586536727
494.39003827363695
494.20365175407665
494.02609916594326
493.85746204181663
493.69781197743396
493.547212691581
493.4057179780378
493.27336987490924
493.1501923290267
493.0361978097152
492.93138946671866
492.8357590282922
492.74928476328904
492.67193597034424
492.60367096522907
492.54443512916896
492.4941743330194
492.4528155543673
492.4202692362158
492.3964314564403
492.38120360723633
492.3744861731995
492.3761596870449
492.386091700721
492.4041413794702
492.4301618676321
492.4639961488941
492.5054905663248
492.55447558170044
492.61077270064334
492.67420130956026
492.74457249452064
492.821691621574
492.9053476514095
492.9953307086683
493.091423355884
493.1934139024701
493.3010859499532
493.41420794273716
493.5325443568376
493.655851381987
493.7838922999587
493.91643123499284
494.0532249172061
494.1940364275299
494.33861607964104
494.4867061772498
494.6380565687826
494.7924073887373
494.9495068099214
495.1091092576961
495.27095622389635
495.4347985550719
495.6003837881458
495.76746760773136
495.9357968166956
496.1051272193642
496.275221818148
496.4458381737186
496.6167265588337
496.78764969545983
496.9583718607008
497.1286700162627
497.29832538878196
497.46712617985196
497.63486817853
497.8013488017313
497.9663785805646
498.12976857244183
498.2913396948528
498.45092106362176
498.6083371871898
498.7634255859621
498.91604127409016
499.06605501252034
499.2133341941884
499.3577540978601
499.4992089786009
499.63760583706716
499.7728538944935
499.9048492267386
500.03351576464036
500.15881170507487
500.28067507487066
500.39905409337007
500.51393526086287
500.62531740366205
500.73321675659196
500.8376413301788
500.93860423214807
501.0361277109279
501.130247068251
501.2210191116383
501.3085045145265
501.39277649521006
501.47391628482023
501.5520194025231
501.62718658257495
501.69952337054264
501.7691461015779
501.83618794435205
501.90078765601385
501.96309143225477
502.02325248955606
502.0814329067144
502.13779450160223
502.1924981885511
502.24571843072306
502.2976338016806
502.34843303933826
502.3983036780598
502.4474271310963
502.4959910165868
502.5441817823828
502.5921882615318
502.64019428087613
502.68839319197133
502.73696739036853
502.78609846264317
502.83596863123046
502.8867623996064
502.93865069837835
502.99179229370577
503.04633958130495
503.1024399671259
503.1602394012143
503.219868524603
503.28145513875927
503.34510820137575
503.4109302356561
503.4790079338663
503.5494179535
503.62223055200076
503.69750255657254
503.77528811416784
503.8556168050298
503.9385000886813
504.02393083229373
504.111893674124
504.20236041393287
504.2952900246242
504.3906287150205
504.4883078094809
504.5882328821447
504.69030134112234
504.79438934060977
504.90036281918907
505.0080734326945
505.1173544496861
505.22803411293086
505.33991853156124
505.4528006906263
505.5664673813464
505.68068883348485
505.7952280938284
505.9098307673783
506.0242432537765
506.13820050327035
506.25142033537446
506.36361963321605
506.4745198908708
506.5838245107497
506.69124189209515
506.79646470390793
506.89918405398674
506.99908822776536
507.0958679694062
507.18922183456124
507.278841967288
507.36442609216687
507.44568075893767
507.5223180715363
507.5940591732844
507.6606333958564
507.7217705818302
507.7772106915949
507.82671348177274
507.870053132024
507.90700184415556
507.9373458687834
507.96089044404187
507.9774716414736
507.9869332466509
507.9891272950048
507.98394317931945
507.97129337425537
507.9510923746597
507.92328120416295
507.887816835416
507.84469464309495
507.7939384516818
507.73558637592566
507.66969831741875
507.5963499171747
507.5156459846685
507.4277208356889
507.3327365308694
507.23086574206735
507.1223027106758
507.0072694827648
506.8860088204316
506.75878342949295
506.6258837870258
506.48762064724275
506.3443240517294
506.19635097909065
506.04408437584016
505.887928091479
505.7282885691744
505.5655955532691
505.4002853851693
505.23281486079134
505.06365985182543
504.89330744261866
504.7222568490858
504.55101156862304
504.3800867814909
504.2099969009271
504.0412670332305
503.87442702977984
503.7099968369178
503.5485065577002
503.39047495058514
503.2364252339944
503.08688569287307
502.9423752929638
502.80339798229693
502.6704412650904
502.54397890818046
502.424480025461
502.3124008781169
502.20818356511353
502.11224381277333
502.02497159246326
501.94673373332137
501.8778676453754
501.8186991247201
501.76953213270195
501.7306410371766
501.7022671629876
501.684624131592
501.67789459045434
501.68222480242576
501.697719139185
501.72445646011903
501.76248258111104
501.81180956466727
501.8724108943981
501.9442277529881
502.027171091767
502.1211063681268
502.22586690008274
502.34124318302094
502.4669984432514
502.60284946488304
502.74848031655307
502.90354512164896
503.0676688221315
503.24043504410105
503.42139825714287
503.61007840767854
503.80596641693234
504.0085342739968
504.21721690176645
504.43143127990453
504.6505672830114
504.87400263978316
505.1010917851501
505.33116350608805
505.5635425902148
505.79754325777805
506.0324649993719
506.26759931524674
506.50224093425163
506.73567521062694
506.96718087552205
507.19603908816725
507.42153351266836
507.642959160257
507.85963590758183
508.0708961996495
508.276081638939
508.47455248353134
508.6656859808756
508.84888118131107
509.02356132155757
509.18916939242405
509.3451832334446
509.49109976986216
509.6264495403774
509.75078456617115
509.86368981597496
509.9647966670876
510.05377681295676
510.13034061880677
510.1942353874072
510.2452389984551
510.28317068991373
510.30790842868555
510.31937616515273
510.31754005408254
510.3024068342549
510.27402651149833
510.2324795622563
510.17788571266635
510.1104080490278
510.03023282930155
509.9375815934597
509.8327141107846
509.71594017247037
509.5876009064259
509.448072037195
509.29775613860977
509.1370789619294
508.9664919930314
508.78647697558813
508.5975395828273
508.40021189190173
508.1950461215505
507.9826017859423
507.7634478603897
507.5381845459967
507.3074016029887
507.07171318933524
506.83172928769835
506.58805979760916
506.3413097284203
506.09208528928167
505.8410088923364
505.58869747497494
505.33575193292154
505.08275732313075
504.83028737681235
504.57890909946093
504.3291766713704
504.0816321553593
503.8368064518157
503.5952007147409
503.3573005429782
503.1235662129185
502.8944361496544
502.67033041084306
502.45164563015726
502.2387567859685
502.03201485757694
501.831746735727
501.6382462993312
501.451782961478
501.2726059020207
501.1009441315693
500.9369891557133
500.7809170216235
500.6328820661144
500.4930109522062
500.36139654336483
500.2381310908068
500.1232830046376
500.0168957194352
499.9189731970336
499.82951327242955
499.7484973889696
499.67589374860944
499.61165179280425
499.5557010359719
499.50795867074993
499.46833062364857
499.43671928211677
499.41300288112353
499.3970541209625
499.3887413245116
499.38791645558615
499.3944225638048
499.4081033448224
499.42879307955474
499.45631519105274
499.49049597627027
499.53117202519576
499.5781738219588
499.63133117587694
499.69046751438026
499.7553982023879
499.82593730965675
499.90190874371297
499.98313554042943
500.0694444556522
500.1606684032683
500.2566357504865
500.3571814290311
500.46214480829
500.57137645927446
500.6847254691314
500.8020508721211
500.92322214877873
501.04810661291816
501.1765742247978
501.3084979085728
501.44375161885773
501.58222585479547
501.7238038425201
501.868365769908
502.01580133488415
502.16599609662995
502.318839664212
502.4742227548978
502.63204748533116
502.79221384886915
502.95461922645694
503.119175407778
503.2857952383403
503.45438588990226
503.6248593473377
503.79711878869983
503.9710691389785
504.1466166412205
504.3236729594617
504.50214412393166
504.68192808940586
504.8629274211365
505.04503792322754
505.2281504017285
505.4121656607919
505.5969814108653
505.78248132392093
505.9685523931808
506.15507162490235
506.3419145229592
506.52895707228106
506.71608012110937
506.9031521957271
507.0900316255632
507.2765749010916
507.4626299290766
507.6480512293974
507.8326999783542
508.0164269091905
508.1990749678069
508.38048173711314
508.56047725612956
508.7388971734193
508.9155675751014
509.0903183229475
509.262974630923
509.4333529367429
509.6012719083989
509.7665416384773
509.9289769706616
510.0883911000974
510.2446002764523
510.3974155422368
510.54664308756514
510.69208432016046
510.83355344958295
510.970860272129
511.10381046473697
511.23222124738646
511.35591760596196
511.4747088272556
511.58839974391174
511.696803918617
511.7997505118177
511.89706732902374
511.9885835061194
512.0741299517365
512.1535418717718
512.2266613363346
512.2933377496574
512.3534173712895
512.4067500329655
512.4531957945286
512.4926229337397
512.5249124834536
512.5499521087085
512.5676388653421
512.5778665252394
512.5805389891148
512.5755705043385
512.5628858638992
512.5424161586429
512.5140967937483
512.4778719957907
512.4336970091729
512.3815338045204
512.321359889871
512.2531617806768
512.176937294165
512.0926935407873
512.0004492652301
511.9002351229217
511.7920918945036
511.6760597803025
511.5521914466264
511.4205541152663
511.281227458462
511.13428606278467
510.97981663566463
510.81791535563246
510.6486918176239
510.47227753241054
510.288806160535
510.0984311675849
509.9013042771048
509.69758200418755
509.48743416637785
509.2710350293066
509.04856304534434
508.820206898487
508.58617163719344
508.3466763904191
508.1019390936403
507.85218298476127
507.59764523047477
507.33854601608664
507.0751251079393
506.8076280867093
506.536308034551
506.26142064611645
505.983232552728
505.70201451616595
505.4180345600642
505.1315640179195
504.8428835682583
504.5522651889037
504.2599934285441
503.9663540419436
503.6716403111162
503.3761397611633
503.0801427451102
502.78393550811097
502.48780841259116
502.1920666436081
501.89699755045393
501.6028880147916
501.31003511283586
501.0187197413977
500.7292082514178
500.44177338729384
500.15669574305986
499.87424807012195
499.5946993340065
499.3183098310836
499.04533939333965
498.776033773199
498.5106393805423
498.2494005745857
497.99254612402524
497.74030411838885
497.4928950086124
497.25052679478523
497.0134011132502
496.78172161958014
496.5556874126729
496.33548890678856
496.1212948689625
495.91326105815523
495.71154306489393
495.5162741685785
495.3275692257186
495.1455414611786
494.9703085895951
494.8019708119903
494.64061946388074
494.486325943934
494.3391612443024
494.19917840580894
494.06641692226503
493.94089821656814
493.8226428196028
493.71167031562914
493.60798225310856
493.5115778983265
493.4224393860557
493.3405233157515
493.2657826633111
493.19815143174503
493.1375709532532
493.08396833681616
493.03726135145075
492.99734782835793
492.9641144892913
492.93744794483376
492.91723060555046
492.9033302069864
492.89561347959255
492.8939400561117
492.8981629697135
492.90812266355584
492.9236562404056
492.94458689446947
492.97073733018215
493.00192788152975
493.0379814567456
493.07871109107816
493.1239314280089
493.1734461414793
493.2270682817225
493.28461009523033
493.34588165157754
493.4106937516611
493.47884308764105
493.5501277354402
493.6243449394163
493.70130653618656
493.7808239783633
493.86271089048205
493.9467988276111
494.0329205866189
494.1209001548051
494.21056620384036
494.3017499441526
494.39428966229013
494.4880331860088
494.58282718712843
494.67853946756884
494.77503755444417
494.87219341945365
494.9698858798408
495.0679985429872
495.16641985842443
495.265051840573
495.36380801947286
495.46260937235036
495.5613736139404
495.66003494319057
495.75852209728635
495.8567778039794
495.954745292691
496.0523855115952
496.1496682644817
496.246567850197
496.3430541575732
496.4390942335394
496.53467789728035
496.6297998732421
496.7244550311077
496.8186512576624
496.9124051056498
497.00573305438195
497.09864470131913
497.19116424009815
497.2833170756531
497.3751362277232
497.46665560808685
497.5579166274448
497.6489551182412
497.7398032867041
497.8305046588768
497.9211072637993
498.0116591210008
498.1022103603407
498.19280437433883
498.28347734732813
498.37426834772583
498.465214121523
498.55636159924586
498.647769770062
498.73948774460297
498.8315767811098
498.92409547326366
499.0171068303362
499.1106566833566
499.2047891059791
499.29953744168307
499.39495015961245
499.49105984228794
499.5879068829954
499.68553922319904
499.78401030451334
499.8833595715367
499.9836275876471
500.084858123349
500.1870828375368
500.29032763411885
500.3946321398768
500.5000211402849
500.6065307040985
500.71418163873574
500.82300101646246
500.933013201826
501.0442486112231
501.1567351490752
501.2704961909231
501.3855418385882
501.50189069284943
501.6195566563734
501.73854005065306
501.8588403030899
501.9804533073336
502.10337100840906
502.22758753854623
502.35309017347225
502.47985678965995
502.6078619614622
502.7370787200726
502.86746722337153
502.9989919074822
503.13160814687683
503.26526646040907
503.3999168135456
503.53549337946265
503.6719299871421
503.8091493285728
503.94706740259255
504.08559122178673
504.22462306306227
504.36405609927095
504.5037610667964
504.6436076787425
504.7834731959252
504.9232185153055
505.06268826780405
505.20173040321646
505.34018086204685
505.4778791199419
505.6146511070749
505.7503096773418
505.8846680550979
506.0175335910257
506.148712656552
506.2780026097451
506.4051902263811
506.53005207152955
506.65236128458986
506.77190758583237
506.8884651613011
507.00181761965246
507.1117435527938
507.21802624743106
507.320443737412
507.41877186328145
507.51278944600875
507.6022879084991
507.6870614234811
507.7669079663763
507.84162580531813
507.9110186506222
507.9748984676399
508.03308604468236
508.0854115469194
508.13172390021873
508.1718805046958
508.2057588906019
508.2332335242468
508.25418737446296
508.2685275037805
508.27617896872994
508.27708780410546
508.27120648709183
508.25850320152534
508.2389621798957
508.21258625849725
508.17940830715133
508.139481051994
508.09287130104997
508.0396715549145
507.9799875345452
507.91393196185345
507.8416354855949
507.7632485474879
507.67894980015996
507.58891522966263
507.4933504176777
507.39248336160125
507.2865619108449
507.1758422482625
507.06060342498967
506.94114662599674
506.81777469027264
506.6908152349888
506.56060449158554
506.42747765302715
506.2917871658377
506.1539035660899
506.0142145715811
505.8730980183258
505.73095148888547
505.5881692926552
505.44514999313196
505.30229500467254
505.1600027358239
505.0186801589552
504.87873038659546
504.74055355064286
504.6045521375329
504.47111229300646
504.34061987803176
504.2134701088721
504.09003607959266
503.97068766927634
503.8557797413621
503.7456534028531
503.6406393918811
503.5410550477209
503.4472035233094
503.3593642089317
503.2778028165519
503.20275946051925
503.13446068370354
503.0731052585535
503.01886737331944
502.9719085504165
502.9323679626739
502.9003682916317
502.8760174373266
502.859393002577
502.85054654954473
502.8495100281243
502.85628936025694
502.8708668132246
502.89319222354624
502.9232027008979
502.9608143234128
503.0059073562004
503.05834840305175
503.1179666464182
503.18457601376997
503.25797782775675
503.33795055024603
503.42424611000524
503.51658833524635
503.6146996908214
503.71828898607276
503.82705275731615
503.9406746600626
504.0587984063171
504.1810704134025
504.3071233715415
504.43657307472137
504.5690260738602
504.7040850690647
504.84135014465556
504.98042021738934
505.12087922966776
505.262315068818
505.4043143726348
505.5464618595108
505.6883506449277
505.8295859883895
505.96977620205655
506.10853244996105
506.24547047691027
506.3802076526105
506.51236184197296
506.6415764110642
506.76750831022815
506.8898269162026
507.00822581524625
507.12240858398025
507.23209435870336
507.3370165875617
507.43693897943683
507.53164095723315
507.6209183563529
507.7045816604576
507.78245186900347
507.85437328547874
507.92021731137834
507.9798734069221
508.0332532180085
508.0802878259049
508.120922589192
508.15514940081783
508.1829802879974
508.20444529799823
508.2196013983254
508.22851958152717
508.231291556798
508.22801421913834
508.2188198786182
508.2038386359735
508.1832218993579
508.1571461991742
508.12579507496406
508.08935817795225
508.0480322309421
508.0020504040021
507.95165294415307
507.8970952359625
507.8386385066334
507.7765447685222
507.71109122553435
507.6425429394149
507.5711755047838
507.4972735956199
507.4211318872156
507.34305203970354
507.26332669761155
507.18223393242954
507.1000599318306
507.0170867823808
506.9335956160095
506.8498676663546
506.7661722940836
506.68277693554046
506.59993735307114
506.51791209240815
506.4369509229819
506.35730758203675
506.2792155613069
506.20290560312833
506.1285969848131
506.0564996892845
505.98681438526546
505.91973464269586
505.85543154330674
505.7940710563805
505.7358008283404
505.68075864632823
505.6290830801103
505.58090034140116
505.53633315459984
505.49548340331813
505.458447573625
505.42531919432463
505.3961759857159
505.3710868210251
505.3501142825298
505.3333192255524
505.32075024180534
505.3124530262331
505.30847776785936
505.30884712276344
505.3135762645111
505.322675195226
505.3361466384617
505.3540060630415
505.3762581986073
505.40289751863537
505.43392403699085
505.46932633292215
505.5090906292213
505.5531943512034
505.60161265478655
505.65432499029174
505.71131085718406
505.77254334885447
505.83800688892853
505.9076778957874
505.9815205361862
506.05949970423825
506.14158531548827
506.22774577619924
506.3179437557928
506.4121472434803
506.5103317251957
506.6124761155148
506.71854354570127
506.828485650366
506.9422596136177
507.059827938103
507.1811562529445
507.30618907633226
507.43487777533363
507.5671668909418
507.7030112271984
507.842375919542
507.985206162013
508.1314402453145
508.2810399041119
508.4339688066958
508.59017587845454
508.7496156410571
508.9122200978554
509.07791828862526
509.2466359389382
509.4182928560877
509.5928112482252
509.77011099861903
509.95010725853854
510.1326903188925
510.3177641365976
510.5052369487834
510.6950078761783
510.88697114356074
511.08102255099755
511.27706177957396
511.4749684028654
511.6746170412889
511.87587054462773
512.0785950571191
512.2826577799
512.4879161322175
512.6942333178545
512.9014612254431
513.1094450148532
513.3180142839522
513.5270025318774
513.7362471290685
513.9455787947911
514.1548198790505
514.3637955285227
514.5723252175749
514.780223039624
514.9873089480561
515.1933961392405
515.3982938128188
515.6018009971267
515.8037154091452
516.0038245298579
516.2019207101832
516.3977945559055
516.591241495983
516.7820553276338
516.970030615161
517.1549475864431
517.3365918873807
517.514750219249
517.6892215871104
517.8598069652896
518.0263012003375
518.1884936173528
518.3461705194768
518.4991219188373
518.6471439453568
518.7900259426011
518.9275571574867
519.0595531221355
519.18582773408
519.3061828881529
519.4204240651111
519.5283560792877
519.629785138475
519.7245318871031
519.812418485186
519.8932731818494
519.9669261271509
520.0332072610145
520.091950603335
520.1430073790699
520.1862331181771
520.221494774315
520.2486539078518
520.2675847129609
520.2781656811612
520.2802843852236
520.2738290795878
520.2586911852591
520.2347718482338
520.2019818790756
520.1602354195195
520.1094588175656
520.0495840799591
519.9805511166276
519.9023233008826
519.8148683118881
519.7181431478069
519.6121245816172
519.4968026612098
519.3721724096638
519.2382362100702
519.0950125482278
518.9425295299345
518.7808362401572
518.6099858514045
518.4300427446276
518.2410719251882
518.0431499669976
517.8363848531333
517.6208947403265
517.3967711098775
517.1641196877657
516.9230727142868
516.6737643494064
516.416358711847
516.1510256765381
515.877947468224
515.5973164681853
515.3093329852896
515.0142050797043
514.7121571501807
514.4034410683524
514.0883102822764
513.7670177559012
513.4398289934538
513.1070175297888
512.7688624796392
512.4256523225985
512.0776864686096
511.7252791273906
511.36875682853037
511.00845173040847
510.64469261003177
510.277824068039
509.9081950259783
509.53616052334104
509.1620725014742
508.786296623248
508.40920271929826
508.0311574013661
507.6525343063911
507.2737157172876
506.8950788001047
506.5170124065921
506.13989030469105
505.7640791570857
505.3899526574051
505.0178862146141
504.6482607281999
504.281451241816
503.917822211353
503.55773570843775
503.20155515921874
502.8496251291088
502.5022815569053
502.15984858343336
501.82265519119386
501.4910192461361
501.1652468791825
500.845633932293
500.53245420390584
500.2259738760665
499.9264616905322
499.63416672981697
499.3493225818874
499.0721490523166
498.8028670892526
498.5416792368723
498.28875644617847
498.0442506385561
497.80830512651335
497.5810520519296
497.36261663244966
497.1531041500561
496.9526000665602
496.7611788432253
496.5788974983767
496.40580239612603
496.24192306219624
496.0872726204275
495.941830486648
495.805563955977
495.6784321404077
495.5603903983787
495.4513754611233
495.351308051801
495.2600975819843
495.1776469333346
495.10385329330245
495.0385806301634
494.9816820267471
494.93301533319396
494.89242627734143
494.8597492518108
494.8348124988377
494.81742785019117
494.8073956995094
494.8045166026886
494.8085763881503
494.819366132706
494.83668070727543
494.86030454143173
494.8900102646093
494.9255678857822
494.9667429276124
495.01329678626416
495.0649958252268
495.12162059634323
495.18294480239695
495.2487294487673
495.3187384993688
495.3927614664063
495.4705795358355
495.5519685666045
495.63672151198654
495.72462049769507
495.81545253592554
495.909014176339
496.00510305355743
496.10352258583015
496.20408217364724
496.3066060748369
496.410911670891
496.51682261174216
496.62417531812
496.7328102870084
496.8425853441608
496.95336723548417
497.06502110183095
497.17742379768015
497.29044640869506
497.403969367924
497.5178799464053
497.6320830956025
497.7464773600591
497.86096552764974
497.97546953650215
498.08992388029577
498.20426705668615
498.3184328037956
498.432358679948
498.5459945341229
498.65930221485
498.77224676622177
498.88477662753087
498.9968670292211
499.10850237321176
499.2196587620042
499.33031691204513
499.44045950579107
499.55007292139675
499.65915791420156
499.7677141945926
499.87574017563844
499.9832459018651
500.09024216473165
500.1967471295994
500.3027819842147
500.4083644611689
500.51351982802856
500.6182654894024
500.7226349881353
500.8266627408637
500.9303686908679
501.0337842980759
501.13694363574837
501.239876638525
501.3426084791932
501.44517421785514
501.54760968213867
501.64995999590144
501.75227074808225
501.85458795537016
501.9569491641971
502.05939413208955
502.16196893095554
502.2647170066602
502.36767902245646
502.4708882080615
502.57438960597284
502.67822672502535
502.7824614863237
502.8871463140115
502.99231575424267
503.0980059799416
503.20425006968685
503.3110865042895
503.4185435396028
503.5266343133914
503.6353778006324
503.74480692757453
503.8549488269956
503.9658158742181
504.0774182468571
504.1897633988811
504.3028403094239
504.4166384808327
504.531156038916
504.64639300737036
504.762336174528
504.87895256443187
504.9961934059496
505.11401760165774
505.2323826355156
505.3512314154116
505.4704900237259
505.59009373473015
505.709962835111
505.8299915006236
505.950084488214
506.0701373695474
506.19003246003945
506.3096366749088
506.4288190173594
506.54744210396274
506.6653449366465
506.7823626714979
506.8983223729046
507.013036533293
507.12632061302514
507.23798681362973
507.347838151828
507.4556623885126
507.5612521665101
507.66438606729196
507.7648358268197
507.8623734050757
507.95676055219724
508.0477558236853
508.13512392314004
508.2186254900628
508.2980246238837
508.3730812231972
508.44355195570114
508.5091976178583
508.5697928023546
508.62511628898716
508.6749435392374
508.7190542696589
508.75722899394725
508.78926297251815
508.81496718207285
508.83415624941523
508.8466492011947
508.85227879578594
508.85090560043653
508.8423949898512
508.8266201634711
508.8034738720617
508.7728691577594
508.73472910317287
508.68899621560973
508.6356219100661
508.5745864072785
508.5058836527051
508.4295346997486
508.3455880806871
508.2541073109355
508.1551582556969
508.0488398691621
507.9352644254763
507.8145750055921
507.6869213760514
507.5524793397849
507.41145488247037
507.26406670022226
507.1105680251087
506.95122491180837
506.78630763153905
506.61610766380016
506.4409391176767
506.26112050728887
506.07698467037545
505.88887521254236
505.6971647324246
505.5022404768735
505.30449452164265
505.1043313097785
504.90217300822076
504.6984520436085
504.49358386125743
504.2879916171683
504.08209976451434
503.87633641280956
503.6711404802853
503.46694703887357
503.2641923762668
503.06329720939146
502.86468693013137
502.6687968263345
502.47604701789794
502.2868436029496
502.1015820037876
501.9206547586877
501.74442876395517
501.5732552259666
501.40749716398096
501.24748959090283
501.0935346176791
500.94590682756194
500.8048649474242
500.6706658898256
500.5435553097562
500.42374536994515
500.31141631768145
500.2067376010989
500.10986531602583
500.02092011302926
499.9400087175875
499.86721964713473
499.80258611506116
499.7461292968597
499.6978491390811
499.65772645366343
499.6257184920677
499.60174809400587
499.58572573899977
499.5775476115772
499.5770897140355
499.58421109992565
499.5987483755457
499.6205124071354
499.6492894683253
499.6848443897756
499.72692555949925
499.7752810161154
499.8296444054534
499.8897320180309
499.9552441416859
500.0258794277131
500.10132303205023
500.1812348306613
500.26527668909335
500.35310682673764
500.4443941743982
500.53879140738877
500.63594720423293
500.7355095421252
500.83713121137384
500.9404732171376
501.0451975603447
501.15096217554816
501.25742637852505
501.36426483042703
501.47115092947735
501.5777663620049
501.6838147786612
501.78900726703546
501.8930612850802
501.99571912052585
502.09673346587545
502.1958751043248
502.2929275517798
502.387699189182
502.47999809280503
502.56964594518575
502.6564695196328
502.74030683230325
502.8210217901483
502.8985083313493
502.9726729157566
503.0434344000401
503.11072588308195
503.1745008078991
503.2347149262594
503.29134061228393
503.3443723475742
503.39380373123106
503.43965910193276
503.48198419852235
503.5208305712377
503.55625722169265
503.58834763786285
503.617198721637
503.64292527867127
503.66563165159977
503.6854245493221
503.7024211865455
503.7167420029244
503.72850532411263
503.73784152222316
503.74489883307194
503.7498298982107
503.75277818726397
503.75389702939674
503.75334243364216
503.751268194398
503.7478340779698
503.74321207764706
503.7375688645021
503.7310546231881
503.7238112040006
503.7159711986945
503.70768304297036
503.69907715976694
503.6902936216621
503.6814728212643
503.6727219725845
503.66416658318997
503.6559345806538
503.6481476754021
503.64092811479316
503.63438338559126
503.6286148562714
503.62372001989587
503.61979937305705
503.6169370524974
503.6152162916914
503.61470863244125
503.6154695095736
503.6175466196041
503.6210082272325
503.6259105535441
503.632313391331
503.64026741842036
503.6498167677119
503.6610170528616
503.67391648966037
503.6885411899025
503.70492157584397
503.723083634709
503.74303360285415
503.76478610161735
503.7883639677076
503.8137963785597
503.8411061757111
503.87029703030856
503.9013795843771
503.9343669508377
503.9692793504975
504.0061225325401
504.04490099335015
504.08563143552385
504.12831698849544
504.17296921460195
504.2195774073749
504.2681456146351
504.3186772000299
504.3711814806673
504.42565420797143
504.48208181720366
504.5404629310893
504.6008083301198
504.6631370425448
504.72745513182844
504.7937760614575
504.8621104422287
504.9324444116046
505.00476771012814
505.07909521191795
505.1554231292646
505.2337419648977
505.31404037347056
505.39630892671494
505.4805328365875
505.5667110241336
505.65485379326026
505.7449766605984
505.8370813442862
505.9311582276141
506.02720358571474
506.1252127367466
506.2251997358008
506.32716718383034
506.43112426147263
506.5370829793561
506.64504791640866
506.7550208829156
506.8670076316804
506.98100250184547
507.09700564144117
507.21501402986365
507.33502558206254
507.4570386304648
507.5810557296009
507.70706567161307
507.83506273162004
507.9650441158396
508.09701400398217
508.2309768811989
508.3669311489837
508.5048668951644
508.6447742876888
508.78664101009514
508.93044550184067
509.0761586867696
509.2237584162088
509.37322668775016
509.5245406263632
509.6776569290792
509.83252448356126
509.98909905741533
510.14733867758355
510.3072082458142
510.4686382028419
510.6315616124229
510.7959029226651
510.96158633217703
511.1285424797688
511.29667154473333
511.46586927597673
511.636031121706
511.80704336334236
511.9787698610409
512.15106912194
512.323795892786
512.4968051252216
512.6699453847532
512.8430481196028
513.0159431244655
513.1884545058134
513.3604099715124
513.5316195402198
513.7018826476098
513.87098625932
514.0387115928561
514.204825528867
514.3690870418194
514.5312534779744
514.6910916466892
514.8483476753464
515.0027691575625
515.154114450933
515.302120778375
515.4465354055648
515.587100843656
515.7235469310286
515.8556267379419
515.9830781958093
516.1056315859603
516.2230122154857
516.3349516518563
516.4411771291999
516.5414358557316
516.6354825108994
516.7230647857041
516.8039569880378
516.8779304748022
516.9447503151519
517.0041867980148
517.0560290022031
517.1000812319932
517.1361441569396
517.1640195901666
517.183505984078
517.1944330693946
517.1966486603391
517.1900126147183
517.1744021744206
517.1497020395868
517.1157807234447
517.0725253896802
517.0198503407449
516.9576948684443
516.8860237906313
516.8048109837679
516.7140272996294
516.61364092983
516.5036345489597
516.3840268550327
516.2548487821438
516.1161481310868
515.9679852783311
515.8104046504428
515.6434822597267
515.4672965432318
515.2819561133081
515.0875862593679
514.88432019561
514.672303311492
514.4516973508496
514.22267586923
513.9854263845469
513.7401569868393
513.4870701182808
513.226371003904
512.9582801532223
512.683039389581
512.4009005651174
512.1121033263807
511.8168939449099
511.5155439386929
511.2083362575044
510.8955517480829
510.5774882696465
510.25446706059887
509.92680910456863
509.59483088039116
509.2588395617906
508.9191408939438
508.57606227955387
508.2299303076604
507.8810766670614
507.5298285859131
507.1765276020241
506.82152912318014
506.4651829773166
506.1078378227943
505.74982546859223
505.39148636676674
505.0331712347513
504.6752211952524
504.31797397389334
503.96175891361963
503.60692058870467
503.2537879299676
502.9026999989858
502.55397255230474
502.2079083254913
501.8648179686338
501.52501040931764
501.18879013391484
500.8564479107469
500.52826454575046
500.204521256011
499.88549264565154
499.57144863930273
499.2626545347175
498.9593646048419
498.6618133329805
498.370221639825
498.08482058975034
497.80580759649825
497.53337013424175
497.2677071404225
497.0089915727606
496.75738316809367
496.5130414278694
496.27609701092194
496.04667322733127
495.8248923936813
495.6108671490179
495.4047028893605
495.20650267176285
495.0163392861915
494.83427515154096
494.6603603223426
494.4946148732068
494.33705020745475
494.1876883106774
494.0465377226803
493.9135915643468
493.78882762766193
493.67223036656486
493.5637782995647
493.46345381023855
493.37120265193164
493.286945296286
493.21060079099067
493.14208224563356
493.08129695794275
493.0281665432653
492.9826147565588
492.94453578961543
492.91380788880144
492.89029083086655
492.87384289970265
492.864329456792
492.86163204940186
492.8656208118758
492.87614863882783
