463.99999999999994
464.83173320013447
465.6632390113668
466.4942927597605
467.3246796207321
468.15417787361827
468.9825749081765
469.80965257906087
470.63520972933003
471.45904326385664
472.28094883250066
473.10073878293855
473.91823188049835
474.7332519377351
475.545628392365
476.3552121585812
477.16184782537476
477.96539384414166
478.7657163163546
479.5626870109144
480.3561921727581
481.14613262782757
481.9324129948374
482.71495053451974
483.493670717862
484.26851596672515
485.0394324618193
485.80637648958157
486.5693142726853
487.3282171754941
488.08307207511376
488.83387875262576
489.5806386318785
490.3233653001987
491.0620818566918
491.7968205553463
492.52761589575846
493.25450847071534
493.9775421705854
494.69675912286664
495.4122096739156
496.1239515078086
496.8320424296361
497.53653964678534
498.2374989391031
498.9349825228116
499.62904070482557
500.31973500697944
501.007117583275
501.69125027210134
502.37217333582504
503.0499243370351
503.72453500395727
504.39603249191754
505.0644407664885
505.7297688342464
506.3920209286423
507.0511849443689
507.70724263402417
508.36016447524554
509.00990904941835
509.6564225084833
510.29963584545027
510.93946872224626
511.57583344190067
512.208628177866
512.8377280661549
513.4629937047588
514.0842663813582
514.7013719578923
515.3141182444315
515.9223033643095
516.5257089537732
517.1240978858199
517.7172251195219
518.3048291539327
518.8866235795003
519.4623103578975
520.0315823091826
520.5941015795291
521.1495261910943
521.6974950688032
522.2376416062683
522.7695745578806
523.2928938820073
523.8071912627927
524.3120420219963
524.8070079607725
525.2916489909221
525.7655019834117
526.2280989831022
526.6789612885153
527.1176044498318
527.5435478163159
527.9563047624442
528.3553752231163
528.7402554558274
529.1104434479549
529.4654356420001
529.8047259169261
530.1278044873596
530.4341698461299
530.7233189394145
530.9947636562467
531.2480102302653
531.4825668904441
531.6979557405531
531.8937006184527
532.0693500041942
532.2244496944438
532.3585658330653
532.4712796297553
532.5621776333245
532.6308659005388
532.6769755364719
532.7001487144906
532.7000375961211
532.6763205738355
532.6287010753241
532.5569020541534
532.4606736681643
532.3397789885323
532.1940078606062
532.023175353894
531.8271290626461
531.6057367112091
531.3588999575974
531.0865418833318
530.7886207269089
530.4651305262213
530.1160953321764
529.7415611706311
529.3416051946617
528.916340395346
528.4659094051192
527.9904825091357
527.4902664268925
526.965502181532
526.4164564315619
525.8434323207721
525.2467759768375
524.6268458893212
523.9840388004206
523.3187847902183
522.6315490969671
521.9228318210403
521.1931544747399
520.4430815139038
519.6731892384705
518.8840934978731
518.0764247674542
517.2508535270263
516.4080785259174
515.5488216949321
514.673829509929
513.7838654447746
512.8797065940763
511.9621618710548
511.0320662810126
510.09026449855025
509.13761826181866
508.1750070546213
507.2033244644087
506.2234789205876
505.2363922027519
504.24299353372345
503.24421144817507
502.2409940212282
501.23429202221723
500.22506844718407
499.2142818763367
498.2029005480743
497.1918769946807
496.18216842615436
495.17472644019364
494.1704910199151
493.170393149687
492.17536187524934
491.18631607086206
490.20415841978786
489.22978702604416
488.2640852795443
487.3079161845298
486.36211658218195
485.4275219019452
484.5049452650224
483.595167680634
482.6989521690183
481.81703820573676
480.95013618102513
480.09893505359526
479.2641036589369
478.44627906168984
477.6460681113562
476.8640378393125
476.10073417986814
475.356674764394
474.63235069641314
473.92821970757444
473.2447081507145
472.58221750602274
471.941113672806
471.3217293829617
470.72436442368513
470.1492770082776
469.59671005325396
469.0668696676464
468.5599343701415
468.07605778878303
467.6153473879609
467.17788898514794
466.7637406262487
466.37293534571995
466.0054797786606
465.6613528477631
465.34050213390555
465.04285557725785
464.76831802230714
464.5167831331332
464.2881148264749
464.0821507265543
463.89871411227125
463.73761938441936
463.59865374319776
463.48159374774406
463.38619986719067
463.31222645948213
463.2594077896311
463.22747244356617
463.21613799974426
463.2251077332699
463.25407153500134
463.30271984095117
463.3707356090564
463.4578015810523
463.5635988544414
463.6878077971018
463.83010016208226
463.99014631663977
464.16762246529225
464.3622004103936
464.57354580408787
464.80134268999115
465.0452635299409
465.3049827250013
465.580174557202
465.87051534079234
466.17568560414344
466.49536563840803
466.8292441544235
467.17700066717913
467.53832490974435
467.91289898916386
468.3004077244553
468.7005314209584
469.11294728813675
469.53733945350547
469.9733961435403
470.42079373762823
470.8792045953724
471.3483028033084
471.82775034314534
472.3172071482654
472.8163258214025
473.3247529978044
473.8421197084251
474.368046955426
474.90215139005585
475.4440291217543
475.99326783853854
476.5494304092346
477.11207342248247
477.68073512941
478.2549455527791
478.8342127240668
479.41803299124354
480.0058774696408
480.5972048665141
481.19145682993616
481.7880468685873
482.3863821323886
482.98583944484136
483.58577858461115
484.1855468765188
484.7844776835463
485.38187360747673
485.97701796272895
486.5691820558913
487.157619472395
487.74156915217816
488.3202564145967
488.89289411960146
489.45867729957814
490.016793137234
490.5664245550655
491.1067453229483
491.6369173703024
492.15610769957283
492.6634770061617
493.1581838029267
493.63938633795885
494.1062443839801
494.55792988680855
494.9936203045599
495.4125161460119
495.81383481154324
496.1967979815465
496.56064953841144
496.90464498852464
497.22806244724774
497.53021369330713
497.81043131282837
498.0680730947606
498.30252392496715
498.51320625373404
498.69957520411293
498.86113112539675
498.99741248334016
499.1080041308137
499.1925125161143
499.2505886216863
499.2819376581986
499.28629362492256
499.26343271954505
499.21318645342956
499.1354285050052
499.03007886168956
498.8970989868137
498.7365109709107
498.5483862127047
498.3328474357471
498.09006867791874
497.82028653736086
497.52378330412404
497.20088992942345
496.85198453829696
496.477499634964
496.0779207684272
495.65378334651075
495.2056783186348
494.73425353240293
494.2402241717438
493.72435093784674
493.1874401589807
492.6303415002395
492.0539409222179
491.45917462913894
490.8470160948623
490.21850848013594
489.5747334477347
488.9168257688198
488.24596573977243
487.5633712764656
486.8703134867383
486.168092446463
485.4580694159665
484.74165078830913
484.0202851387851
483.29547109371174
482.568745689386
481.84168808306
481.1159188805951
480.3931085132705
479.6749574807633
478.9631920359681
478.25956623313976
477.56585723749413
476.8838583014442
476.2153822692111
475.5622538657862
474.9263082133995
474.30939343032145
473.7133577166516
473.1400514084543
472.59131575885135
472.06898465857086
471.5748685294718
471.110764315178
470.678439080082
470.27961329864814
469.9159766336163
469.5891486198177
469.30071113598706
469.0521794858691
468.84499526617606
468.6805255959678
468.5600535819232
468.4847688644967
468.4557734565135
468.47405717328337
468.5404951128612
468.6558407327582
468.82071904730157
469.03562441875937
469.3009142877118
469.61679888939926
469.9833402281909
470.4004516044185
470.8678735227543
471.38518276152405
471.95179978564994
472.56696639639875
473.22975680633857
473.93907175291326
474.6936422335773
475.49201206025305
476.33255375610145
477.21346774092314
478.1327867996054
479.0883880346659
480.0779752189146
481.09909908259084
482.149165314886
483.2254371407308
484.3250454480364
485.4449932321125
486.5821675230916
487.7333389407778
488.89517933879534
490.06427125737866
491.2371334693184
492.41022996440967
493.5799862011023
494.742808555052
495.89508946870757
497.03321964016646
498.1536005897244
499.2526639168662
500.32689276458245
501.37281912164707
502.3870512909758
503.36628336100256
504.3073150361299
505.20705751680265
506.0625647600185
506.8710378512651
507.6298351468968
508.33647241085976
508.98864987301283
509.58426491257865
510.1214148652298
510.59839181932824
511.01368210732653
511.3660033846689
511.6543120933591
511.8778344998164
512.0360630772632
512.1287356086932
512.1558578210002
512.1176488345146
512.0145906103933
511.8473978598941
511.61704204281705
511.3247509730866
510.97197985848146
510.56043455266865
510.09202647926645
509.5688726094734
508.99328114094345
508.3677269819459
507.69486938103955
506.97752008867786
506.21863646853996
505.42129776640184
504.5886975264265
503.7241480941534
502.8310516207492
501.9128925245072
500.97323629971856
500.01569126621666
499.04390769952914
498.0615508426932
497.0722828525789
496.0797426829119
495.08752811616733
494.0991953852426
493.118228565976
492.14804001239344
491.19194723928587
490.25316572794463
489.3348070015317
488.4398558468634
487.57117280494094
486.7314605431504
485.92326811898704
485.1489852617656
484.4108332905479
483.7108614686123
483.0509511256694
482.4327858185117
481.8578771201586
481.327552186814
480.84295345176116
480.40503933275875
480.01458587447394
479.67218268031206
479.3782383631586
479.13299328620417
478.9365133445741
478.7887064599417
478.68932235706916
478.6379527772312
478.6340585284589
478.67695782954104
478.7658346683482
478.89975384092025
479.0776719206544
479.298441959712
479.5608314544623
479.8635230822584
480.2051154043712
480.5841562954489
480.9991370397691
481.44849944756413
481.9306515105177
482.4439740400162
482.9868182869842
483.5575293018395
484.1544513788231
484.77593548062464
485.4203418905691
486.0860532727059
486.7714719015667
487.47502052321676
488.1951510964796
488.93035502457684
489.6791618282082
490.44015707301327
491.21197150670554
491.99328501178695
492.7828344862269
493.5794060692346
494.38184882268087
495.1890684680041
496.0000297482213
496.8137475095207
497.6292927962813
498.4457966494549
499.2624540453048
500.0785060528548
500.8932545708267
501.70604426792937
502.51627534085435
503.3234055400743
504.12694138523057
504.926424854641
505.72140850228476
506.51147544517204
507.2962413135254
508.0753362123857
508.84843032458485
509.6152047261379
510.37537006714655
511.12864352580436
511.87473838916776
512.6133882343313
513.3443118657802
514.0672327612858
514.7818831897025
515.4879977980421
516.1853298076007
516.8736174943467
517.5526057517739
518.222030971293
518.881623966606
519.5311243105365
520.1702557948965
520.7987350984215
521.416269790955
522.0225409862979
522.6172296524834
523.1999993446728
523.7705053082219
524.3283927936536
524.8733044113671
525.4048768260479
525.9227440888046
526.4265390475132
526.9158840796053
527.3904014286995
527.8497125628703
528.2934353047941
528.7211808704002
529.1325704057474
529.5272319853084
529.9047956741746
530.2648972485011
530.6071752116721
530.9312807990201
531.236863777323
531.5235953996807
531.7911497517549
532.0392134030469
532.2674840302834
532.475677704119
532.6635230095346
532.8307617904248
532.9771607956044
533.1024970323377
533.2065605861615
533.2891660067244
533.350144015203
533.3893442139241
533.4066310467704
533.4018906122911
533.3750354008786
533.325991591778
533.2547103320335
533.1611658539773
533.0453448080316
532.907263905398
532.7469614704502
532.5644933858056
532.3599353216575
532.1333893098075
531.884975019861
531.6148296550856
531.323127556187
531.0100605878312
530.6758338568592
530.3206830783568
529.9448657038789
529.548652116208
529.132345035043
528.696264030954
528.2407542205065
527.7661751864995
527.2729116944608
526.7613667732295
526.2319613743683
525.6851383723747
525.1213621039643
524.5411202579668
523.9449126518438
523.3332573275143
522.7066899988679
522.0657634640227
521.4110514074569
520.7431390882983
520.0626248820113
519.3701283494554
518.6662697280649
517.9516908575157
517.2270499619565
516.4930165434266
515.750266188277
514.9994818010636
514.2413724543457
513.4766442680436
512.7060039749816
511.930171009043
511.1498699230335
510.36583167951414
509.578786115302
508.78946522364106
507.99860870319935
507.206938808919
506.4151919238242
505.6241087460848
504.83441810122855
504.04684695395116
503.26211271589995
502.4809331071469
501.7040076790784
500.93204076776135
500.1657318902961
499.4057596946101
498.6527941762544
497.90749798286765
497.1705190975389
496.44250121079705
495.72406350470374
495.0158110160147
494.318329587465
493.6321939043734
492.9579647012657
492.29618180431123
491.64735922975933
491.0119953687511
490.39057677664226
489.7835734285665
489.1914340943417
488.614583971818
488.053439894657
487.50838617980344
486.97979196665165
486.4680046071636
485.97335411194274
485.4961554744549
485.03669360668
484.5952432452659
484.1720494867773
483.7673454761295
483.3813460826936
483.01425490315387
482.66624729393976
482.3374839292789
482.028113460354
481.7382598958644
481.46803393308124
481.2175378527467
480.9868507465652
480.77604210731363
480.5851636040525
480.41425613281797
480.26334369563665
480.1324359326396
480.0215349759637
479.9306357799436
479.8597133591953
479.8087363125033
479.7776582460516
479.7664310476291
479.77499649731124
479.80328013054583
479.8511979943966
479.91866107926506
480.0055711588125
480.11181430308426
480.2372629038693
480.3818018244657
480.5452868811156
480.7275688210094
480.9284953319627
481.14789113537796
481.38557508818315
481.6413531326352
481.9150222012668
482.2063631509016
482.5151400331531
482.8411102280968
483.1840105356819
483.5435627866069
483.91947495715306
484.3114402252545
484.71913829640016
485.1422280636613
485.58035124797306
486.0331250457428
486.5001500936025
486.98101197623356
487.4752697698419
487.9824643986956
488.502111708448
489.0337020446906
489.57670201881405
490.13055195527306
490.6946699681405
491.2684427849439
491.85123410329976
492.4423910430954
493.04122667344825
493.6470331699636
494.25907538499234
494.87659332861386
495.4988047149897
496.12489668853726
496.754046215259
497.3854034564649
498.01808173704904
498.6511846416123
499.28380042509104
499.9149923785091
500.54380677930095
501.169281021508
501.790429946689
502.4062561696867
503.01574963610864
503.61789818609833
504.2116675481189
504.79603379576093
505.36995244862175
505.93238891806766
506.4823140193737
507.01870203188435
507.54053318784094
508.04679610462824
508.53649701063836
509.0086561136059
509.4623127343797
509.8965238323605
510.3103624762532
510.7029270902666
511.07335286252993
511.4207925351921
511.7444386166657
512.0435082398318
512.317265041659
512.5650059492864
512.7860674578246
512.9798361704926
513.145741758095
513.2832717565162
513.3919535918034
513.4713669731867
513.521136271681
513.54094245421
513.530510755998
513.4896197804741
513.4181059120136
513.3158588553557
513.1828256969706
513.019010502158
512.8244673037566
512.5993191979478
512.3437469085158
512.0579907776442
511.742348536939
511.39717747184886
511.02287687645514
510.6199207781882
510.1888384667149
509.73020843550825
509.2446630763712
508.7328955005182
508.1956623961904
507.6337850410988
507.0481462149608
506.4396854319182
505.8093812906823
505.1582575787886
504.4873665260962
503.7978237743349
503.0907883716648
502.36746199463363
501.6291008399828
500.8769988134084
500.1124943180055
499.33697437323815
498.5518588879463
497.75861299671476
496.958734869506
496.15377832898395
495.3453296300185
494.53501274753535
493.72449901239105
492.9154842549743
492.1097055664572
491.3089210639352
490.51491607617544
489.7294917650486
488.9544600761414
488.1916449969356
487.442881402451
486.7100114736532
485.9948831520019
485.2993441079853
484.6252465849386
483.9744304003123
483.3487167317076
482.7499168770437
482.179808018942
481.6401437879933
481.132638238446
480.65896269397524
480.22074450273965
479.81955455625246
479.45690782071273
479.134254886781
478.85296457398397
478.6143481476013
478.4196201682575
478.2698941735604
478.16619344230224
478.1094377970854
478.100441541815
478.13989199470575
478.22836092069144
478.3662987320097
478.5540072710815
478.7916719706829
479.0793112682224
479.4168183460075
479.80392686669813
480.24021217470045
480.72509512982845
481.25783334094035
481.83751723435034
482.4630796853175
483.13329541682157
483.8467724736916
484.60195747087647
485.39714816700916
486.23048294457874
487.09993758996944
488.00335116089633
488.93841336943933
489.9026857327811
490.8935951294198
491.9084457523153
492.9444275240181
493.99862086509887
495.0680065041848
496.14946922287953
497.2398240541473
498.33581905965684
499.43414971041096
500.53148045879345
501.6244605839634
502.7097299940302
503.783929961263
504.84372302320855
505.8857912725267
506.9068608697379
507.90372427996107
508.87323386756344
509.81231899276924
510.7180155456401
511.5874665128998
512.4179393365094
513.2068469437601
513.9517350589891
514.6503097857418
515.3004554273589
515.9002316460806
516.4478780949806
516.9418307370057
517.3806994662747
517.7632831490162
518.0885936775866
518.3558878793787
518.5646688378808
518.7146766304116
518.8058745873836
518.838461313366
518.8128671236522
518.7297370294382
518.5899548331896
518.394618860195
518.1450391416932
517.8427517414945
517.489491385939
517.0871899760091
516.6379414271948
516.1440069027593
515.607803484945
515.0318672655403
514.4188739259441
513.771603159328
513.0929477963816
512.3859000720543
511.65353950677485
510.89902046830764
510.12556175394536
509.3364230268149
508.5348921206133
507.72425913806615
506.9078100979996
506.08880286578943
505.27046282936766
504.4559767017951
503.648462626499
502.8509758548485
502.0664845491471
501.2978616445824
500.5478819614772
499.8191962510078
499.1143301828392
498.4356820380276
497.7854951520505
497.16587512963775
496.57876198220373
496.02594042647
495.5090404543098
495.0295193150781
494.5886662704255
494.1875950001364
493.8272633192209
493.50844798239916
493.23175729308133
492.99764677804296
492.80639632359834
492.6581383915418
492.55284314662356
492.49033031767135
492.47028601726527
492.49225831663637
492.55566658330514
492.6598178696281
492.80389967138626
492.98699261363856
493.20808118147806
493.4660624914511
493.7597484747931
494.0878812074354
494.4491505897069
494.8421857786598
495.265572779354
495.71786303570804
496.1975730172298
496.7032119933183
497.2332702193598
497.78624187590583
498.3606235934258
498.95492805294396
499.5676840330179
500.1974446982983
500.8427954461521
501.5023501942259
502.17475562532735
502.85870122803414
503.5529177586834
504.25618156190427
504.9673292619134
505.6852546719672
506.4089030865431
507.1372805139923
507.8694539930065
508.6045449505656
509.3417375535433
510.0802737894821
510.819448340128
511.558614278817
512.297184224578
513.0346226277946
513.7704424680801
514.5042063239462
515.2355206885635
515.9640567615521
516.6895368703745
517.4117189132505
518.1303824718937
518.8453228194396
519.5563595868052
520.2633406883368
520.9661284656586
521.6645942346112
522.3586300588513
523.0481251555942
523.7329813284219
524.4130976619036
525.0883636535752
525.7586607677466
526.4238638868453
527.0838429832875
527.738469659725
528.38759576293
529.0310764471598
529.6687501004424
530.3004495532373
530.9259899048072
531.5451589097619
532.1577272161312
532.7634369706795
533.3620036848345
533.9531247348019
534.5364684771033
535.111692151894
535.678429541713
536.236294276871
536.7848921211747
537.3237963393636
537.8525668997545
538.370743349918
538.8778508952594
539.373402176704
539.856890271418
540.3278035952217
540.7856256114956
541.2298126832665
541.6598308214315
542.0751398943561
542.4751933203637
542.859446478724
543.2273474833078
543.5783519357543
543.9119201341523
544.2275187121174
544.5246200406891
544.802706050953
545.0612698604201
545.2998128127102
545.5178502509146
545.7149172671675
545.8905613450144
546.0443569456631
546.1758893747283
546.2847669973697
546.3706268892017
546.4331164149779
546.4719139810852
546.4867234196038
546.477281579792
546.4433506791074
546.3847237541997
546.3012257067447
546.1927077037968
546.0590545721218
545.9001878311166
545.7160511363336
545.5066349686082
545.2719486758336
545.012047073402
544.727013195884
544.416967211621
544.0820686806214
543.722510065996
543.3385189525562
542.9303579341298
542.4983244073038
542.0427546979809
541.5640128310886
541.062505465995
540.5386727779262
539.992983681278
539.4259417621489
538.8380758164891
538.229947765227
537.6021538816822
536.9553151065826
536.2900825588096
535.6071298013418
534.9071625945637
534.1909134206752
533.4591315739833
532.7125839377742
531.9520687871735
531.1784013482601
530.3924212904822
529.5949738745297
528.7869215955426
527.9691426171926
527.1425270892398
526.3079800545902
525.4664134969696
524.6187426510936
523.7658865306163
522.9087728764813
522.0483321643031
521.1854982274031
520.3212001343059
519.4563671540902
518.5919250334
517.7288010919547
516.8679119357713
516.0101709372994
515.1564715799509
514.3077123579623
513.4647781555555
512.6285371335581
511.79984189119654
510.97952834401974
510.16842564784844
509.36733560265014
508.5770514535594
507.79835055425394
507.0319805871646
506.27866982537455
505.5391262827698
504.8140368911116
504.10407346622833
503.4098767720478
502.7320713898399
502.07125669479535
501.42800874833307
500.8028822653637
500.19639734013896
499.6090589141334
499.0413412577187
498.49368773492586
497.9665413118829
497.46030322197004
496.9753461874425
496.5120253091324
496.0706715527742
495.6516007457359
495.25510093563577
494.8814328665098
494.5308303443224
494.20350700312815
493.89966096401656
493.6194622164094
493.3630596158126
493.1305878541074
492.92215261941385
492.73784202647755
492.57771603202787
492.44181972892125
492.3301769557716
492.2427881847944
492.17965252337603
492.1407440608243
492.1260166986086
492.1354000200657
492.168812501532
492.2261506911704
492.30729149824674
492.4121009275145
492.54042320114445
492.6920807985718
492.86688536411566
493.06462666426614
493.2850834524504
493.52801253356546
493.7931530750481
494.08022652520407
494.38893418017886
494.7189547379861
495.06995273124153
495.44157377402075
495.8334399011678
496.24515350601985
496.676299089137
497.126440633095
497.5951101810837
498.0818291427027
498.5860901288738
499.1073718169614
499.6451276762261
500.19878779127464
500.76775857183105
501.3514203035937
501.9491312472541
502.5602274006524
503.18401579012357
503.8197853632776
504.4667983450257
505.12428811921677
505.7914723924546
506.4675315215025
507.1516328127031
507.8429133814737
508.5404893023319
509.2434560473288
509.95088469102916
510.6618291998396
511.3753186037594
512.0903667739816
512.8059691790801
513.5211019373786
514.2347296812795
514.9457961286266
515.6532322194774
516.355964215925
517.0528957072588
517.7429311939435
518.4249647200282
519.097890633771
519.7605858521661
520.4119290619913
521.0508046865867
521.6761048849736
522.2867273861291
522.8815711880892
523.4595563181553
524.0196109081705
524.5606713712984
525.0817022834209
525.5816924490832
526.0596488725347
526.5146125433405
526.9456392905275
527.3518154605127
527.7322668388184
528.0861523507099
528.4126664980313
528.7110350082826
528.9805409793254
529.2204984680901
529.4302762444654
529.6092908967973
529.756995284846
529.8729038983859
529.9565854952567
530.007662193001
530.0258083419681
530.0107469333624
529.9622566596646
529.8801700266307
529.7643800132637
529.6148289195202
529.4315164896205
529.214505721647
528.9639156160366
528.6799159259725
528.3627392721581
528.0126824262636
527.6301057153942
527.2154217538491
526.7691039456397
526.2916820036901
525.7837286809016
525.2458748275686
524.6788158505484
524.0833054706856
523.4601432198351
522.8101882285322
522.1343710427785
521.4336752581762
520.7091328130031
519.9618194020197
519.1928538289397
518.4033901956901
517.5946290635944
516.7678105117351
515.9242329615831
515.065241134659
514.1922138703529
513.3065865529463
512.4098185283982
511.5034058855724
510.58888268844584
509.667819575057
508.74183295897535
507.8125701282239
506.8817448793955
505.9510992750133
505.0224052488894
504.09746628718057
503.17811039495535
502.2661809275182
501.36354256036117
500.47208054109035
499.5936977245968
498.730298431906
497.88380496334423
497.05613460418294
496.249218069548
495.4649763467244
494.70531262570915
493.97212574150825
493.26729273103496
492.5926708924199
491.9500886869196
491.3413297349444
490.76814697841473
490.2322415494961
489.73527002349925
489.2788208671207
488.86442118099245
488.49352568960603
488.16750556945465
487.8876547062366
487.65517856292695
487.47117206507704
487.33663910435627
487.2524596719964
487.2193985954022
487.23810127154195
487.3090877255677
487.432738374491
487.6092931197855
487.838839743147
488.12132013698925
488.4565261628425
488.84408293681616
489.2834565731075
489.7739559863583
490.3147178939415
490.9047207936591
491.5427669297467
492.22748229564877
492.9573390209878
493.7306437219811
494.5455309643547
495.39998139240197
496.29182539830776
497.21875013794653
498.17828776899063
499.1678416492397
500.1846783918024
501.2259382319043
502.2886527073632
503.3697433851365
504.46603662354687
505.5742745586504
506.6911223889475
507.8131872443957
508.93703329028847
510.05920197872996
511.1762200042641
512.284608050026
513.380894309769
514.4616259270329
515.523389288479
516.5628237992274
517.5766289792069
518.5615797799179
519.5145390569351
520.4324825801417
521.3125037239024
522.1518239975331
522.9478158318257
523.6980069384028
524.4000747382283
525.0518808220097
525.6514714845158
526.197079372061
526.6871079798441
527.1201490562902
527.4950245904885
527.8107953341153
528.0667605637946
528.2624623730804
528.3976790136718
528.4724334456827
528.4869578490519
528.4417098111436
528.3373835142779
528.1748876559038
527.9553733853609
527.6802142125529
527.3510034589129
526.9695318101595
526.5377706976208
526.0578655643977
525.532096883085
524.9628894628764
524.3528158232391
523.7045764018898
523.0209940092411
522.3050075775917
521.5596544272112
520.7880475734428
519.9933632968017
519.1788392235159
518.347741536848
517.5033669922027
516.6490075649185
515.7879521910329
514.9234822048855
514.0588388510324
513.1972152841716
512.3417489876074
511.49549953471484
510.66146001268487
509.84250806084395
509.0414232011947
508.26086332509544
507.5033816029165
506.7713877606361
506.06715631707414
505.39281386542814
504.7503382704008
504.1415434251306
503.56809123286115
503.0314781957103
502.53304488029244
502.07396677321276
501.6552459006129
501.2777293442668
500.9421024154328
500.64889146271736
500.39846738132854
500.19105192742023
500.0267114835431
499.90537985367024
499.8268531592551
499.7907961728096
499.7967469133808
499.8441213440577
499.9322380091967
500.06031924695486
500.2274905054758
500.4327907382223
500.67519173712185
500.95358915708016
501.2668130659825
501.6136425528148
501.9928136989172
502.4030273745302
502.84295024651954
503.3112396783967
503.8065311652242
504.327456084574
504.8726481026545
505.44074481097397
506.0303999732263
506.6402822837542
507.2690844776212
507.91551865074376
508.57831527089604
509.2562455511141
509.94811704697725
510.6527732962305
511.36909953377574
512.0960191666999
512.8325074184447
513.5775828204374
514.3303094865531
515.0897903044195
515.8551750402683
516.6256639974549
517.4005007534909
518.1789670486774
518.9603996676062
519.7441547827727
520.5296420436149
521.3163041572594
522.1036341652086
522.8911735008381
523.6784773732447
524.4651188988748
525.2506815681289
526.0347686390656
526.8169923555153
527.5969692287346
528.3743412981847
529.1487602897213
529.9198803826307
530.6873616803948
531.4508514661088
532.2099868416689
532.96439471426
533.713691640042
534.4574925455282
535.1954089023104
535.927052086774
536.6520309586083
537.3699456233361
538.0803816815982
538.7829092696791
539.4770889096555
540.1624624187872
540.8385595899713
541.5048920871194
542.16095841161
542.8062513251331
543.440241662309
544.0623929753824
544.6721631991194
545.2689867185554
545.8522958095447
546.4215180995313
546.9760741135213
547.5153837049002
548.0388505408054
548.5458902787533
549.0359150676251
549.508344286703
549.9625822503262
550.3980525307785
550.8141776114904
551.210391334821
551.5861380467842
551.940880562756
552.2740907958812
552.5852511913688
552.8738603021311
553.1394339001156
553.3815149460628
553.5996529337536
553.7934224208243
553.9624239569795
554.1062785945888
554.224628859134
554.3171484155707
554.3835342733796
554.4235076353339
554.4368124991474
554.4232360773141
554.3825855963772
554.3146999923728
554.219443893013
554.0967124772817
553.9464362720029
553.7685683809453
553.5631044174169
553.3300719392466
553.0695264811989
552.7815627380305
552.4662994281492
552.12389696145
551.7545421750715
551.3584570724488
550.9359009849193
550.4871617310787
550.0125576540302
549.5124394983073
548.987198789033
548.4372521811741
547.8630454378656
547.2650661487381
546.6438258565436
545.9998617168706
545.3337468021828
544.6460785190588
543.9374867099075
543.2086285225645
542.460181037733
541.6928535338429
540.9073800578867
540.104516371241
539.2850388850545
538.4497390713437
537.5994418420534
536.7349824074322
535.8572270917396
534.9670437308665
534.0653265736364
533.1529840440094
532.2309264610698
531.3000886755025
530.3614133842102
529.4158521103408
528.46436386333
527.5079137208712
526.5474737233484
525.584012708762
524.6185034850432
523.6519212369234
522.6852332193052
521.7194080836359
520.7554121216584
519.7942033692822
518.8367432656758
517.8839756500263
516.9368341636767
515.9962496195802
515.0631357134316
514.1383944538737
513.2229106871713
512.3175577009656
511.42317647120944
510.5406006595232
509.67064671044574
508.81411310868594
507.97176657559976
507.14434544451603
506.3325739031725
505.53715458473545
504.75875248855414
503.99802264344453
503.25559200947345
502.5320546928795
501.82798017773587
501.14390628107776
500.4803476103981
499.8377887437905
499.21668838760553
498.6174748689422
498.04055280188174
497.48629447326965
496.95504657753537
496.4471283810668
495.96282544227705
495.5023963386901
495.0660729039986
494.6540671972058
494.26655889620173
493.90370677106216
493.5656360490442
493.2524565130275
492.9642522556495
492.70107575441915
492.4629659538675
492.24993142538864
492.0619640879482
491.89902441059684
491.76105716477605
491.6479984375493
491.5597543067677
491.49621894703273
491.457264286913
491.4427471094655
491.4525096240858
491.48636908011645
491.5441401269393
491.62560682678804
491.73054267369093
491.8587108397398
492.00985130860886
492.18369417735175
492.37995536666654
492.59833447851
492.83852578886376
493.10020080450056
493.3830192197651
493.6866310806477
494.010672445511
494.3547587217052
494.7184888075008
495.10144482594933
495.50319595702746
495.92328911531956
496.3612593439061
496.8166225346219
497.2888834941233
497.77753101487394
498.2820242313219
498.80181830068994
499.3363420462895
499.8850085213475
500.4472081290754
501.0223083240513
501.60966646688325
502.2086033308242
502.81842468470904
503.43841443238404
504.06783889700756
504.70594027960516
505.3519344655997
506.00501994932597
506.6643648668544
507.32911356466246
507.99840639332086
508.6713495291386
509.3470330858165
510.0245273591754
510.70288803831767
511.38114845881256
512.0583250075183
512.7334227025266
513.405430060004
514.0733206038404
514.7360610185527
515.3925952646936
516.0418659162727
516.6828093669811
517.3143466802147
517.9354050333603
518.5449020725836
519.1417631819893
519.7249169595343
520.2933041447002
520.8458647342708
521.3815445488839
521.899308358703
522.3981423492977
522.8770547179638
523.3350741422057
523.7712460600364
524.1846574819216
524.5744093226692
524.9396366382044
525.2795135053465
525.5932382073262
525.880055351166
526.1392516039889
526.370155765097
526.5721408246087
526.7446258077432
526.8870862415572
526.9990426492941
527.0800751434527
527.1298247720265
527.147986230357
527.1343069963792
527.0885948700105
527.0107033271843
526.9005470912913
526.7580953549937
526.5833822245039
526.3764995191763
526.1376003108029
525.8669046431024
525.5646855477796
525.2312878652489
524.8671121460667
524.4726294240428
524.0483699853801
523.5949077290418
523.1128793678597
522.6029861280399
522.0659870173669
521.5027011396434
520.913999242694
520.3008261501142
519.6641819088767
519.0051385129642
518.3248069127491
517.6243344595404
516.9049148279325
516.1677820120568
515.4142101571691
514.645525862698
513.8630915490463
513.0683256290018
512.2626853407805
511.4476536558125
510.62474949176516
509.7955109874537
508.9615218728605
508.12440690576864
507.28581418326144
506.44744996852677
505.6110462462717
504.7783724942252
503.9512083389898
503.13135781102824
502.3206484271404
501.52090855523693
500.733981759973
499.961712667088
499.20595464841125
498.46856659297026
497.7513943282885
497.0562847708006
496.38507378104356
495.7395760712332
495.1215858262909
494.5328638847531
493.97514207689346
493.4501229099866
492.9594704454344
492.50480770879085
492.08768744576435
491.7096172067357
491.3720405840675
491.0763292836202
490.823779352772
490.6156072753833
490.4529394571844
490.33680816671944
490.26814307913
490.2477759638694
490.2764214093543
490.3546840932589
490.4830422654681
490.6618445276378
490.89131567123246
491.17153227910654
491.50243804107475
491.88382885581694
492.3153449473937
492.7964874327103
493.3265918443041
493.9048394432558
494.53025130644085
495.20169171607387
495.9178634692985
496.6773059676974
497.4784070928582
498.3193916382897
499.1983389182335
500.113174964079
501.06167636001067
502.04149024646705
503.0501245971215
504.0849611291202
505.1432624992901
506.222171642408
507.3187292998084
508.4298746209781
509.55246397773186
510.6832729152334
511.81899847124373
512.9562925152836
514.0917672991192
515.2220104258547
516.3436071595659
517.4531461178173
518.5472299383313
519.6224819285917
520.6755702840867
521.7032126317486
522.7021935638803
523.669381925787
524.6017324274005
525.4963084549058
526.3502932364055
527.1609958914714
527.9258830065289
528.6425722444783
529.3088379168963
529.9226283193792
530.48206205507
530.9854556977525
531.4313017312147
531.8182774554848
532.1452496388142
532.4113214384729
532.6158373895656
532.7583820143892
532.8387808234979
532.8570949480921
532.8136025053395
532.7088079523768
532.5434245339801
532.3183867267281
532.0348669056538
531.6942484511848
531.2981516391861
530.8483874506481
530.3469459754036
529.795992734571
529.1978241767736
528.5548891439208
527.8697626671288
527.1451600334497
526.3839038288647
525.5889247804535
524.7632530014452
523.909997658789
523.0323414210169
522.1335192024488
521.2167965104812
520.2854693592504
519.342844356269
518.3922144461224
517.4368631427309
516.480040619764
515.524960091484
514.574783899016
513.6325949676552
512.7013994679694
511.78410606334785
510.88352796445497
510.00236400477144
509.1431849600001
508.3084448157653
507.50045374257746
506.7213761841214
505.97323193544435
505.2578872817293
504.57706254693136
503.9323078614758
503.32500825136094
502.756389394053
502.2275154706611
501.739292369284
501.2924541378028
500.8875894949975
500.5251253287069
500.205332734682
499.92834675803664
499.6941406750495
499.50257078150867
499.3533650429289
499.2461189617566
499.18031353406997
499.1553159655046
499.1703960648145
499.22472534695413
499.31739161391647
499.4474005196789
499.61368594651964
499.8151269530522
500.0505428493792
500.3187100568796
500.6183612706477
500.9481974562309
501.30689965397414
501.69313398111166
502.10555630226315
502.54282532798345
503.0036000845852
503.48656120139765
503.9903989992385
504.5138229499054
505.0555660768976
505.61438427337066
506.1890658801347
506.77843191347614
507.3813511942458
507.99672442235027
508.62350059216317
509.26066891423886
509.90727000713247
510.5623872364652
511.2251487505562
511.894724673185
512.5703372336372
513.2512510485715
513.9367742739157
514.6262641570775
515.3191107848315
516.0147625301081
516.712694750942
517.4124333876711
518.1135461582912
518.8156408045751
519.5183456464863
520.2213026427276
520.9241707262896
521.6266197718089
522.3283262729071
523.0289883145686
523.7283141191068
524.4260192904123
525.1218303821624
525.8154574005126
526.5066139999101
527.1949911782249
527.8802633618336
528.5621096464556
529.2401981480905
529.9142061289116
530.5838014798043
531.2486379934401
531.9083619668595
532.5626062412802
533.2109913989636
533.8531207729336
534.4885802922878
535.1169386243379
535.7377410379086
536.3505276580792
536.9548127054477
537.5500922918073
538.1358567510085
538.7115791587166
539.2767171347343
539.8307234516399
540.3730238295988
540.9030494338781
541.4202124923113
541.9239213011084
542.413579772988
542.8885847540321
543.3483430863554
543.792242678797
544.2196824542418
544.6300717153407
545.0228121535034
545.397323413081
545.7530159894892
546.089318763494
546.4056781759072
546.7015465924534
546.976392426512
547.2296904958081
547.4609473568414
547.6696763355766
547.8554075298025
548.0177064753198
548.1561491117582
548.2703428485329
548.3599102907174
548.4244901712123
548.4637644361613
548.4774307262301
548.4652208446304
548.4268950473062
548.362240744399
548.2710754623309
548.1532496895221
548.0086476143191
547.837178990844
547.6387949001967
547.4134729061063
547.1612284389778
546.8821085997517
546.5762034389044
546.2436288136136
545.8845419858525
545.4991264137693
545.0876092847152
544.6502439645774
544.1873207629761
543.6991732454343
543.1861605503697
542.6486824478378
542.0871680177538
541.5020818062052
540.893918869092
540.2632107312397
539.6105160567067
538.936426513754
538.2415527304469
537.5265472764328
536.7920905800736
536.0388922922192
535.2676838336831
534.4792194834115
533.6742817327621
532.8536668905404
532.0182100641624
531.1687533002162
530.3061640441989
529.4313228715157
528.5451220639684
527.6484772228706
526.7423125888508
525.8275704921039
524.90519889082
523.9761454440924
523.0413777143078
522.1018617769516
521.1585649281697
520.2124671281221
519.264535287423
518.3157456789908
517.3670647751292
516.4194563392887
515.473893097127
514.5313248091069
513.5926987704103
512.6589474157635
511.7309890301105
510.8097417198133
509.8961003281974
508.990952827451
508.0951618037284
507.20957215418935
506.3350121834366
505.47228382788177
504.62217701902574
503.78545125454366
502.9628501171529
502.15509409760284
501.3628756439515
500.58685634122185
499.82768377686614
499.0859603172632
498.3622819421659
497.65720278514806
496.97126321705093
496.3049744131221
495.6588183775212
495.0332523862576
494.4286981064431
493.84556143500333
493.2842175169585
492.74500882618037
492.2282630678629
491.73426297531
491.263281619936
490.81556095557397
490.3913122560134
489.9907295889038
489.61397708698394
489.2612091824253
488.9325493096101
488.6280993209103
488.3479512164515
488.09215722591927
487.86075440541936
487.653765077556
487.47118862175915
487.31302185328053
487.179224696889
487.06975138593754
486.9845378861921
486.92349367363073
486.8865327192727
486.87354119360674
486.8843955099784
486.9189561170354
486.9770744806644
487.0585758613268
487.1632790973235
487.2909856663089
487.4414883949666
487.6145581458378
487.8099632764316
488.02744976849345
488.2667585054989
488.52760749856026
488.80970469913376
489.11274983083655
489.4364121159165
489.78035823808113
490.1442321388263
490.5276589015714
490.9302463245617
491.35158195032346
491.79123221867764
492.2487481722811
492.72366026558893
493.2154886371298
493.7237206676172
494.2478212683451
494.78723433630415
495.3413799570422
495.9096604403331
496.4914467536482
497.0860891692803
497.69290151417533
498.3111781526127
498.9401892582918
499.57917626167523
500.2273628454401
500.8839419648197
501.54807609501626
502.2189040000015
502.89553001166524
503.57705514623404
504.2625428056007
504.9510306023714
505.64154003106273
506.33305992234705
507.0245672314021
507.7150151487698
508.4033410439082
509.08846803646185
509.7692956694651
510.44471697568764
511.1136160378835
511.77486135480024
512.4273212141628
513.0698440336839
513.7012801905267
514.3204775048566
514.9262900461855
515.517576233507
516.0931969591824
516.6520269021406
517.192950525429
517.7148668614242
518.2166987442745
518.6973824579654
519.1558858703366
519.5912004417982
520.0023440922249
520.3883772003516
520.7483836882107
521.0814935069609
521.3868634710633
521.6636971816638
521.9112385380271
522.1287803940849
522.3156643292612
522.471284647256
522.5950878375332
522.6865763871573
522.7453080304241
522.770908127785
522.7630513585253
522.7214759213199
522.6459845380508
522.5364212171448
522.3926999533088
522.2147891418382
522.002715399449
521.7565803215233
521.4765311958818
521.1627928769317
520.8156559497171
520.4354693691514
520.0226528939911
519.5776723883133
519.1010654686329
518.5934212935535
518.0553887531921
517.4876980110615
516.8911167059584
516.2664851415984
515.6146948425276
514.9367044385854
514.2335470642898
513.5063123507992
512.7561310936779
511.9841770098145
511.1916656358401
510.37985472943905
509.5500461007909
508.7035956044613
507.84190310614906
506.9664218567883
506.0786436585724
505.1800900447765
504.27232477134476
503.3569328970609
502.4355427972972
501.50983040513916
500.5815105051139
499.65233914763144
498.7241163943877
497.79866766643335
496.8778493985405
495.9635262527868
495.0575941946053
494.1619664567216
493.2785683581756
492.40934085496383
491.5562177471665
490.72114639223344
489.90607334823534
489.11294317533867
488.34369269388543
487.6002428417047
486.88449475304236
486.19832549835235
485.5435768396513
484.922072177544
484.3355808105023
483.78584325478863
483.27453274518
482.80326890582563
482.3736159976229
481.9870591638282
481.64501330940254
481.34881214295984
481.09969721047565
480.8988156622258
480.74720700339003
480.64580298608234
480.5954253681105
480.59676412518075
480.6503952794772
480.7567509180911
480.9161377596568
481.1287167943882
481.39449207288345
481.71331942369903
482.0849002792269
482.5087783971595
482.98433722499624
483.51078690260687
484.0871780303003
484.7123852964033
485.3851246376318
486.1039360800592
486.8672044816804
487.673139529354
488.51979352097356
489.405064582806
490.3266920422017
491.2822789170976
492.26928473813706
493.2850346987437
494.32672305305044
495.39142816020944
496.47610858426816
497.57762165648336
498.69273171192765
499.8181254793518
500.9504149537367
502.08615839868816
503.22187089998096
504.3540398427887
505.47916321688393
506.5937276637152
507.6942372576611
508.77722510023335
509.83925622914046
510.8769654938188
511.88705167099545
512.8662908564709
513.8115580227345
514.71983254704
515.588229344073
516.4139943511027
517.1945298091374
517.9274032965596
518.6103314630833
519.2412148349572
519.8181361644341
520.339381382847
520.8034241185262
521.2089081748908
521.5547000028872
521.8399115970002
522.0638992713237
522.2262691512948
522.326874142622
522.3658000894759
522.3433602885931
522.2600959647724
522.1167673514154
521.9143683185514
521.654121131844
521.3374778101972
520.9661151364254
520.5419055737674
520.0669005588353
519.5433170523621
518.9735226110452
518.3600208083604
517.7054656287345
517.0126309212135
516.2844205144606
515.5238380135229
514.7339732313658
513.9179987533685
513.079143970788
512.2206994396068
511.34598378281726
510.45833443365393
509.56109828108873
508.65760269706703
507.7511529056979
506.8450230817851
505.94243928970735
505.0465675850032
504.16048743019815
503.2872007826386
502.4296026455344
501.5904786955253
500.77250166454763
499.97820898928376
499.2100099736469
498.47016996388777
497.7607933222411
497.08384224619505
496.4411129142827
495.8342477663917
495.26472478682985
494.7338411821694
494.24273932449114
493.7923853359633
493.38359014323817
493.0169963973436
492.69307926313826
492.4121697967139
492.17443966310594
491.97991050509296
491.8284616162074
491.7198293581337
491.6536333309743
491.62936370998415
491.6463930983209
491.70398639073113
491.8013108822195
491.9374400534506
492.1113685808534
492.3220165886705
492.56823169215045
492.8488063809424
493.1624754843046
493.5079264340834
493.88382237141366
494.28880109856703
494.72147826864284
495.1804656060265
495.6643713944373
496.1718116343108
496.7014032898814
497.25178767605445
497.8216228418033
498.40958634464425
499.01439251982663
499.6347739981245
500.2695107895571
500.91741950036953
501.57735960844724
502.2482349130522
502.9289965732884
503.6186391370704
504.31621378690727
505.0208150610702
505.7315913942355
506.44772908441195
507.16847754394496
507.89312860436684
508.6210067045406
509.351496067659
510.08402650439996
510.818074835112
511.5531488765937
512.2888021437593
513.0246425391473
513.7603064118163
514.4954474330682
515.2297445278757
515.9628743174105
516.6945330987344
517.4244320700208
518.1522968585635
518.8778559108728
519.6008526686842
520.3210290287419
521.0381194677802
521.7518490117538
522.4619350797445
523.1680783575034
523.8699777769166
524.5673327227154
525.2598416831072
525.9471951777524
526.6290647281775
527.3051140511191
527.974986703042
528.6383093369689
529.2947063742471
529.9437737122145
530.5850987698199
531.2182458069126
531.8427612046743
532.4581811462865
533.0640132487353
533.6597621038317
534.2449200098517
534.8189644613832
535.3813578210365
535.9315557356242
536.4690047540528
536.993144313574
537.5034064820122
537.9992266834498
538.4800259262595
538.9452278835134
539.3942604535165
539.8265463730575
540.2415289266195
540.6386385212844
541.017320360786
541.3770203346319
541.7171969930587
542.0373336954733
542.336913734277
542.6154434128366
542.8724356579693
543.1074198001071
543.3199579256601
543.5096198134183
543.6759950183506
543.8186960562375
543.9373549749193
544.0316374759077
544.101217649267
544.1458006383607
544.1651234189994
544.1589447798947
544.1270505101586
544.0692474892871
543.9853816850856
543.8753189454497
543.7389542693699
543.5762187269174
543.3870732869142
543.1715181443498
542.92957573008
542.6612954385192
542.3667669466638
542.0461050793149
541.6994586805995
541.3270083858345
540.9289688571168
540.5055822064172
540.0571288117649
539.5839295706625
539.086317515199
538.5646660089565
538.0193773575263
537.4508779767783
536.8596331467094
536.2461421171392
535.6109223661779
534.954528709722
534.2775372999137
533.5805580615425
532.8642230567401
532.1291967742628
531.376157774549
530.6058085267
529.8188897667491
529.0161555700003
528.198376765376
527.3663462881356
526.5208779677305
525.6628054146734
524.7929764832435
523.9122608647918
523.0215358073133
522.1216825339122
521.2136088259234
520.2982279576831
519.3764529090312
518.4492122721307
517.5174443949678
516.5820873173531
515.6440816583356
514.7043735796972
513.7639090288225
512.8236256801653
511.884471220689
510.94738239681294
510.01328584150673
509.0830987083691
508.1577336914036
507.23809321911267
506.32507023227765
505.41954908554254
504.5224044398366
503.6344782622518
502.75660704021954
501.8896074221135
501.0342773232135
500.19140156235676
499.36173130507444
498.5460095201115
497.7449527509639
496.95925041915456
496.1895706742238
495.4365510140993
494.7008041606913
493.98291955120067
493.2834562191397
492.6029510336707
491.941907291048
491.30081189059626
490.6801221701028
490.08025710916917
489.5016212936462
488.944578647853
488.40947443735894
487.896628963666
487.406331441489
486.93884484801436
486.4944018515625
486.0732162299173
485.67546810561686
485.3013175933196
484.9509032457576
484.62432509476236
484.321669117296
484.04300778045496
483.78838118404855
483.55781538326545
483.35130772421434
483.1688473092043
483.0103961979707
482.87589230379
482.76526303916165
482.67841713425094
482.6152541037535
482.57564735059213
482.5594599746018
482.5665541463359
482.5967612222365
482.6499063797074
482.7258002031276
482.8242368968992
482.9450121997379
483.0878974992286
483.25266203659163
483.4390556838172
483.6468134046337
483.8756638452663
484.1253247981444
484.39550080248637
484.68588054344804
484.9961540379456
485.32599495953565
485.6750625038827
486.0430098686716
486.4294686213103
486.8340546559657
487.256380725488
487.6960318928116
488.1525823740242
488.62558814174145
489.1145904980099
489.6191196810959
490.13868329584477
490.67277453158084
491.22085835574484
491.7823794980416
492.3567705024455
492.943433599109
493.5417575655183
494.15110623432383
494.770818136811
495.40020824055296
496.03856975046995
496.68517618020985
497.3392725143937
498.0000751110444
498.6667914893983
499.33858562159105
500.01460872290716
500.69398639964027
501.37582138150026
502.0591985171817
502.7431746338341
503.4267882213367
504.10905378886423
504.78896943728785
505.4655202937845
506.13767124553857
506.804381642127
507.4645874171603
508.11721387865754
508.7611795843378
509.3953850306191
510.01873651998005
510.6301329487946
511.22846791796593
511.8126406426696
512.3815450193064
512.9340960108598
513.4692102978784
513.9858176106808
514.48286339836
514.9593028224275
515.4141210194247
515.8463206466785
516.2549334855305
516.6390233703374
516.9976782930545
517.3300242921364
517.635210742867
517.9124325741026
518.1609305736395
518.3799741457699
518.5688830954667
518.727025125239
518.853813096844
518.9487262585343
519.0112878466382
519.0410797029652
519.0377435246978
519.000977785688
518.930538923041
518.82623126749
518.6879229058019
518.5155392367054
518.3090538552501
518.0685207638136
517.7940409927857
517.4857815739583
517.1439723756417
516.7689096380593
516.3609619841304
515.92055474579
515.4481719488854
514.9443604569982
514.4097254522858
513.8449370154597
513.2507125728378
512.6278520596268
511.97720792865323
511.2996838184228
510.59627484364046
509.868025279525
509.1160393759927
508.34145056611766
507.5454512958243
506.72928073131885
505.89422069734945
505.0416018086492
504.17280901798387
503.28927370674785
502.3924719560397
501.48392451197896
500.5651897757752
499.6378628222321
498.70357603944984
497.7640058278817
496.82086363374947
495.87591770840487
494.93097587706035
493.9878840149628
493.0485248682759
492.11479738516647
491.1886267407077
490.271956788232
489.3667490230798
488.47499032013184
487.5986700910902
486.73978810546066
485.9003379688447
485.08231428724145
484.2877175572352
483.51852844023
482.7767146293987
482.064222039113
481.38296788623546
480.73484005930436
480.1216829086939
479.54531567729157
479.0074939963726
478.5099235267343
478.0542471138588
477.6420316982548
477.2747702847738
476.9538771807657
476.68067659291506
476.4563999887109
476.2821703352943
476.15901050207776
476.087810133967
476.0693539196247
476.10429553841817
476.1931428190459
476.3362693705215
476.53390026881453
476.7861068475852
477.09281287212184
477.45377285336167
477.8685859396241
478.3366752616548
478.85729407696465
479.4295236897354
480.0522697898311
480.7242748898047
481.44410093788713
482.210141153036
483.02061068092996
483.8735509941592
484.7668415840633
485.69819712317457
486.6651874465389
487.6652278934211
488.69558580561073
489.753401139843
490.8356905572644
491.93934810857223
493.0611577188632
494.19779085423596
495.3458419580278
496.5018208762279
497.6621676302876
498.82327856242824
499.98151347982053
501.13322552155705
502.27476566775783
503.40248790086383
504.51278102800256
505.6020503376583
506.66677359482543
507.7034914856016
508.70882413860085
509.67948496052395
510.61228718258883
511.5041669504749
512.3522121740048
513.1536491025049
513.9058782664467
514.6064633620153
515.2531583463684
515.8438958047727
516.3768109602771
516.850260034128
517.2627646662436
517.6130633767299
517.900130567382
518.1232147064385
518.2818110578136
518.3756695143798
518.404793715147
518.3694334953755
518.2700703544134
518.1074285635852
517.8824682753908
517.5963826010013
517.2506009516762
516.8467900685058
516.3868376199033
515.8728224106276
515.3070142459462
514.6918462059328
514.0299006927401
513.3239068557164
512.5767209882524
511.7913339831227
510.9708602741666
510.1185195238385
509.2376199747005
508.33152791514203
507.40367572733584
506.4575433754987
505.4966399292388
504.52448287250485
503.5445749800577
502.56040523650205
501.5754391033551
500.59308749983535
499.61670924607245
498.6495879416423
497.69492280221476
496.75580484845676
495.83522019662877
494.9360280161011
494.06096120833075
493.2126128763672
492.3934392765643
491.6057332647469
490.85163377896794
490.13310348437705
489.4519445885597
488.80977619222034
488.2080542639256
487.64805535837286
487.13087219132495
486.657429848581
486.22848098254576
485.84460845844393
485.50622890242005
485.2135794141659
484.9667528933233
484.7656815411416
484.61014949404733
484.4998059999385
484.4341594471401
484.41259371687227
484.4343694141615
484.49863632643803
484.6044417884651
484.750737085901
484.936392831129
485.16020351501675
485.42089873255145
485.71714561306186
486.0475576660683
486.4107100394643
486.8051458227435
487.2293732448851
487.68189091199724
488.1611843498501
488.6657419904342
489.1940531685847
489.7446231953842
490.31597936728207
490.90666335561826
491.51524699413653
492.1403298183934
492.7805424993599
493.43456286434395
494.10110073329145
494.7789260990007
495.4668443293553
496.16371018524507
496.86843043866327
497.57996400404045
498.2973285017694
499.0195979647713
499.7458849583312
500.4753705995706
501.2072689471136
501.94085469746494
502.67544922234254
503.4104220390565
504.14519236064166
504.8792152756313
505.6120143328083
506.3431535443572
507.0722311765831
507.7988618814112
508.522677807106
509.24333347167675
509.96050350002076
510.67387564361115
511.3831654130102
512.088093368212
512.7883949413091
513.4838102842779
514.1740804413997
514.8589342195298
515.5380964637626
516.2113007526613
516.8782718226283
517.5387367625054
518.1924281004542
518.8390701517689
519.4783900228547
520.1101094894141
520.7339285668517
521.3495376983471
521.9566193070127
522.5548456555168
523.1438704648522
523.7233336243912
524.2928682907885
524.8520952992103
525.4006288976096
525.9380805244564
526.464034225052
526.978076746854
527.4797772939936
527.9687044075988
528.4444165723579
528.9064681691209
529.354417547481
529.7878177264823
530.2062179684978
530.6091782665245
530.9962488097132
531.3669909531981
531.7209608777362
532.0577347529064
532.3768857977842
532.6780007043549
532.9606762501256
533.2245092260056
533.4691213468261
533.6941448528197
533.899221260515
534.0840064992996
534.248169403257
534.3914034958513
534.513412436237
534.613915022303
534.6926545821415
534.749386397811
534.7838913929617
534.795967998935
534.7854326804102
534.752129119864
534.6959177656727
534.6166873131415
534.5143464985761
534.3888267876702
534.240080593814
534.0680837781393
533.8728359664125
533.6543630091562
533.4127149718377
533.147964229494
532.860205606373
532.5495629367779
532.216189167772
531.8602555786517
531.4819671631255
531.0815473389846
530.659251208693
530.215354713646
529.7501567784162
529.2639879313442
528.757197057979
528.2301600462017
527.683272980282
527.1169539504695
526.5316557650223
525.9278437178809
525.306012700807
524.6666801103459
524.0103765766579
523.3376650447649
522.649111580766
521.9453239592317
521.2269203908279
520.4945398236254
519.7488412587793
518.9904965061452
518.2201959722289
517.4386456020243
516.6465682508002
515.8447006854587
515.0337860684497
514.2145860914463
513.3878711892429
512.5544194155832
511.7150284565018
510.8704861345133
510.02159766291896
509.16916900864055
508.31401652676664
507.4569592093391
506.59881761793
505.7404149794846
504.8825650351791
504.0260882658592
503.17179971172715
502.3205055846585
501.47301081565337
500.63011342582223
499.79259661540556
498.96124497853623
498.13682363651185
497.32008787043026
496.51178407272414
495.71264878409875
494.9234012475751
494.14473152522805
493.3773234162872
492.6218424652523
491.878926257451
491.1492053993193
490.43328313589507
489.73174571122604
489.04515086820766
488.3740382014993
487.71892655957714
487.0802917871256
486.4586011394014
485.8542953230616
485.2677793766892
484.69944188430145
484.14963932008123
483.6187133483819
483.10697101583213
482.6147000842096
482.142162666306
481.6895910819358
481.25720134828947
480.8451739814801
480.45366093234173
480.08279682497823
479.7326840134855
479.40340828848167
479.0950371442238
478.80760731429393
478.5411451808074
478.29564566416906
478.07109049179786
477.8674380166262
477.68463281365916
477.52260223154883
477.38125073558246
477.2604673030132
477.16012617423684
477.08008537951923
477.02018964861014
476.98026452062527
476.96012561642016
476.9595856629642
476.9784376321603
477.0164661999025
477.0734548501908
477.14917350301647
477.24338574732315
477.3558362446009
477.48627523546816
477.63443263043337
477.80004013814937
477.9828161997108
478.1824771263838
478.39873286978394
478.6312805016714
478.8798106682826
479.1440118030781
479.4235633961022
479.71815118891385
480.0274386103475
480.35109291158153
480.6887674984275
481.0401015771311
481.4047372173228
481.7822948125399
482.1723966468498
482.57464653106194
482.98863781210713
483.4139569898664
483.85017856946286
484.29686666661974
484.75357228259367
485.21983053186153
485.6951710052557
486.1790932896033
486.6710971075633
487.17065997742986
487.677243451162
488.1902949205392
488.7092340586599
489.2334809370486
489.7624318938333
490.2954639138524
490.831932322659
491.37117497671204
491.9125144001612
492.45525563414634
492.99869084125265
493.5420953034593
494.0847213307855
494.6258141998481
495.1646085544385
495.70032068553405
496.2321540976895
496.75929409881144
497.28091990724994
497.79619713160884
498.3042833900633
498.804329611714
499.2954792533988
499.77688094184987
500.2476661550778
500.70697478034276
501.15394584757564
501.58771276200184
502.00742023199695
502.41222160922825
502.80127647034135
503.1737569335848
503.5288408205345
503.8657444592507
504.18369005000716
504.4819233945137
504.7597186304377
505.01636335057935
505.2511807860345
505.463508093306
505.65271596640224
505.81820830265434
505.9594196119581
506.07581885961275
506.16691083103757
506.2322461436501
506.2714248256755
506.2840802242051
506.2699000194587
506.2286099478496
506.159974724437
506.063816255882
505.9399879736924
505.7883992108855
505.6089955355189
505.40177374983983
505.1667834638262
504.9041155337396
504.613914504716
504.29637785949006
503.9517509722859
503.58033527198415
503.1824791366557
502.75859095923477
502.3091262138905
501.8345767342257
501.335501554742
500.81249899121906
500.266220428332
499.69737114256856
499.1067027134878
498.4950319615255
497.86323393572076
497.2122398645404
496.54301146455737
495.8565455478712
495.15388435212236
494.43610765676993
493.7043441002949
492.9597732686074
492.2036165211193
491.4371449448777
490.66165395597454
489.87848976015596
489.08903590455606
488.2947125456051
487.49699281938587
486.6973861471738
485.89745441157424
485.0988020274002
484.30307053682503
483.5119575193399
482.7271790152977
481.9504823297042
481.1836411539561
480.4284506228922
479.68673092952827
478.96030879013557
478.2510469968551
477.5608038932263
476.8914560239486
476.24488350543174
475.62296182280426
475.0275687094214
474.4605644974801
473.9237940366161
473.4190883688087
472.94824435351586
472.5130280179086
472.1151687447294
471.75634229216934
471.4381774896778
471.16223195019876
470.93000913859754
470.74293588458187
470.6023484663181
470.5095003364585
470.46555235145496
470.4715632018658
470.52847994216353
470.6371285695477
470.7982134020734
471.0123034739118
471.27983234860943
471.60109170489784
471.97623206676866
472.4052355694019
472.8879284327985
473.4239787367651
474.01288386564977
474.6539585033819
475.3463537974608
476.0890333888122
476.88079614353603
477.7202491981776
478.60582323578154
479.53576880303405
480.50815551585725
481.5208918198307
482.5717107175319
483.65818939499997
484.777745868284
485.92763433422067
487.10497413194986
488.3067447342814
489.5297970840075
490.7708569490128
492.0265333079262
493.2933405467586
494.5677038601308
495.84597631867257
497.12445240127016
498.3993711912346
499.66695518904163
500.9234126924015
502.1649651043579
503.3878444210267
504.5883018703681
505.7626428118093
506.90723104839446
508.01850385539825
509.0929909888355
510.12731780304256
511.11824042403407
512.0626429699013
512.9575601665975
513.8002012860743
514.5879336772209
515.318319706391
515.9891086331708
516.5982532141238
517.1439269935635
517.6245094878802
518.0385846891263
518.3849637044173
518.6627257880377
518.8712395101774
519.0101186651247
519.0792480986848
519.0787719483685
519.0090836975083
518.8708353866766
518.6649244206975
518.3925150839792
518.0550073974161
517.6540471197359
517.1915244723189
516.6695331516431
516.0903721469274
515.4565287373562
514.7706644367735
514.0356060645368
513.2543110040745
512.4298876866366
511.5655776983665
510.6647435438477
509.73085801123415
508.7674755181398
507.77823145076013
506.76681043350396
505.7369362429097
504.6923526856942
503.63680860965866
502.57404524008615
501.50777269076633
500.4416597852095
499.37932864605074
498.3243214362768
497.2801115994386
496.2500700852691
495.23745427316265
494.24541306131454
493.27695146090196
492.33494437110306
491.42210979804946
490.5410027405025
489.69402547184296
488.8833996719198
488.1111702208022
487.37920340350075
486.6891819011329
486.04261186959553
485.44080270605036
484.884880544973
484.37578508799976
483.91427166688527
483.50091189212014
483.13609956342566
482.82006170329777
482.55285060310723
482.33434960445004
482.16430569471066
482.04230378567377
481.9677941069735
481.940089272709
481.9583770111102
482.02173109678125
482.1291160029357
482.2794027691674
482.47136524756945
482.70369818923564
482.9750265311032
483.2839058740903
483.6288535268297
484.008337808178
484.42078691394374
484.86460615684837
485.33818607564245
485.83991041385957
486.3681615859195
486.92132130248865
487.497788096612
488.095976857246
488.71433330519795
489.3513259902121
490.00544845400367
490.67522701232747
491.3592321966958
492.05608329807313
492.7644459043131
493.48303988207687
494.2106383141423
494.9460639659274
495.6882008016837
496.4359767169217
497.18838305452965
497.94446555093555
498.7033150962214
499.46408455965206
500.2259771337654
500.9882522480893
501.7502250458462
502.5112505874765
503.27074316957373
504.0281654411282
504.7830287624691
505.5348735026722
506.2832461962511
507.0277372602093
507.76795500362607
508.5035276125529
509.23410474914334
509.9593456612551
510.6789331005848
511.3925497053547
512.0998935700529
512.8006607915321
513.4945385340295
514.181226440217
514.8604255963941
515.5318366436494
516.1951626810611
516.8500952535982
517.4963359096741
518.1335877183099
518.7615365147968
519.3798630773587
519.9882270930751
520.5862798806753
521.1736597595152
521.7499898399105
522.3148914973897
522.8679653864807
523.4088032363032
523.9369909888169
524.4521078980356
524.9537303381647
525.4414160038943
525.9147187746216
526.3731793465712
526.8163420037616
527.2437519283494
527.6549394154323
528.0494455420283
528.426808438174
528.7865692344421
529.1282780450815
529.4514757715096
529.7557172643918
530.0405659799127
530.3055929970551
530.5503847697106
530.7745245555058
530.977621858314
531.1592981394765
531.319187919358
531.4569441293402
531.572230308279
531.664734697744
531.7341557140443
531.7802179671152
531.8026731255663
531.8012788136492
531.7758232630948
531.726121576373
531.6520054779232
531.5533348947483
531.4299919327852
531.281885789299
531.1089488586125
530.9111437209973
530.6884592337105
530.4409065630886
530.1685348977654
529.871412144902
529.5496251082483
529.2033079983223
528.8326098182566
528.4377097725318
528.0188171495479
527.576166864677
527.1100325428604
526.620704632156
526.108505601129
525.5737830975055
525.0169117983255
524.4383018636199
523.8383812264055
523.2176039824488
522.5764563887466
521.9154476419201
521.2351049794723
520.5359772825092
519.8186385780043
519.083689302262
518.3317577122426
517.563488268836
516.7795386745399
515.9805943194451
515.1673542420541
514.3405345534562
513.5008717734743
512.64910862662
511.78600824555684
510.91233984848657
510.0288928769891
509.13646937403126
508.23587419676534
507.32792927333435
506.4134549720983
505.4932798465873
504.56823942639625
503.6391729086315
502.7069265547468
501.77233729443236
500.8362489517304
499.8995022209793
498.9629334502199
498.02738218515157
497.09367684569173
496.1626422453427
495.2350939985009
494.3118307080627
493.39366336764436
492.48138377364
491.57576568245315
490.6775812121673
489.7875779914018
488.9064979106504
488.03506975335944
487.174001915595
486.3239926715172
485.4857120416873
484.6598230926746
483.8469705703903
483.0477739661644
482.2628358096292
481.4927324217148
480.7380244229509
479.99925646710693
479.2769462023445
478.5715884195577
477.883645896184
477.21357307893476
476.56179826504774
475.92872340315
475.31473261091446
474.72018320144315
474.14541879577644
473.5907585235463
473.0564971675296
472.5429074982431
472.0502338062159
471.57871178390616
471.1285469785824
470.6999216275974
470.293008044201
469.90794494167403
469.5448619712188
469.2038692812971
468.885056004203
468.58849528228296
468.3142339034544
468.0623104018921
467.83274036124993
467.6255212793454
467.44063958807095
467.2780624714346
467.1377383478753
467.01960377733633
466.9235793862345
466.8495679345956
466.7974587979962
466.76713244505095
466.75845396613937
466.7712753892965
466.8054469289108
466.86079097077084
466.93712849538935
467.0342661953968
467.15199445893677
467.2900962180922
467.44833160561643
467.62645973047285
467.82422551963685
468.04136189790256
468.2775919413608
468.5326156406116
468.8061337847375
469.097836965767
469.4073858616773
469.73443496278645
470.07862341565533
470.4395790821347
470.8169181643529
471.21023602264506
471.61911315593
472.0431080023548
472.48178041908375
472.93466499022156
473.40128163274363
473.8811374099564
474.3737108547236
474.87846689075593
475.39485198504013
475.9222959392702
476.46021157237556
477.00798568434897
477.5649941734404
478.1305865646429
478.70409246420684
479.2848258275278
479.87207615511545
480.46511511343857
481.063198843153
481.665566158019
482.2714281160231
482.87998148865455
483.4904092354522
484.101872412346
484.7135152966302
485.3244661784058
485.9338382463649
486.5407438964091
487.144267569283
487.7434889115572
488.33747545798167
488.9252775055647
489.5059448198739
490.07851937436084
490.6420347002773
491.1955284069833
491.73802634717833
492.2685640577029
492.786175406902
493.289900951035
493.7787898856522
494.2518933461681
494.70827734309853
495.1470204158009
495.5672134973865
495.9679773947648
496.34844332602887
496.7077839236449
497.04518311251684
497.35985186458527
497.6510395011692
497.91801224190743
498.16007527143927
498.376563926424
498.56685222603113
498.73035466840093
498.86652356889624
498.9748593815719
499.0549054990565
499.106256109191
499.12855974143616
499.12149641453925
499.08481141597554
499.0182942682771
498.9217771614804
498.7951461795546
498.6383280678605
498.4513138431506
498.234140670424
497.9869042970911
497.7097517148335
497.40288467412546
497.06656544410777
496.7011163131553
496.30690840833597
495.8843724619447
495.43398574063826
494.95628308857175
494.45185262236436
493.9213316128772
493.3654156541467
492.7848460888002
492.18042603997276
491.5530126199971
490.9035225421127
490.2329337647214
489.54225908650517
488.8325568205848
488.10491677798507
487.3604651521165
486.60038390259666
485.82589254079215
485.0382691479959
484.2388229611676
483.4288927104319
482.60987507160974
481.78318938366493
480.9502922280426
480.11268704210465
479.2719116731356
478.4295456982062
477.5872024583789
476.7465432044526
475.9092520481237
475.07704830198736
474.25168162031133
473.4349185087539
472.6285574170605
471.8344112272305
471.0542940637125
470.2900295170199
469.543436461037
468.8163407357864
468.1105645522244
467.4279243925227
466.7702418776132
466.139317379194
465.53693639422056
464.96486478508166
464.42483289949314
463.91854573351526
463.4476690879051
463.01381342660795
462.6185325259647
462.26331516898256
461.949594036023
461.67872603066894
461.45199668690293
461.2705960375706
461.135625058114
461.0480867321961
461.0088771969852
461.01878805066485
461.0784869489627
461.1885180068465
461.349298033069
461.5610977028155
461.8240579843491
462.138176373358
462.50329589413207
462.9191054615939
463.38512971505696
463.9007434669196
464.4651517784607
465.07739472030954
465.7363526820794
466.4407217274394
467.1890442482032
467.9796810684907
468.81083674789943
469.68055510594394
470.5867133219849
471.52704977323407
472.49914700002716
473.5004506048611
474.5282715763813
475.5797808378991
476.65203738705753
477.74198438112927
478.8464547753907
479.9621928125773
481.085845494103
482.2140050578024
483.34319517429367
484.469897093606
485.5905764686281
486.701684855731
487.7996861699933
488.8810487283916
489.94227041055035
490.9798951664198
491.9905143007281
492.970793745656
493.91747673377796
494.82740122751096
495.69752759680114
496.52493284726404
497.306852306289
498.0406658863182
498.7239095774366
499.3543031130616
499.9297392478674
500.44831329750383
500.9083162475588
501.3082395478593
501.64677814873636
501.92283385025047
502.1355632514229
502.28437496464875
502.3689357199589
502.38917449442624
502.34524269712955
502.2375437025489
502.0667091451056
501.83361182953644
501.53938270704674
501.18536860666563
500.77316628167233
500.3046017238309
499.78168950142367
499.2066435411493
498.58184952371334
497.9098665474797
497.19340314485135
496.43530492508773
495.638553771305
494.8062459448499
493.9415844197283
493.047865719763
492.1284681771208
491.18685971416824
490.22655986078036
489.2511348725144
488.26417990435914
487.26928614874925
486.27004315455713
485.26999078887786
484.27263240495535
483.28141316877236
482.2997030885564
481.3307936023871
480.3778684380822
479.4440100456739
478.53218728411537
477.6452420416272
476.7858923164627
475.956692703637
475.16004608370554
474.39818765834406
473.67318752888656
472.98694784670795
472.3411835390431
471.7374368214696
471.1770664073172
470.6612509737328
470.1909871192547
469.76709043797666
469.390204254519
469.06078963244056
468.7791225764088
468.545324642993
468.359339698438
468.22096612271184
468.1298413817908
468.08546220744506
468.0871943861732
468.1342545504006
468.22576232256887
468.3607119395402
468.53799895103674
468.7564273483452
469.014705917348
469.3114730418944
469.6452950535808
470.0146820259953
470.41810121431143
470.85396625395464
471.32068092633546
471.81661929126767
472.3401405912145
472.88960819955196
473.4633753741069
474.059823152448
474.67733444167203
475.31432221702045
475.969235271944
476.6405371655033
477.3267389961991
478.02638324725194
478.7380620724909
479.46042187452906
480.1921520276775
480.9320082119962
481.67879816017194
482.4313910879081
483.18871815301407
483.9497593898246
484.71356309262364
485.4792276672103
486.24591386184
487.01285052429296
487.7793075308674
488.54462987226395
489.3082040168895
490.0694702359964
490.8279262090354
491.58311780020625
492.3346475585878
493.0821436288451
493.82525646418935
494.5636700714468
495.2970842257675
496.02523154086975
496.7478614559276
497.4647457658445
498.17567747108745
498.8804407822106
499.5788397990602
500.27066776314433
500.9557129888736
501.6337779333681
502.30465270641173
502.96814359069793
503.6240430254536
504.2721438120442
504.9122451587112
505.5441310510641
506.16758194268795
506.7823760908264
507.3882673953471
507.985007205345
508.5723158510407
509.14989801566986
509.7174428092741
510.2746150433736
510.8210773215275
511.3564664541275
511.88042264153114
512.3925752478565
512.8925376184493
513.3799282406102
513.8543418158215
514.3153773489582
514.7626224116475
515.1956571267913
515.614064596289
516.0174105766038
516.4052734517775
516.7772283339241
517.1328530168964
517.4717338540182
517.7934562927393
518.0976217345967
518.3838359734251
518.6517084457282
518.900864431145
519.1309374826748
519.341570528276
519.5324211173998
519.7031622069156
519.853496234697
519.9831166928894
520.0917569769566
520.1791648019422
520.2451074015721
520.2893745410993
520.3117616409742
520.3121075479237
520.2902578656767
520.2460851177335
520.1794914014341
520.0903891069808
519.9787297633445
519.8444869808001
519.6876569402369
519.5082719548006
519.3063702193356
519.0820355201444
518.8353602666914
518.5664652084192
518.2755015476482
517.9626376858893
517.6280765492666
517.2720421816309
516.8947926882282
516.4966114456518
516.0777915473612
515.6386726586236
515.1796035320294
514.7009635471253
514.2031601346139
513.6866130753252
513.1517715220405
512.5991068595035
512.0291077577002
511.44228826025903
510.8391783273914
510.22033412741666
509.5863307852946
508.9377595185515
508.27523567593954
507.5993782981064
506.9108356404472
506.21025800591383
505.4983164437799
504.7756974514027
504.0430954602605
503.3012228485007
502.5507980500103
501.7925511441497
501.02722957377165
500.2555666512595
499.4783131513938
498.6962273202348
497.91006730703094
497.1206009890674
496.3285894829065
495.5348013773818
494.74000284336216
493.94496305419
493.150448812878
492.3572147532556
491.566021985806
490.7776173162075
489.9927519029188
489.2121673051461
488.4365858215814
487.66673132851395
486.9033151817043
486.147028704898
485.398566333992
484.65859414092114
483.92777298645404
483.2067555505322
482.49617484499674
481.79665250651414
481.10878520456174
480.4331639155461
479.77035391618665
479.12089875071877
478.48533952310754
477.8641708023235
477.2578905223612
476.66696461902615
476.09184200530746
475.53296299988676
474.99073510229266
474.46555482974964
473.9577945635901
473.46781133960377
472.9959426750093
472.5424958463789
472.1077610989301
471.69200945220973
471.29548837510913
470.9184372553466
470.5610679622719
470.22357608681284
469.9061478490316
469.60894312847853
469.3321069254797
469.0757565414951
468.84001707271466
468.6249849284182
468.4307349826002
468.25733197350684
468.1048178035958
467.97323828463743
467.8626130566586
467.7729470333784
467.70423737495145
467.6564562431461
467.6295794469447
467.6235648052581
467.6383545606922
467.6738908509769
467.7300895359539
467.8068644166405
467.9041118907849
468.0217261538734
468.15959273056126
468.3175798271321
468.49555370959814
468.6933656476465
468.9108497081671
469.14783562532705
469.4041331873203
469.67955611470103
469.97388677810784
470.2869063686644
470.61838565268266
470.9680713683978
471.3357054115724
471.7210133642871
472.12369951520856
472.5434615026437
472.97996556138247
473.4328719321515
473.90182520799704
474.3864448265855
474.886339630146
475.40107862267644
475.9302272746828
476.47332695675584
477.02989647005796
477.5994358389305
478.18141263092997
478.77527889528733
479.3804575146292
479.9963439720405
480.62231245162724
481.257702261064
481.901848279414
482.5540416667753
483.2135495325479
483.8796237048319
484.55147473897176
485.22829625153923
485.9092587317907
486.5935035652234
487.28014582717833
487.9682727229842
488.6569596556066
489.3452580761547
490.03219450126085
490.71678045073634
491.39800282439484
492.07484737655847
492.74627204864936
493.41121971448877
494.068633142297
494.7174329365761
495.35654592183954
495.98488118217495
496.6013409691644
497.20483365151176
497.79426278943856
498.36854259500666
498.9265871581379
499.4673281741316
499.98971322567667
500.4926887849924
500.97523579948984
501.43635064196184
501.8750589792681
502.29041456368356
502.6814847267579
503.0473794502379
503.38723668489496
503.7002316301845
503.98557704419466
504.2425168580257
504.4703524133509
504.6684292576533
504.8361369930763
504.97292644177236
505.0782873281311
505.15176950542906
505.19298212667957
505.2015794993469
505.177286121966
505.1198757121966
505.02918288224305
504.9050902205902
504.74753676707724
504.55652842980624
504.3321285064462
504.07447225906384
503.7837420380214
503.46018380513175
503.10411493253287
502.71590811350006
502.29600832688305
501.8449083786666
501.36315722578047
500.8513727071745
500.3102106193331
499.74040159415426
499.14273800568316
498.51806135565084
497.86726717777583
497.19131208115135
496.4912233649249
495.76808075840444
495.02300070695526
494.2571532792314
493.47173690041495
492.66800502583715
491.8472440885661
491.0108013447551
490.1600686973552
489.29646621048244
488.4214645439901
487.5365719088681
486.6433250073096
485.7433035242172
484.83810906522075
483.9294050191639
483.0188864231893
482.1082805243129
481.199364959257
480.293940350612
479.393853737375
478.50096976682204
477.6171637006289
476.74434047717796
475.88441207187947
475.0393164649792
474.210992764513
473.40139117905346
472.61247197753255
471.8461890494236
471.10450176770513
470.38935379247613
469.70268241685613
469.0464080930476
468.4224169328341
467.83257791968595
467.2787204651333
466.76263558417423
466.28607242231226
465.85072151135535
465.4582283460639
465.1101629277583
464.8080240254795
464.55324542257307
464.34716057830485
464.191024051168
464.0859824180881
464.0330846334587
464.0332707577722
464.0873497906898
464.19601692430837
464.3598272185244
464.57920684278315
464.85444290380207
465.1856626939217
465.5728439239882
466.01580779868345
466.51421267645776
467.06754825394836
467.67512578742463
468.3360951662977
469.04943203604904
469.81393214563565
470.62821946126155
471.4907331641108
472.3997460639898
473.35335308933
474.3494846677723
475.38590791517885
476.4602178319848
477.56987102530167
478.7121656451892
479.88425724186897
481.08317334841126
482.3057961040581
483.54890246483745
484.80916144432695
486.0831387383705
487.36731960194646
488.6581039069034
489.95184331213017
491.2448529827412
492.5334198967232
493.81382952710845
495.08235387141053
496.33528133733506
497.5689203106317
498.77962681793394
499.96382121398295
501.11798273418947
502.23868727322923
503.3226007882624
504.3665114246811
505.36734999408327
506.3221769209241
507.2282274414382
508.0828835201407
508.88370548207587
509.62845352409
510.31508197471504
510.9417364627624
511.5067534250365
512.0086816186629
512.4463373952209
512.8187722372146
513.1253059051998
513.3655047779753
513.5391907508662
513.6464278429804
513.6875103106439
513.6629961213443
513.5736853584164
513.4206158417514
513.205084771181
512.9286156638552
512.592971175311
512.2001040155399
511.752156973837
511.25145714035244
510.7004778088494
510.10185973965645
509.4583936058638
508.7730034778536
508.04876224905826
507.28884071856424
506.49651938593246
505.6751623286978
504.828199464885
503.9591193421924
503.07143963263366
502.16870808076106
501.2544705380493
500.33225866749274
499.4055951973097
498.4779559189741
497.55276953510656
496.63340269827404
495.7231436601251
494.82518894506603
493.9426242310742
493.078436809318
492.23547869425147
491.4164723459506
490.6240021349226
489.86048922405325
489.1282134234325
488.42929022798774
487.76566211040046
487.1391060541616
486.551224499121
486.0034506151469
485.49704138472566
485.03307160265496
484.61244836115185
484.23589557153485
483.90397870268174
483.6170975499197
483.37548190289283
483.17921617695964
483.028225386917
482.9222990422918
482.86108489255304
482.8440983686973
482.8707324029555
482.9402543953054
483.0518384043768
483.2045605028025
483.3973988601935
483.629255653096
483.8989482346183
484.2052507063803
484.54687206401087
484.9224692658163
485.3306687169785
485.7700545954417
486.23920954353423
486.7366917663119
487.26104669766556
487.8108290246049
488.3845937565519
488.9809198005635
489.5984002226559
490.2356449621107
490.8912915955251
491.56399125763477
492.25244851156094
492.95540177798705
493.67163625404214
494.39998550968477
495.13931738748073
495.8885567236131
496.64666609085816
497.4126677745376
498.1856393818704
498.9646830181518
499.7489684639024
500.53770176842363
501.3301486927256
502.12562106543913
502.9234630574524
503.72307234449596
504.5238909334353
505.3254140052021
506.12718159321196
506.928737108833
507.72966167754646
508.5295444662211
509.3279961587192
510.12464445864657
510.91912706705386
511.7111107536522
512.5002664783289
513.2862660616746
514.0687917049821
514.8475078336163
515.6220828146102
516.3921732574375
517.1574302915071
517.9175149117292
518.6720722888213
519.4207659081212
520.1632424249301
520.8991363095984
521.6280858160397
522.3496969505796
523.0635756058092
523.7693097435505
524.4664627720778
525.1546021690114
525.8332694545907
526.5020030374332
527.1603196954785
527.8077312618937
528.4437463379992
529.067845842428
529.6795131479761
530.2782272095649
530.8634514012563
531.4346506819161
531.9912759269076
532.5327898138881
533.0586466462861
533.5683027892378
534.0612248982196
534.5368784355421
534.9947403310091
535.4342918297143
535.8550154935
536.2564206196008
536.6380096574353
536.9993056087478
537.339844239983
537.6591684461418
537.9568575311151
538.2324975689082
538.4857021879914
538.7160983001277
538.9233335582154
539.1070859988844
539.2670386245599
539.402908478585
539.5144362797448
539.601387034858
539.663552826885
539.7007468379459
539.7128192872274
539.6996382990076
539.6610968126099
539.5971282791444
539.50768087335
539.3927441527696
539.2523230470081
539.0864510194518
538.8952054549362
538.6786771898347
538.4369968688762
538.1703151495942
537.8788134800922
537.5627149688548
537.2222537289543
536.857705381402
536.4693671359418
536.0575684525385
535.6226620131076
535.1650277741343
534.6850858256618
534.1832721130394
533.6600490260546
533.1159070995313
532.551349075084
531.9669132595833
531.3631618413048
530.7406846845296
530.1000921997927
529.4419992303908
528.767070166872
528.0759722857323
527.3693990691115
526.6480628125801
525.9126850135389
525.1640151715474
524.4028057507758
523.6298351468452
522.8458978540651
522.0517903743602
521.2483343388933
520.4363536042614
519.6166863266669
518.7901795055319
517.9576856886181
517.1200706905322
516.2782015965296
515.4329433969363
514.5851774304998
513.7357761491984
512.8856194845948
512.0355804683073
511.1865304300282
510.3393486579499
509.4948970913489
508.6540475638386
507.817652205051
506.98656629976284
506.16164066672405
505.34369435156356
504.5335505791169
503.73201797105975
502.9398893816387
502.1579584047339
501.38698344456003
500.6277195400516
499.8808998999167
499.1472416907285
498.427443115556
497.7221782525003
497.0321073601287
496.35786536179995
495.70006118310135
495.05928809546833
494.4361078759296
493.8310700976783
493.24469430439876
492.67747185788903
492.1298765720101
491.6023425148667
491.0952876448223
490.60910471359057
490.14415235280177
489.7007745873008
489.27927219718896
488.87994640901684
488.5030575831848
488.14884742534093
487.8175394418508
487.50931102482474
487.22432433313645
486.96271557059964
486.72459755305374
486.5100667088472
486.3191860652361
486.1520099528268
486.00856723462744
485.88886202978034
485.79288093868735
485.72058493617715
485.67192317186914
485.6468248650141
485.64520220658295
485.66695113634694
485.7119432283996
485.7800415982798
485.87109269306717
485.9849246403404
486.1213652787681
486.280209802565
486.46125839911184
486.6642882753417
486.88906498964997
487.13535584180596
487.40289519346226
487.6914241392794
488.0006644513491
488.3303296759065
488.6801185835538
489.04972170166354
489.43881909826695
489.84707578163324
490.27414794150957
490.71968705303914
491.1833242909917
491.6646921911129
492.163406984435
492.6790661565842
493.2112567607868
493.7595395315182
494.3234811032468
494.9026117163751
495.49645714170896
496.1045312048926
496.7263218809923
497.3613124830555
498.00895913580484
498.66871429468165
499.34000223767464
500.0222163519007
500.7147425978573
501.4169414821664
502.12814980790733
502.84769117199363
503.57485812265884
504.30892943380985
505.0491568167824
505.7947648850766
506.5449642811223
507.2989276015929
508.0558178312427
508.8147732212064
509.57491211596385
510.3353335684243
511.0951070856186
511.85329089175474
512.6089175007755
513.3610035363089
514.1085508339937
514.8505300762956
515.5859193588167
516.3136751649131
517.0327428066984
517.7420626222148
518.4405521845559
519.1271366699673
519.8007268355184
520.4602297793423
521.104557518661
521.7326203477072
522.343339971461
522.9356431209677
523.508461843959
524.0607512500062
524.5914701993261
525.0996014497301
525.5841476508591
526.0441361398194
526.4786282980403
526.8867027764259
527.2674824906884
527.6201134346637
527.9437782919463
528.237710025753
528.5011639146455
528.7334571702959
528.9339316739693
529.1019886947087
529.2370774782056
529.3386923896832
529.4064006744109
529.4398177824835
529.4386153769269
529.4025335231536
529.3313490162061
529.2249111725772
529.0831159933542
528.9059171473099
528.6933387103343
528.4454571828993
528.1624184160333
527.8444237537882
527.4917290973758
527.1046655912766
526.683616740395
526.2290416648048
525.741459170854
525.2214408334679
524.6696282225124
524.0867063687471
523.4734386100322
522.8306339046907
522.159169062755
521.4599806478154
520.7340547283171
519.9824672707755
519.2063400070806
518.4068382167147
517.5851725270016
516.7425913478617
515.8803923207498
514.9999243665012
514.1025871632411
513.1898347283905
512.2631546652011
511.324084182947
510.3741949070375
509.41509021904324
508.4484129129221
507.475836879668
506.49909782504886
505.51996491503064
504.5402630406077
503.5618539576795
502.5866176246849
501.61647953746785
500.6533834722047
499.6993059623606
498.7562335593506
497.82616843172195
496.9111339808946
496.0131650349919
495.13430234203946
494.2766024368604
493.4421058392458
492.6328575618029
491.85088356278135
491.09819530162054
490.37679844066025
489.6886598620343
489.035726951355
488.4199048943938
487.8430533247465
487.30698917442993
486.8134629900457
486.3641743359796
485.96074750644834
485.60473550796246
485.2976173932373
485.04076491978486
484.8354703684617
484.6829173678152
484.5841758677479
484.5401993278811
484.55181093765464
484.6197141655182
484.7444664187132
484.92649019586474
485.1660606637898
485.4632915314816
485.8181409447501
486.2303958738102
486.6996766535236
487.22544435983383
487.8069629256121
488.44333616762594
489.13348644478515
489.87615379277963
490.6698978617938
491.5130873671686
492.403925257713
493.34043314227125
494.32046072635427
495.341691729863
496.4016352563055
497.49766194039836
498.6269754820919
499.7866463667203
500.973604986404
502.18464651701396
503.4164540545562
504.6655939503087
505.9285358830331
507.20166929900665
508.4812919735689
509.76367145107616
511.04502204270403
512.3215417912495
513.5894218428962
514.8448432474775
516.0840091233647
517.3031485848259
518.4985425957069
519.6665433925832
520.8035586689986
521.9060986534454
522.9707655647957
523.9942858997299
524.9735311043648
525.9055134983242
526.7874118930024
527.6165697091382
528.3905137106404
529.1069692170981
529.7638520809828
530.3592810157626
530.8915592341284
531.3592195968505
531.7610555210434
532.0961145033027
532.3637136749495
532.5634248475316
532.6950658847896
532.758702390327
532.7546332865843
532.6834216417499
532.5458726508208
532.3430419953044
532.0762462932709
531.7470410072361
531.3572159315833
530.908757211266
530.4038409646129
529.8448165306077
529.234192258826
528.5746547097151
527.8690339332541
527.1203003344007
526.3315515826441
525.5059985394222
524.6469614595075
523.7578437604109
522.8421139487801
521.9032979431631
520.944946929531
519.9706421462425
518.9839711891412
517.988515439198
516.9878400747049
515.9854559471992
514.9848388012318
513.9893945499568
513.0024450373417
512.0272298991449
511.0668720952978
510.12439475712534
509.20269091792835
508.30451621019074
507.43248908180533
506.58906348666466
505.77655088169763
504.99709516764995
504.25266824990626
503.54508417580195
502.8759685403498
502.2467813077727
501.65879666727375
501.1131188168859
500.61067229094635
500.15220399787944
499.738303549337
499.3693872965015
499.0457072476794
498.7673648875489
498.5342948476416
498.34630833294995
498.20306284285505
498.10408473609596
498.0487811381331
498.03643258352025
498.06622317326236
498.13723370236727
498.2484524966787
498.3987930107161
498.58708307294603
498.81209782335463
499.0725465325926
499.3670943475385
499.6943706749217
500.05296643599144
500.44146175992313
500.8584183804758
501.30238924929586
501.7719364717758
502.265613866467
502.7820060034443
503.3197009673138
503.877310584815
504.45347901511315
505.0468710248014
505.65618815961585
506.2801733154425
506.9176126473674
507.5673414235519
508.22822756831386
508.899200824865
509.57924227189926
510.2673847340621
510.9627086497719
511.66433750798785
512.3714527321138
513.0832801195097
513.7990893080724
514.5182084134553
515.2399948713465
515.9638719412952
516.6893021987216
517.4158031055141
518.1429320358787
518.8702621607727
519.5973948028619
520.3239448681511
521.0495519604923
521.7738802723335
522.4966030590585
523.2174284622633
523.9360594960866
524.6522105826413
525.3656017274976
526.0759302807429
526.7828988832251
527.4862037025216
528.1855338462859
528.8805863970181
529.5710513894285
530.256630398467
530.9370097980047
531.6118673306013
532.2808770078824
532.9436883028321
533.5999428663074
534.2492652028242
534.8912646823486
535.5255379343597
536.1516583867647
536.7691945110737
537.3777021192514
537.9767169625193
538.5657714970199
539.1443746022237
539.7120330651207
540.2682358178793
540.812462141101
541.3441899642305
541.8628779090269
542.3679931780615
542.8589934954242
543.3353286863914
543.7964597077371
544.2418294911578
544.6709014583287
545.0831390056403
545.478006958295
545.8549751026887
546.213512657229
546.5531111703265
546.8732681657783
547.1734948828292
547.453319665618
547.712273872422
547.9499149514127
548.1658033423139
548.3595186783673
548.5306738144518
548.678887395757
548.8038046194981
548.905084937553
548.9824159694497
549.0355144395401
549.0641030489282
549.0679485107737
549.0468361371799
549.0005706810849
548.9289922945911
548.8319574295846
548.7093635428274
548.5611321774848
548.3872139195621
548.1875933993011
547.9622678843034
547.7112825550314
547.4347044637071
547.1326314927411
546.8052034433624
546.4525781088498
546.0749599466074
545.6725784178213
545.245694710442
544.7946084532346
544.3196380178117
543.8211422833813
543.2995140496429
542.7551778179494
542.1885897042886
541.6002218820382
540.9905883906272
540.3602270811912
539.7097031861374
539.0396149676022
538.3505863249184
537.6432703264911
536.9183416363232
536.1765041871232
535.4184967938978
534.6450659777145
533.8569956048672
533.0550772843361
532.2401354436014
531.4130153899355
530.574571405178
529.7256853594988
528.8672436969292
528.0001493234557
527.1253157424934
526.2436610426046
525.3561281927022
524.4636505958251
523.567178813916
522.6676745352324
521.7660871034253
520.8633891404565
519.9605421826249
519.0584994430665
518.1582282024685
517.2606688918074
516.3667728385627
515.4774720927712
514.593688694827
513.7163307320204
512.8462882169107
511.9844509185241
511.1316871374457
510.2888378303034
509.456741206235
508.6361963053563
507.8279989275079
507.0329119808328
506.25167095020527
505.4849937621377
504.733553531952
503.9980103175903
503.2789905500139
502.57708853388755
501.89287013487467
501.2268699565806
500.5795953864539
499.9515110615129
499.34304940646854
498.7546191025795
498.18658747165654
497.63930251315895
497.1130669313178
496.6081470455821
496.1247795383638
495.6631739503333
495.2235066458951
494.80592360087553
494.4105322682281
494.03742190031517
493.6866357956125
493.3582093338646
493.0521447075371
492.76842308704653
492.50701045633315
492.26782628416623
492.05077984675074
491.8557606231759
491.6826288019705
491.53123841186016
491.40140788835055
491.2929651632186
491.20571182714286
491.13943763020035
491.0939284747345
491.0689502895902
491.0642722261462
491.0796526891052
491.1148384157188
491.1695787334227
491.24361351583445
491.3366984766855
491.4485758039659
491.5789861978395
491.72768511307623
491.89440860260726
492.07890461665164
492.28092244517745
492.50021081800605
492.7365312212002
492.989640479177
493.2593017219449
493.54528420361555
493.847358632266
494.1652967606366
494.4988685737024
494.84786352628583
495.21206815573726
495.59127436229716
495.98527445587933
496.39384953950275
496.81678828102514
497.2538771557379
497.7048995107646
498.1696411227709
498.6478628758672
499.13933454999443
499.6438072078925
500.1610183212416
500.69069439106886
501.23254460584917
501.78627652233473
502.3515702777232
502.9280966203663
503.51551318105976
504.1134456088492
504.7215103190986
505.3392912990006
505.9663499448692
506.6022239863396
507.24641098362105
507.89840010539626
508.5576384261538
509.22354104814593
509.895503536548
510.57286844271033
511.2549751080426
511.9411134957874
512.6305481888966
513.322518530168
514.0162304245214
514.7108593023938
515.4055442612181
516.0993997921669
516.791519186834
517.4809451618252
518.1667236109332
518.8478570464625
519.5233325605091
520.1921193332944
520.8531575630886
521.505386946017
522.1477184316976
522.7790563048337
523.3983007190308
524.0043307722541
524.5960245517559
525.1722637739888
525.7319366269838
526.2739386509031
526.7971648800714
527.3005238118498
527.7829425546248
528.2433611974853
528.6807557666554
529.0941241646476
529.482489724446
529.8449112266346
530.180477585603
530.4883222466427
530.7676023848846
531.0175303596293
531.2373545782472
531.4263662320036
531.5839122463891
531.709379421459
531.8022309937019
531.8619841683019
531.8882182112412
531.8805870312935
531.8387879587297
531.7626003353851
531.6518516961515
531.5064229217896
531.3262637679503
531.1113838094237
530.8618628513777
530.5778413714199
530.2595238068182
529.9071861317057
529.5211614698233
529.1018628182122
528.6497555684898
528.165376101015
527.6493353026079
527.1022807210576
526.5249397021952
525.9180992825679
525.2826060064991
524.619374808874
523.9293631907282
523.2136066952521
522.4732132897133
521.7093388215349
520.9231955553565
520.1160278528822
519.2891311221038
518.4438283026277
517.5814958115153
516.7035604549939
515.811491683233
514.9068155955492
513.9910892823582
513.0659008336467
512.1328773440734
511.1936615052042
510.2499554519735
509.30349213991127
508.35605050875216
507.4094644540525
506.465599546053
505.5263499037478
504.5936328988552
503.66939263316004
502.75560354371663
501.8542368521864
500.9672991684147
500.0967943903967
499.24473582193946
498.4131537877455
497.60407262264454
496.81952703621386
496.0615411215499
495.3321225671734
494.63326983982506
493.9669461055395
493.3351053323456
492.73965453518775
492.18247251902454
491.6653934017433
491.19019194057927
490.75859470937
490.3722626105848
490.0327884665935
489.74169212549475
489.50040456622264
489.31027396124523
489.1725407842202
489.0883456043639
489.0587217252624
489.08456823775794
489.16666912023385
489.30566639199077
489.50206637893643
489.7562287658326
490.0683536966971
490.4385044608407
490.86656745434385
491.3522605998562
491.8951377091573
492.4945651600204
493.1497386040322
493.85967187058213
494.6231864976706
495.43893036638354
496.3053445173197
497.2206938368274
498.1830569142973
499.19032551060434
500.2402200675316
501.3302843226516
502.4579051824207
503.6203097262547
504.8145656009654
506.0376044508591
507.28620264941515
508.55701545010123
509.8465593323926
511.1512320371951
512.4673307427832
513.7910531881212
515.1185300912459
516.445827512072
517.7689695848544
519.0839798299095
520.3868624278855
521.6736303146862
522.9403097344868
524.1829560534337
525.397682714214
526.580661796163
527.7281485705824
528.8364791567673
529.9021089703998
530.9216198693829
531.8917154392025
532.8092831262223
533.6713658764742
534.4751873173506
535.2181623388184
535.8979018500869
536.5122446501714
537.0592221543561
537.5370645975588
537.9442486819181
538.2794956358913
538.5418191047243
538.7305031691518
538.8451135307787
538.8854824264697
538.8516908983763
538.7440787798042
538.5632471875074
538.3100604949799
537.9856635337509
537.5914485417384
537.12908128424
536.6004547281226
536.0076814255375
535.3530781487142
534.6391334696588
533.8685148654292
533.0440718797734
532.1688138969874
531.2459086090544
530.2786355219766
529.2704259033327
528.2248035210424
527.1453882460877
526.0358903819352
524.9000631084476
523.741709309117
522.5646486466558
521.3726952952766
520.1696748997367
518.9593871968633
517.7456043639822
516.5320393166724
515.3223386571343
514.1200697394282
512.9286998038007
511.75159580737784
510.59200550064537
509.4530505557976
508.33771212839895
507.24880862358685
506.1890159522483
505.16084311618977
504.1666199139362
503.2085051733412
502.2884674226517
501.40831267646877
500.56965445159483
499.7739154521306
499.02234320294696
498.3159894345129
497.65572976738633
497.0422467892185
496.47606201388754
495.95752941441197
495.48681659160064
495.0639477708212
494.68878839158157
494.3610544285323
494.08032441288145
493.8460364973242
493.65752754261496
493.5140071603273
493.4145801776443
493.3582648587134
493.3439741063906
493.3705468038656
493.4367394331541
493.5412434963038
493.68270913302695
493.8597270341493
494.07087136940015
494.3146856708434
494.5897124562187
494.89449021156975
495.2275480709132
495.5874328624942
495.9726986718325
496.3819133895171
496.8136798304683
497.26659701075704
497.73930352325334
498.23047186563724
498.738813223517
499.26309930876107
499.8021247195818
500.3547387101875
500.91984354419793
501.49639489740287
502.08339980436074
502.6799032733588
503.2850293871702
503.8979303877407
504.5178209581763
505.14396871426914
505.77568481887
506.4123277583238
507.0532981681819
507.6980491905662
508.346104081913
508.9970085998577
509.6503466370338
510.30571127042214
510.9627164670342
511.62099937385403
512.2801981176731
512.9399839153214
513.6000471288896
514.26008542182
514.9198090969436
515.5789131509624
516.2370991810396
516.894055287423
517.5494597367949
518.2029934411999
518.8543243265043
519.5031338719858
520.149098525811
520.7918848948602
521.4311497833937
522.0665253661023
522.6976530223338
523.3241389133909
523.9455798141461
524.5615587375955
525.1716166527017
525.7752963506767
526.3721231929974
526.9616104431044
527.5432717692134
528.1165881059135
528.6810334438986
529.2360699891987
529.7811478933967
530.3157182053524
530.8392087220534
531.3510544808174
531.8506844859285
532.3375150399816
532.8109668345152
533.2704556754392
533.715405223649
534.1452332174376
534.5593680582415
534.9572524441049
535.3383295727975
535.702055472138
536.047889171323
536.3753045643019
536.6838046154297
536.9728940954869
537.2421114383964
537.4910060939617
537.7191553565867
537.9261460838985
538.1115713800331
538.2750664095298
538.4162785685246
538.5348725545471
538.6305461660754
538.7030154578162
538.7520305600669
538.7773540368195
538.7787828808813
538.7561465654641
538.7092853770271
538.6380899810761
538.5424733824813
538.4223891029355
538.2778232805224
538.1087758145652
537.9152917243478
537.6974311452061
537.4552850261477
537.1889641829289
536.8986099407246
536.5844004095134
536.2465370275895
535.8852573184774
535.5008346770381
535.0935474344076
534.6637243605005
534.2117202135021
533.7379088037048
533.2427044124403
532.7265239496295
532.1898322113799
531.6331194702467
531.0568988151605
530.4617122525716
529.8481149392262
529.2167097488013
528.5680986623431
527.9029150273732
527.2218163019415
526.525465776023
525.814555730363
525.0898021185633
524.3519327996324
523.6017063662377
522.8398761905449
522.0672309612411
521.2845696962762
520.4927074998545
519.6924702968588
518.8846827728993
518.0702000402293
517.2498781594293
516.4245795871777
515.5951828704284
514.7625617297322
513.92760135713
513.0911905687938
512.254211742096
511.4175569316792
510.58210671663255
509.7487550194887
508.9183858188969
508.09187395868
507.2700945413685
506.45390386298783
505.64416200342305
504.8417093103837
504.04738016797074
503.26199279150643
502.48634990983277
501.7212594388289
500.9674985763555
500.22582152312685
499.49696484095216
498.7816352380643
498.08053463340764
497.3943329514141
496.72367811007297
496.06919512461593
495.4314633444427
494.81105482161206
494.2084983653634
493.62429603640805
493.05893320944523
492.5128495380176
491.98646242075534
491.4801621701056
490.9943009155895
490.52920334156016
490.08515993096853
489.66243364661665
489.2612558875361
488.8818203775226
488.5242967190794
488.18880667917585
487.8754442092255
487.5842646102919
487.31529992302256
487.06855041239817
486.84398938510446
486.6415727820422
486.4612160501259
486.30281029125274
486.16623859852655
486.05134021335004
485.9579469110984
485.88586471237255
485.8348733147501
485.8047385171238
485.79520262391816
485.806001353039
485.83684786923067
485.8874407706462
485.9574698142659
486.0466040058704
486.1545169907608
486.2808664958244
486.42530881612174
486.58750020412316
486.76709176785187
486.9637353245481
487.17707598744704
487.4067533588358
487.65241331174786
487.9136954942183
488.1902625819534
488.4817727667839
488.7878870687433
489.10827660977617
489.4426100048211
489.7905756630523
490.1518647558174
490.52616929732915
490.9131931482297
491.3126366077412
491.7242247050164
492.14766745668146
492.5826943043265
493.02904478445186
493.4864482002701
493.9546556967686
494.43341763491355
494.92248712227064
495.42163011274675
495.9305917593742
496.44913259993683
496.97699888426513
497.5139342580529
498.0596847260059
498.6139795972954
499.1765561969579
499.7471385482154
500.32544024534366
500.91116959779333
501.504004039151
502.1036212781583
502.70967586675744
503.3218020478285
503.93962538983277
504.5627417981324
505.1907382036281
505.8231696119279
506.4595624382321
507.0994376251484
507.7422661874077
508.3875145748665
509.0346113960895
509.68295803585994
510.3319305674893
510.980875305162
511.6291132696881
512.2759271205438
512.9205766041656
513.5622989626694
514.2002986320434
514.8337677522753
515.461856537619
516.083700614538
516.6984068703539
517.3050613080227
517.902741647441
518.4904973259388
519.0673667574038
519.6323816215939
520.1845449981785
520.7228665254225
521.2463429909883
521.7539652469416
522.2447362198749
522.7176454052699
523.1716870024959
523.6058669788181
524.0191971565047
524.4107179266501
524.7794729473663
525.1245386425993
525.445016694796
525.7400332269473
526.0087444132496
526.2503310014259
526.4640145510364
526.6490538029672
526.8047498065716
526.9304509393473
527.0255312518528
527.0894385382339
527.1216570224701
527.1217222832593
527.0892447430333
527.0238785053534
526.9253381102304
526.7934018339955
526.627892919182
526.4287085377373
526.1957892700724
525.9291495245116
525.6288594923342
525.295055354611
524.9279450140579
524.5277831913994
524.0948988262037
523.6296829905882
523.1325967406549
522.6041793721615
522.0450132873933
521.4557479280361
520.8370863321596
520.1898001767438
519.5147232602557
518.8127453859782
518.0848195117962
517.331971167123
516.5552843188478
515.7559053468365
514.9350056044584
514.093815687683
513.2335998356336
512.3556735798716
511.4614011237714
510.5521877389689
509.6295025934732
508.6948532997787
507.7497776686521
506.7958500744853
505.8346606461099
504.86785506948223
503.897112741205
502.9241532816831
501.9507496794633
500.9786957547384
500.00984623627664
499.04606978478387
498.08925688222376
497.1413276481803
496.204213487174
495.2798738915416
494.3702672675758
493.4773718760772
492.60317834667325
491.74967129896635
490.91884585284936
490.11268676820754
489.3331737082284
488.5822820956142
487.8619486390439
487.1741065596948
486.5206461305638
485.9034316220322
485.3242939212152
484.7850142139682
484.2873292872207
483.83291686145975
483.4233938542008
483.0603100566423
482.7451328346869
482.4792557107972
482.26397169306966
482.10049030441337
481.98991312315496
481.93322903918374
481.9313182295922
481.98493660186676
482.0947115265408
482.2611421908016
482.484569512014
482.76520978386384
483.1031122694767
483.4981762352401
483.9501399513128
484.4585657646309
485.0228628519396
485.64226703562673
486.315829959667
487.0424393398471
487.82079384111677
488.6494224113354
489.5266780321331
490.4507365873686
491.41960752922097
492.4311234885634
493.48296140071034
494.5726317063281
495.6974880441971
496.85474436056495
498.0414667644544
499.25460148622847
500.4909555446591
501.7472284687931
503.02002092061934
504.305819952937
505.6010416840768
506.9020353432733
508.20508366168315
509.50645432094757
510.8023734835066
512.0890744675095
513.3627835864536
514.6197478782889
515.856247638264
517.0686001131422
518.2532090897357
519.4065466860437
520.5251741297743
521.6057573866966
522.6450642724257
523.64002186252
524.5877032686694
525.4853377021774
526.3303213362448
527.1202244731162
527.852823632603
528.5260886209188
529.1381591126934
529.6873910239465
530.1723550914566
530.5919025888021
530.9451304840521
531.2313927264202
531.450311537327
531.6017383767978
531.6857756373066
531.7027580083703
531.6532592983051
531.5381228908316
531.3584266673201
531.1155181059758
530.8109684772159
530.4465617501494
530.0242935678916
529.5463251291935
529.0150098624156
528.4328460919096
527.8024979955325
527.1267890152519
526.4086657614133
525.6512111523117
524.8576172569475
524.0311817062632
523.1752773157011
522.2933341116307
521.388842713621
520.4653202412155
519.5263000428123
518.5753256338987
517.6159228582103
516.6515987662424
515.6858190351112
514.7220034632393
513.763511342715
512.8135992483592
511.87544506245916
510.95211584355377
510.04656519138905
509.16162502365427
508.29998312997367
507.464194551419
506.6566567826144
505.8796144894247
505.1351520744309
504.42517861176344
503.75144666545754
503.1155195051937
502.5187960012174
501.96250148565485
501.44768180137424
500.9752157791665
500.5457977823224
500.1599711877497
499.8181037691166
499.5204031009847
499.2669303716923
499.0575864046723
498.89213532934275
498.77021145287296
498.691306995841
498.654799417038
498.6599528362463
498.7059175179015
498.7917600798572
498.91644147864685
499.0788563367662
499.277824111243
499.51210230876836
499.7804018530654
500.0813760596272
500.41364656543993
500.77580047615066
501.16640472662556
501.58401786683197
502.02717958605325
502.4944436687612
502.98436896532746
503.49551647533815
504.02648090315245
504.5758602885258
505.14229282067066
505.7244362002119
506.3209902225289
506.93069921797144
507.552338864642
508.18474196947477
508.82676899202767
509.47732838762056
510.13538343334625
510.7999413797539
511.47007323748005
512.1448830312598
512.8235226290351
513.5052064916395
514.1891872581386
514.8747730258647
515.5613094604635
516.248183782779
516.934864273619
517.6208420053937
518.305664526409
518.988885790357
519.6700831592688
520.348864956556
521.0248357963562
521.6976423968383
522.3669491903318
523.0324401208458
523.6938225287278
524.3507955890411
525.0030817582958
525.6503790551193
526.2923892489238
526.9288239714314
527.559384791339
528.1837918074704
528.8017602844452
529.4130107285722
530.0172708057592
530.6142449085444
531.2036519905986
531.7851938576284
532.3585566761554
532.9234213169451
533.4794586974118
534.0263344234844
534.5637005426105
535.0912006539497
535.6084797172065
536.115156887118
536.6108486393873
537.0951700350082
537.5677296354785
538.02813104738
538.4759524563652
538.9107983809332
539.3322531405767
539.7398976983886
540.1333196700407
540.5120926330696
540.8758057397405
541.2240450797188
541.5564035196248
541.8724795890038
542.1718630773529
542.4541708411556
542.7190148224913
542.9660270895206
543.1948388699211
543.4050921932393
543.5964383444815
543.7685472448142
543.9210994649878
544.0537846396463
544.1663085686426
544.25839826296
544.3297894198096
544.3802358568194
544.4095035115843
544.417377398339
544.4036687395195
544.3682025802226
544.3108206434559
544.2313972879793
544.1298051200445
544.005961532206
543.8597899867551
543.6912358707879
543.5002756605414
543.2868910995238
543.0511001320439
542.7929418583379
542.5124791073333
542.2098053984495
541.885025561742
541.5382888296056
541.1697564499708
540.7796107296383
540.3680792528013
539.9354001824073
539.4818466409348
539.0077071898382
538.5133033592281
537.9989830644015
537.4651073111585
536.9120805585515
536.3403154403585
535.7502586421829
535.142390515151
534.5172007113107
533.875213979751
533.2169720418489
532.5430461307776
531.8540364856367
531.1505498988543
530.4332252794447
529.7027220032842
528.9597148090976
528.2049149821414
527.4390214105036
526.6627786859509
525.8769279849818
525.0822322285672
524.2794771165151
523.4694393363591
522.6529290571958
521.8307602209286
521.0037514655486
520.1727400814431
519.338558781339
518.502051864113
517.6640561395197
516.8254212542361
515.9870016976184
515.1496378465388
514.31418293967
513.4814775806392
512.6523592922899
511.82766550859776
511.0082058940459
510.19480021462294
509.3882417896815
508.58931119017143
507.79879001492566
507.0174289034963
506.24596581038776
505.48512234446264
504.7355980675298
503.998080210107
503.27321843758244
502.5616588013454
501.86401669477834
501.1808760875218
500.51279947940037
499.8603094438294
499.22391848953913
498.60409327379455
498.00128225502374
497.4159108663642
496.84835714151154
496.2989907874044
495.76814249172804
495.2561105746844
494.7631632683059
494.28953224940585
493.83543258318815
493.40103896560214
492.9864970281002
492.59192594546636
492.21741239494816
491.8630199320981
491.5287853384433
491.21471069003877
490.92078381312825
490.6469573088208
490.39316923322167
490.1593265638427
489.9453149452705
489.7510150659441
489.576273447832
489.4209235141673
489.28477577852743
489.1676278175249
489.0692764662498
488.9894820066455
488.9280132796104
488.88461170931953
488.8590209200769
488.85098144320085
488.8602123354921
488.88644747706877
488.929408494946
488.988810475036
489.0643784782386
489.15582686954434
489.2628780814875
489.3852416959225
489.5226414540177
489.67480520837637
489.8414502347372
490.0223076065971
490.21710934763956
490.42559961754534
490.64752835650614
490.8826448381629
491.1307196204339
491.3915139393703
491.6648059394517
491.9503796607101
492.2480116411712
492.5575033686392
492.87864596166946
493.21124154507635
493.5550959952907
493.91000722491117
494.275786154351
494.6522448368252
495.0391933114959
495.43644742787797
495.8437993153404
496.2610577124073
496.68800938595126
497.124446048466
497.5701519593981
498.02489140100914
498.48843780434953
498.96054393887164
499.4409470550897
499.9293806459321
500.4255446526876
500.9291368566361
501.43982751698786
501.9572691070031
502.48109943886936
503.01091859453084
503.54632062380006
504.08685968354735
504.63206872326344
505.1814585242987
505.73450152560525
506.2906618035326
506.84936400546894
507.4100084018919
507.97197304017726
508.53459410636214
509.0971879998944
509.6590429761165
510.2194152688986
510.77753849871
511.33260907519923
511.88381333262674
512.4302958050451
512.9711887767809
513.5056092751523
514.0326388687415
514.5513538958919
515.0608054771714
515.5600346856019
516.0480637463193
516.5239024918868
516.9865637989876
517.4350397645796
517.8683193149162
518.2853992995875
518.6852783166044
519.0669617973028
519.429458349585
519.7717847508274
520.0929797751237
520.3920896457287
520.6681907352848
520.9203751110012
521.1477623100582
521.3495111755599
521.5247989207159
521.6728395096471
521.7928798822319
521.8842046899894
521.9461518655829
521.9780776002576
521.9794086498154
521.9496158215455
521.8882224984814
521.7948130819747
521.6690061351483
521.5104952461186
521.3190109620515
521.0943457512155
520.8363456675552
520.5449059034279
520.2199967234077
519.8616367276982
519.469905278839
519.0449526637731
518.586977355906
518.0962513766545
517.573106489267
517.0179381660812
516.4312052622189
515.813423321487
515.1651734631507
514.487098233032
513.7799064740336
513.0443654165931
512.2812929518219
511.49158279432936
510.67618823478523
509.8361348816616
508.9725011211605
508.08639856163967
507.17899348208067
506.25148360008404
505.3051287463572
504.34124158683187
503.3611801246045
502.3663662012572
501.35826216862154
500.33836459522075
499.30821250403955
498.26938391037294
497.22350956377267
496.172260193511
495.11735763231405
494.0605772968388
493.00372914227785
491.9486718358805
490.8972898886876
489.8514970988662
488.81324438525644
487.7844926400097
486.7672380816378
485.763482771525
484.77525533634554
483.8045989325957
482.8535525427682
481.9241780526515
481.0185238087074
480.1386405645735
479.28657100853275
478.46433242623084
477.67393184793883
476.9173392124924
476.19649509806004
475.5133050109962
474.8696223993177
474.2672576164339
473.7079626465524
473.19341778352384
472.7252420322808
472.3049662103868
471.9340431794539
471.6138206622134
471.34555779019905
471.1304022857209
470.9693741691139
470.86338238964015
470.81320659994236
470.81948583812385
470.8827228144931
471.00326670339024
471.181316055327
471.4169045303864
471.7099047015252
472.06002590325863
472.4667907524831
472.92954488007655
473.44745625073796
474.01951300552776
474.64452647286026
475.32111093452556
476.0477077995785
476.82257549530334
477.6437891018975
478.50925397484394
479.4166829483228
480.363631210074
481.34749716134075
482.36552009544477
483.4147964273016
484.4922617650703
485.59473508734123
486.71890249376554
487.8613256940153
489.01847297862065
490.1867048212429
491.36231706182065
492.54153885251543
493.72056657576917
494.89557262872717
496.06270862234527
497.21812686933
498.35798684858923
499.4784749874703
500.5758311909468
501.6463381481458
502.686358477304
503.692336245329
504.6608197131373
505.5884790095099
506.47211197144503
507.30867533839165
508.0952823137268
508.82921426361736
509.5079352948232
510.12910326975503
510.6905906043945
511.1904620617728
511.62697898012294
511.9986230938472
512.304109879197
512.5424406221449
512.7128802672736
512.814968559931
512.8485072304173
512.8135337687772
512.7103448208552
512.539477112252
512.3017248776212
511.99815270496873
511.6300670028331
511.1990179221221
510.70679205100186
510.1553893341872
509.54701000457953
508.88401805287833
508.1689575558574
507.40453219984664
506.5936051710313
505.7391935398097
504.8444288276625
503.91257567772
502.946995032109
501.95113517542813
500.9285176916954
499.88271192771646
498.8173355048476
497.7360107603453
496.64237123376506
495.5400484601655
494.43263943591927
493.3237139422072
492.2167852065487
491.11529884974294
490.02261823562776
488.94200397747545
487.876613940851
486.8294778766351
485.8034969805202
484.8014445294459
483.82592613929313
482.87940885113727
481.9641857884566
481.0823858330426
480.2359646218516
479.4266834740146
478.65614182731235
477.92574954967915
477.2367221506285
476.59010742590556
475.98674967957635
475.42732694677755
474.91232991165674
474.4420766645946
474.0167194027674
473.63623651757104
473.3004603950032
473.00906664253085
472.7615879937418
472.5574176852892
472.39580881830886
472.2759090813778
472.1967455497379
472.15723369455844
472.15620398022986
472.1923847778765
472.2644487920185
472.37099400312337
472.5105551353562
472.68162579986574
472.882647695648
473.1120456254117
473.3682185187832
473.6495542355552
473.9544464689847
474.2812807869014
474.6284661980577
474.9944247904714
475.37759614466904
475.7764431146432
476.1894544221069
476.61515746157045
477.0521305505783
477.4989884496106
477.95440891272284
478.417099567053
478.88584738091663
479.35949130376014
479.83692976986634
480.3171322036238
480.79912416732236
481.28199645370614
481.76489415382656
482.2470295997155
482.7276778089129
483.2061653255627
483.68188071075906
484.15426735969675
484.62283182467013
485.08715264550386
485.5468588815103
486.001639280972
486.4512006070057
486.89528189035366
487.3336568838416
487.76611620590654
488.19250170517927
488.6126772639208
489.02653879426305
489.43400203148474
489.8349810083486
490.2294119025798
490.61723721376666
490.9984005714188
491.37285891020247
491.7405642957149
492.10148995921503
492.4556218984844
492.8029424721027
493.14343634528575
493.4770725702527
493.80382871408057
494.12366293393006
494.436523487456
494.7423651316491
495.0411113341996
495.33268237334124
495.61698196167805
495.89390399684993
496.1633352201643
496.4251316549418
496.6791542015977
496.9252365901443
497.16319707622193
497.39284564978414
497.6139782552203
497.8263843301241
498.0298391248921
498.224113627423
498.408971468635
498.5841482407145
498.74938538597365
498.90440041620946
499.04891166235024
499.18263461412073
499.3052673043615
499.4165239119695
499.51609620038676
499.60367824344127
499.67896935832016
499.74164420652977
499.7914036836211
499.8279340490493
499.85093177329674
499.8600978323804
499.85512332674233
499.8357143573741
499.80156868975
499.75240051876165
499.68793466384864
499.60789226729605
499.51201155227983
499.4000333766889
499.2717086133818
499.12680781131917
498.96510682929284
498.78640542285166
498.5905086195235
498.3772386048649
498.14644011985945
497.89795738808704
497.6316721743998
497.3474762718291
497.04527900726606
496.7250101322044
496.3866181937073
496.0300777067286
495.65538095727874
495.26254277622434
494.8516097263784
494.4226519188957
493.97576142453636
493.51105936753044
493.0286787829242
492.5287976742194
492.0115977082564
491.47731263954734
490.926186957137
490.35849353162325
489.7745424868499
489.1746484287965
488.55916304088925
487.9284571860098
487.2829314284745
486.62301111817146
485.94913926341223
485.2617912601606
484.5614632957541
483.84867381056773
483.1239693161781
482.3879127423243
481.6410892723389
480.8840966522579
480.1175550812839
479.34210620450085
478.5583944978847
477.76709454687597
476.9688880028229
476.16447341011707
475.3545585366492
474.5398503791007
473.72107566670024
472.8989640920356
472.07424901944285
471.2476703096902
470.41995952360355
469.5918732931606
468.76416576600576
467.937578644394
467.1128661287426
466.2907631280373
465.4720081284209
464.6573309233992
463.8474623942739
463.0431336769342
462.2450359816403
461.4538699115327
460.6703225810512
459.8950645815909
459.128764562343
458.3720601212645
457.6255877946238
456.8899560427211
456.1657642153205
455.45359982339886
454.7540162088019
454.06755595299796
453.39474135959944
452.7360738762969
452.0920356908002
451.46307813238576
450.84965395881716
450.25219089185435
449.67109829058177
449.1067651422546
448.5595492195978
448.02979688345556
447.5178277910301
447.0239437774625
446.54843346355483
446.09155065644694
445.653552016362
445.2346559001591
444.83506677980944
444.45496672605617
444.0945132846664
443.7538593024238
443.43313124699284
443.1324469674288
442.85190720299323
442.5915782376695
442.351531430068
442.1318151011252
441.93246150785325
441.75349593347863
441.5949152230303
441.45670995270206
441.3388537039288
441.2413011597575
441.16400138812713
441.1068760889922
441.069854845764
441.05283600881563
441.0557109513369
441.07836428275476
441.1206566861105
441.1824360317937
441.26353733986764
441.3637761688479
441.48295935275513
441.62087151893974
441.777285570542
441.95196222714986
442.14463867451576
442.35505435951944
442.5829155263474
442.827934294131
443.0897956387417
443.3681615781697
443.66268839932167
443.9729956185429
444.29870721213786
444.63941858033456
444.9947117214294
445.36414850814555
445.74727046351643
446.1436139902079
446.5526930719545
446.9740061391335
447.4070342362114
447.85123482217796
448.3060486624895
448.7708936121444
449.24517577556895
449.7282919404066
450.2196103577083
450.71849973354193
451.22430141391453
451.7363474954329
452.25396802531606
452.7764701835394
453.30316149920884
453.8333292899292
454.3662462400705
454.901182377512
455.4373973418186
455.9741612733017
456.5107232662131
457.0463322004163
457.5802467436084
458.111710499545
458.63999070074
459.16434279989977
459.6840143287009
460.19825251471644
460.7062894909194
461.20739299735095
461.7008297044669
462.185865704393
462.66178650243205
463.127888457688
463.58349685010825
464.0279428338832
464.4605710708715
464.8807473069758
465.2878418680574
465.68126365825265
466.06042651247907
466.42475481392006
466.7737041128319
467.1067379732817
467.4233508043869
467.72304444042686
468.0053394261385
468.2697817765285
468.5159321359632
468.74338333565123
468.95174951799527
469.1406552262567
469.3097593228729
469.45871966223496
469.58724083607814
469.69503225097804
469.7818340729657
469.8474148286121
469.89155175934326
469.91404833896814
469.9147209416845
469.8934051406768
469.84995315350966
469.7842201050433
469.6960983358691
469.58548390018916
469.4522934018121
469.29646995874623
469.117952094384
468.91670172690544
468.69268161639854
468.44586536203366
468.17624951621804
467.8838197786937
467.5685936405617
467.230582043113
466.86981459589896
466.48633645604565
466.0801944655153
465.6514739515415
465.2002706263375
464.72669375638395
464.23088504440506
463.71298998508263
463.17318648012474
462.6116722734555
462.02867039789186
461.4244439024277
460.7992672248947
460.15347650993453
459.4874395270134
458.80155684393725
458.0962720545787
457.3720379820372
456.6293586695874
455.8687692383166
455.09085659638754
454.2962796216426
453.4857499154017
452.6600387406536
451.819961434944
450.9663982347577
450.1002859283123
449.2226219528707
448.3344765487903
447.4370001230402
446.531435047884
445.6191036270903
444.7013917507456
443.7797763040865
442.8557933848638
441.931063179283
441.0072664724097
