503.3136537561651
503.31728539872313
503.3209170401434
503.3245486801394
503.32818031842464
503.3318119547124
503.335443588716
503.3390752201484
503.34270684872297
503.34633847415296
503.3499700961514
503.35360171443165
503.3572333287067
503.36086493868936
503.3644965440925
503.36812814462894
503.3717597400117
503.3753913299539
503.3790229141688
503.3826544923694
503.38628606426835
503.38991762957846
503.3935491880128
503.3971807392844
503.4008122831061
503.40444381919076
503.40807534725116
503.4117068669999
503.4153383781496
503.4189698804129
503.4226013735023
503.42623285713046
503.42986433101
503.43349579485346
503.43712724837326
503.44075869128153
503.4443901232904
503.44802154411207
503.4516529534586
503.455284351042
503.4589157365739
503.462547109766
503.46617847032996
503.46980981797753
503.4734411524204
503.4770724733702
503.4807037805384
503.48433507363654
503.487966352376
503.4915976164681
503.4952288656242
503.4988600995558
503.50249131797443
503.50612252059125
503.5097537071173
503.51338487726355
503.51701603074105
503.52064716726056
503.5242782865329
503.527909388269
503.5315404721799
503.53517153797645
503.53880258536935
503.5424336140694
503.5460646237872
503.5496956142332
503.55332658511827
503.55695753615316
503.5605884670489
503.5642193775162
503.5678502672662
503.57148113600977
503.575111983458
503.5787428093216
503.5823736133117
503.5860043951392
503.5896351545151
503.59326589115074
503.59689660475703
503.6005272950448
503.6041579617248
503.6077886045081
503.6114192231056
503.6150498172284
503.61868038658747
503.62231093089406
503.6259414498594
503.62957194319495
503.63320241061194
503.63683285182185
503.64046326653613
503.6440936544665
503.64772401532457
503.6513543488221
503.6549846546708
503.6586149325823
503.6622451822683
503.6658754034405
503.6695055958106
503.6731357590901
503.6767658929904
503.68039599722294
503.68402607149926
503.6876561155308
503.6912861290292
503.6949161117062
503.6985460632733
503.70217598344186
503.70580587192364
503.7094357284303
503.71306555267336
503.71669534436444
503.72032510321526
503.7239548289373
503.72758452124197
503.73121417984055
503.7348438044445
503.73847339476526
503.7421029505143
503.7457324714029
503.749361957142
503.75299140744266
503.75662082201563
503.7602502005717
503.76387954282166
503.76750884847604
503.77113811724564
503.77476734884124
503.7783965429736
503.78202569935354
503.7856548176918
503.7892838976992
503.792912939086
503.7965419415626
503.8001709048391
503.8037998286253
503.8074287126311
503.81105755656665
503.81468636014176
503.8183151230661
503.8219438450493
503.825572525801
503.8292011650309
503.83282976244834
503.83645831776255
503.8400868306825
503.84371530091687
503.8473437281747
503.85097211216464
503.8546004525955
503.85822874917574
503.86185700161366
503.8654852096173
503.86911337289473
503.87274149115376
503.876369564102
503.879997591447
503.8836255728967
503.88725350815855
503.89088139694
503.8945092389482
503.8981370338903
503.9017647814734
503.90539248140465
503.909020133391
503.9126477371391
503.91627529235564
503.9199027987471
503.92353025601994
503.9271576638806
503.93078502203537
503.9344123301902
503.93803958805086
503.9416667953234
503.94529395171355
503.9489210569269
503.9525481106688
503.956175112644
503.9598020625575
503.9634289601139
503.9670558050178
503.9706825969739
503.9743093356868
503.9779360208614
503.98156265220234
503.985189229414
503.9888157522008
503.9924422202672
503.9960686333178
503.99969499105725
504.0033212931904
504.0069475394222
504.01057372945763
504.01419986300186
504.01782593975975
504.0214519594357
504.02507792173435
504.02870382636036
504.03232967301835
504.03595546141275
504.039581191248
504.04320686222843
504.04683247405876
504.0504580264434
504.0540835190867
504.05770895169314
504.06133432396757
504.06495963561485
504.06858488633964
504.07221007584656
504.07583520384026
504.07946027002515
504.0830852741059
504.0867102157871
504.0903350947734
504.0939599107695
504.09758466348
504.10120935260977
504.10483397786345
504.1084585389459
504.11208303556225
504.11570746741734
504.11933183421604
504.12295613566323
504.1265803714638
504.13020454132277
504.1338286449451
504.1374526820356
504.14107665229915
504.14470055544064
504.1483243911647
504.15194815917596
504.1555718591793
504.1591954908796
504.1628190539815
504.1664425481898
504.1700659732095
504.1736893287456
504.1773126145032
504.1809358301874
504.1845589755036
504.1881820501568
504.1918050538519
504.1954279862938
504.1990508471873
504.20267363623736
504.206296353149
504.20991899762714
504.21354156937684
504.2171640681032
504.22078649351135
504.22440884530636
504.2280311231933
504.23165332687756
504.2352754560644
504.23889751045897
504.2425194897663
504.2461413936916
504.2497632219398
504.2533849742164
504.25700665022634
504.2606282496748
504.2642497722669
504.26787121770747
504.27149258570114
504.2751138759521
504.2787350881646
504.28235622204295
504.28597727729164
504.2895982536153
504.2932191507185
504.2968399683058
504.30046070608125
504.3040813637491
504.3077019410131
504.3113224375769
504.3149428531443
504.31856318741904
504.3221834401046
504.32580361090425
504.32942369952104
504.33304370565804
504.3366636290183
504.34028346930506
504.34390322622164
504.3475228994713
504.3511424887573
504.35476199378274
504.35838141425063
504.3620007498638
504.3656200003246
504.369239165335
504.3728582445966
504.37647723781095
504.3800961446792
504.3837149649024
504.3873336981816
504.3909523442177
504.3945709027115
504.3981893733636
504.40180775587476
504.4054260499453
504.4090442552755
504.4126623715655
504.4162803985156
504.4198983358259
504.4235161831963
504.42713394032637
504.4307516069156
504.4343691826633
504.4379866672688
504.44160406043113
504.44522136184935
504.44883857122215
504.45245568824805
504.4560727126253
504.459689644052
504.46330648222613
504.46692322684555
504.4705398776081
504.47415643421107
504.4777728963521
504.4813892637284
504.4850055360372
504.48862171297594
504.49223779424153
504.4958537795309
504.49946966854066
504.50308546096755
504.50670115650826
504.51031675485945
504.5139322557178
504.51754765878
504.52116296374277
504.5247781703025
504.5283932781555
504.5320082869979
504.5356231965262
504.5392380064369
504.54285271642664
504.5464673261921
504.55008183543
504.5536962438367
504.55731055110857
504.56092475694174
504.5645388610325
504.568152863077
504.5717667627713
504.5753805598114
504.57899425389326
504.5826078447129
504.5862213319664
504.58983471534964
504.5934479945589
504.59706116929
504.60067423923863
504.6042872041004
504.6079000635706
504.61151281734476
504.6151254651187
504.61873800658816
504.62235044144893
504.62596276939655
504.62957499012634
504.6331871033334
504.6367991087128
504.64041100595944
504.64402279476815
504.64763447483404
504.65124604585196
504.654857507517
504.6584688595241
504.66208010156777
504.6656912333427
504.6693022545438
504.6729131648659
504.67652396400365
504.68013465165166
504.6837452275046
504.68735569125704
504.69096604260346
504.69457628123826
504.6981864068556
504.7017964191497
504.70540631781466
504.70901610254475
504.7126257730339
504.71623532897604
504.71984477006515
504.7234540959952
504.72706330645985
504.7306724011527
504.73428137976714
504.73789024199675
504.7414989875348
504.7451076160743
504.74871612730806
504.7523245209287
504.7559327966288
504.759540954101
504.7631489930376
504.76675691313096
504.77036471407325
504.77397239555614
504.7775799572713
504.7811873989102
504.78479472016454
504.78840192072573
504.792009000285
504.7956159585334
504.7992227951619
504.80282950986145
504.8064361023231
504.81004257223765
504.8136489192958
504.81725514318816
504.82086124360524
504.8244672202371
504.8280730727737
504.8316788009048
504.8352844043201
504.83888988270894
504.84249523576057
504.8461004631639
504.84970556460746
504.8533105397795
504.8569153883683
504.8605201100619
504.8641247045481
504.8677291715147
504.8713335106496
504.87493772164055
504.87854180417514
504.88214575794075
504.8857495826247
504.8893532779142
504.8929568434961
504.89656027905687
504.9001635842827
504.90376675885966
504.9073698024737
504.9109727148108
504.91457549555696
504.918178144398
504.92178066101985
504.92538304510833
504.9289852963492
504.93258741442844
504.93618939903206
504.9397912498458
504.9433929665553
504.94699454884596
504.9505959964034
504.9541973089132
504.9577984860606
504.96139952753094
504.9650004330098
504.9686012021824
504.97220183473416
504.9758023303501
504.97940268871537
504.98300290951454
504.98660299243227
504.9902029371534
504.99380274336283
504.99740241074517
505.00100193898527
505.004601327768
505.0082005767782
505.01179968570057
505.01539865421967
505.0189974820199
505.0225961687855
505.02619471420064
505.0297931179497
505.03339137971705
505.03698949918714
505.0405874760446
505.04418530997407
505.0477830006597
505.0513805477857
505.054977951036
505.0585752100943
505.06217232464417
505.0657692943688
505.0693661189515
505.07296279807554
505.07655933142394
505.08015571867975
505.083751959526
505.0873480536453
505.09094400072
505.09453980043224
505.09813545246413
505.10173095649736
505.1053263122134
505.10892151929363
505.11251657741957
505.11611148627264
505.1197062455341
505.1233008548853
505.1268953140076
505.1304896225821
505.13408378028987
505.1376777868119
505.1412716418289
505.14486534502146
505.1484588960701
505.15205229465516
505.15564554045716
505.15923863315663
505.16283157243413
505.16642435796973
505.17001698944375
505.1736094665365
505.1772017889283
505.1807939562992
505.18438596832937
505.1879778246988
505.1915695250874
505.195161069175
505.1987524566413
505.2023436871656
505.20593476042734
505.2095256761062
505.21311643388174
505.21670703343364
505.2202974744413
505.2238877565843
505.2274778795421
505.2310678429941
505.23465764661967
505.238247290098
505.24183677310805
505.24542609532875
505.24901525643884
505.25260425611725
505.2561930940427
505.25978176989395
505.26337028334945
505.2669586340877
505.2705468217872
505.27413484612646
505.27772270678395
505.28131040343817
505.2848979357674
505.2884853034499
505.2920725061639
505.2956595435877
505.2992464153996
505.30283312127756
505.3064196608997
505.31000603394375
505.3135922400876
505.317178279009
505.32076415038557
505.32434985389466
505.3279353892134
505.3315207560187
505.3351059539872
505.3386909827956
505.34227584212033
505.34586053163764
505.34944505102374
505.35302939995483
505.3566135781067
505.3601975851551
505.3637814207758
505.36736508464435
505.37094857643604
505.37453189582595
505.3781150424892
505.3816980161008
505.3852808163359
505.3888634428696
505.39244589537645
505.39602817353114
505.39961027700826
505.403192205482
505.40677395862633
505.41035553611493
505.4139369376213
505.41751816281896
505.42109921138115
505.4246800829809
505.42826077729126
505.43184129398526
505.43542163273594
505.43900179321656
505.4425817751004
505.44616157806047
505.4497412017698
505.4533206459015
505.4568999101283
505.4604789941226
505.4640578975567
505.467636620103
505.4712151614341
505.4747935212225
505.47837169914067
505.4819496948609
505.48552750805527
505.48910513839576
505.49268258555423
505.4962598492024
505.49983692901185
505.50341382465433
505.5069905358015
505.5105670621248
505.51414340329563
505.51771955898573
505.52129552886674
505.52487131261034
505.528446909888
505.53202232037086
505.5355975437302
505.539172579637
505.54274742776227
505.54632208777673
505.54989655935094
505.55347084215543
505.55704493586074
505.5606188401372
505.56419255465505
505.56776607908444
505.5713394130952
505.57491255635694
505.5784855085393
505.5820582693117
505.58563083834304
505.58920321530206
505.59277539985703
505.596347391676
505.59991919042716
505.60349079577907
505.60706220739996
505.6106334249581
505.614204448122
505.6177752765601
505.62134590994094
505.62491634793275
505.6284865902038
505.63205663642213
505.63562648625555
505.63919613937185
505.6427655954386
505.64633485412344
505.6499039150939
505.6534727780178
505.6570414425629
505.6606099083971
505.66417817518834
505.66774624260495
505.6713141103147
505.67488177798543
505.67844924528447
505.6820165118794
505.68558357743757
505.68915044162634
505.69271710411283
505.69628356456394
505.69984982264657
505.7034158780274
505.70698173037306
505.71054737935003
505.714112824625
505.71767806586433
505.7212431027343
505.72480793490115
505.7283725620308
505.7319369837893
505.73550119984236
505.73906520985577
505.74262901349505
505.7461926104255
505.74975600031223
505.7533191828203
505.756882157615
505.7604449243614
505.7640074827249
505.7675698323709
505.7711319729648
505.77469390417184
505.77825562565715
505.78181713708557
505.78537843812217
505.7889395284318
505.7925004076793
505.7960610755291
505.79962153164536
505.8031817756922
505.8067418073339
505.8103016262345
505.813861232058
505.81742062446835
505.8209798031295
505.8245387677049
505.8280975178578
505.8316560532518
505.83521437355046
505.8387724784176
505.8423303675164
505.8458880405102
505.8494454970622
505.8530027368357
505.85655975949396
505.8601165647
505.8636731521166
505.86722952140633
505.8707856722316
505.8743416042547
505.8778973171378
505.8814528105428
505.8850080841313
505.88856313756503
505.89211797050564
505.895672582615
505.89922697355485
505.9027811429868
505.9063350905725
505.9098888159739
505.9134423188526
505.91699559887036
505.9205486556888
505.9241014889691
505.9276540983725
505.93120648356046
505.9347586441944
505.93831057993555
505.9418622904451
505.9454137753843
505.9489650344145
505.95251606719705
505.9560668733933
505.9596174526647
505.9631678046725
505.96671792907784
505.97026782554155
505.97381749372414
505.9773669332859
505.9809161438874
505.9844651251889
505.9880138768507
505.9915623985329
505.99511068989534
505.99865875059743
506.00220658029855
506.0057541786581
506.00930154533523
506.01284867998913
506.01639558227873
506.0199422518632
506.02348868840147
506.0270348915525
506.03058086097496
506.0341265963276
506.0376720972689
506.04121736345735
506.0447623945512
506.0483071902087
506.0518517500876
506.0553960738458
506.05894016114087
506.0624840116303
506.0660276249715
506.06957100082184
506.0731141388386
506.0766570386792
506.0801997000009
506.0837421224611
506.08728430571716
506.0908262494264
506.0943679532462
506.09790941683366
506.1014506398459
506.10499162194026
506.1085323627743
506.1120728620052
506.1156131192903
506.11915313428665
506.12269290665165
506.1262324360424
506.12977172211583
506.1333107645288
506.136849562938
506.14038811700004
506.1439264263712
506.1474644907074
506.1510023096645
506.1545398828981
506.1580772100639
506.1616142908173
506.1651511248141
506.16868771171005
506.1722240511609
506.17576014282224
506.1792959863493
506.18283158139695
506.18636692762004
506.1899020246734
506.19343687221215
506.1969714698911
506.20050581736484
506.2040399142878
506.2075737603144
506.211107355099
506.21464069829574
506.2181737895586
506.22170662854126
506.22523921489744
506.2287715482811
506.2323036283459
506.2358354547456
506.23936702713365
506.2428983451633
506.24642940848787
506.24996021676054
506.2534907696346
506.25702106676283
506.2605511077978
506.2640808923919
506.26761042019723
506.27113969086565
506.2746687040486
506.27819745939735
506.2817259565628
506.28525419519576
506.28878217494696
506.29230989546693
506.29583735640597
506.29936455741415
506.30289149814155
506.30641817823823
506.3099445973543
506.3134707551395
506.3169966512436
506.3205222853161
506.3240476570064
506.3275727659635
506.3310976118365
506.33462219427463
506.3381465129265
506.3416705674407
506.3451943574652
506.34871788264775
506.352241142636
506.355764137077
506.35928686561795
506.36280932790567
506.36633152358706
506.3698534523088
506.3733751137173
506.37689650745904
506.3804176331802
506.38393849052693
506.3874590791455
506.3909793986819
506.3944994487821
506.3980192290918
506.40153873925635
506.40505797892104
506.4085769477307
506.41209564533017
506.4156140713641
506.4191322254768
506.4226501073125
506.42616771651535
506.4296850527295
506.4332021155991
506.4367189047683
506.4402354198811
506.44375166058114
506.44726762651214
506.4507833173178
506.45429873264186
506.457813872128
506.46132873541944
506.46484332215925
506.46835763199044
506.4718716645558
506.4753854194979
506.4788988964593
506.48241209508285
506.4859250150113
506.4894376558872
506.4929500173529
506.49646209905075
506.4999739006231
506.50348542171207
506.50699666195953
506.5105076210074
506.51401829849704
506.5175286940697
506.5210388073666
506.52454863802893
506.5280581856979
506.5315674500147
506.53507643062073
506.5385851271575
506.54209353926615
506.5456016665879
506.549109508764
506.5526170654356
506.55612433624367
506.559631320829
506.5631380188323
506.56664442989415
506.5701505536548
506.57365638975455
506.57716193783347
506.5806671975316
506.5841721684891
506.58767685034593
506.591181242742
506.5946853453173
506.598189157712
506.6016926795661
506.6051959105197
506.6086988502128
506.6122014982856
506.615703854378
506.6192059181302
506.6227076891822
506.6262091671739
506.6297103517451
506.63321124253537
506.6367118391846
506.6402121413324
506.64371214861796
506.64721186068016
506.6507112771575
506.6542103976882
506.6577092219103
506.6612077494616
506.6647059799799
506.66820391310296
506.6717015484684
506.67519888571326
506.6786959244745
506.68219266438894
506.6856891050935
506.68918524622484
506.6926810874196
506.6961766283142
506.6996718685451
506.70316680774874
506.70666144556174
506.71015578162053
506.7136498155613
506.7171435470201
506.72063697563306
506.7241301010364
506.7276229228663
506.731115440759
506.73460765435027
506.73809956327557
506.7415911671702
506.74508246566904
506.74857345840667
506.75206414501724
506.7555545251349
506.75904459839364
506.7625343644273
506.76602382286967
506.76951297335415
506.77300181551425
506.77649034898343
506.7799785733947
506.7834664883809
506.78695409357476
506.7904413886089
506.7939283731156
506.79741504672745
506.800901409077
506.80438745979666
506.80787319851845
506.8113586248745
506.81484373849673
506.81832853901676
506.82181302606625
506.8252971992771
506.82878105828115
506.8322646027101
506.8357478321956
506.8392307463688
506.8427133448612
506.84619562730416
506.8496775933294
506.8531592425687
506.8566405746541
506.86012158921733
506.86360228589035
506.86708266430503
506.87056272409325
506.8740424648869
506.8775218863178
506.8810009880177
506.8844797696182
506.887958230751
506.89143637104814
506.894914190142
506.89839168766514
506.90186886325034
506.90534571653063
506.908822247139
506.91229845470855
506.9157743388722
506.91924989926304
506.92272513551404
506.92620004725825
506.92967463412845
506.9331488957574
506.93662283177775
506.9400964418222
506.9435697255234
506.94704268251405
506.950515312427
506.953987614895
506.95745958955115
506.9609312360284
506.96440255395976
506.96787354297805
506.9713442027163
506.9748145328075
506.97828453288446
506.9817542025802
506.98522354152794
506.9886925493614
506.9921612257143
506.9956295702201
506.99909758251204
507.00256526222336
507.0060326089873
507.0094996224374
507.012966302207
507.01643264792995
507.0198986592401
507.0233643357716
507.0268296771586
507.03029468303555
507.03375935303677
507.0372236867971
507.04068768395143
507.04415134413455
507.04761466698153
507.0510776521272
507.0545402992067
507.058002607855
507.06146457770717
507.06492620839856
507.06838749956466
507.071848450841
507.0753090618633
507.07876933226737
507.0822292616891
507.08568884976455
507.08914809612986
507.0926070004215
507.09606556227607
507.0995237813303
507.10298165722077
507.1064391895844
507.10989637805835
507.1133532222799
507.11680972188617
507.1202658765145
507.123721685802
507.12717714938606
507.13063226690394
507.134087037993
507.13754146229064
507.14099553943413
507.14444926906083
507.1479026508081
507.15135568431344
507.1548083692147
507.1582607051499
507.16171269175686
507.16516432867354
507.168615615538
507.1720665519882
507.17551713766227
507.1789673721979
507.1824172552332
507.1858667864061
507.1893159653547
507.1927647917172
507.19621326513186
507.19966138523716
507.2031091516718
507.20655656407473
507.2100036220851
507.213450325342
507.21689667348494
507.220342666153
507.22378830298555
507.22723358362225
507.2306785077027
507.23412307486626
507.23756728475234
507.24101113700056
507.24445463125073
507.24789776714294
507.25134054431726
507.25478296241397
507.2582250210734
507.261666719936
507.26510805864234
507.2685490368332
507.271989654149
507.2754299102306
507.27886980471874
507.28230933725433
507.28574850747816
507.289187315031
507.29262575955374
507.2960638406877
507.2995015580742
507.3029389113548
507.306375900171
507.3098125241646
507.31324878297744
507.3166846762516
507.320120203629
507.32355536475154
507.3269901592611
507.3304245867995
507.3338586470089
507.3372923395315
507.3407256640095
507.3441586200853
507.3475912074015
507.35102342560083
507.35445527432614
507.35788675322044
507.36131786192675
507.3647486000881
507.3681789673475
507.3716089633482
507.37503858773346
507.37846784014675
507.38189672023157
507.38532522763114
507.38875336198873
507.3921811229478
507.3956085101519
507.39903552324483
507.4024621618704
507.4058884256723
507.4093143142942
507.41273982738005
507.41616496457425
507.4195897255214
507.42301410986636
507.4264381172537
507.4298617473279
507.43328499973325
507.4367078741144
507.4401303701162
507.4435524873835
507.4469742255611
507.45039558429414
507.45381656322786
507.4572371620078
507.46065738027994
507.4640772176907
507.46749667388656
507.4709157485137
507.4743344412183
507.477752751647
507.4811706794468
507.4845882242645
507.48800538574744
507.491422163543
507.49483855729875
507.49825456666224
507.5016701912813
507.5050854308039
507.5085002848781
507.51191475315215
507.51532883527454
507.51874253089375
507.52215583965824
507.52556876121673
507.52898129521793
507.53239344131055
507.5358051991433
507.5392165683651
507.5426275486251
507.5460381395727
507.5494483408571
507.55285815212767
507.556267573034
507.55967660322574
507.5630852423525
507.56649349006386
507.5699013460097
507.5733088098399
507.5767158812042
507.580122559753
507.5835288451366
507.5869347370052
507.5903402350092
507.59374533879884
507.5971500480247
507.6005543623372
507.60395828138724
507.60736180482525
507.610764932302
507.61416766346827
507.61756999797456
507.6209719354714
507.62437347560956
507.62777461804
507.6311753624137
507.63457570838193
507.6379756555958
507.64137520370684
507.6447743523664
507.64817310122623
507.65157144993793
507.6549693981532
507.6583669455234
507.66176409169987
507.66516083633394
507.6685571790773
507.67195311958164
507.6753486574986
507.6787437924801
507.68213852417796
507.68553285224414
507.6889267763305
507.6923202960892
507.69571341117273
507.6991061212335
507.7024984259243
507.7058903248982
507.7092818178081
507.71267290430694
507.71606358404745
507.71945385668266
507.7228437218654
507.7262331792482
507.72962222848366
507.73301086922413
507.7363991011222
507.7397869238306
507.7431743370022
507.74656134028976
507.74994793334633
507.75333411582494
507.7567198873784
507.7601052476597
507.76349019632187
507.7668747330184
507.77025885740306
507.7736425691295
507.77702586785165
507.78040875322324
507.7837912248982
507.7871732825305
507.790554925774
507.7939361542832
507.7973169677124
507.8006973657165
507.8040773479503
507.8074569140689
507.8108360637274
507.81421479658127
507.8175931122861
507.8209710104976
507.82434849087156
507.8277255530637
507.83110219672983
507.83447842152566
507.8378542271072
507.8412296131304
507.84460457925127
507.8479791251258
507.85135325041017
507.85472695476085
507.8581002378345
507.8614730992882
507.86484553877915
507.86821755596463
507.8715891505025
507.87496032205047
507.87833107026665
507.8817013948093
507.8850712953364
507.88844077150645
507.8918098229784
507.8951784494112
507.898546650464
507.90191442579624
507.90528177506746
507.9086486979371
507.91201519406457
507.9153812631097
507.9187469047323
507.9221121185925
507.9254769043504
507.928841261666
507.9322051901996
507.9355686896116
507.9389317595625
507.942294399713
507.94565660972387
507.9490183892559
507.95237973796986
507.9557406555265
507.95910114158676
507.96246119581167
507.9658208178622
507.96918000739913
507.97253876408297
507.97589708757425
507.9792549775333
507.9826124336204
507.98596945549605
507.98932604282106
507.99268219525663
507.9960379124642
507.9993931941052
508.0027480398413
508.00610244933443
508.0094564222469
508.01280995824106
508.0161630569795
508.01951571812504
508.0228679413407
508.02621972628924
508.0295710726333
508.03292198003567
508.03627244815914
508.0396224766665
508.0429720652206
508.0463212134845
508.0496699211211
508.05301818779355
508.05636601316485
508.05971339689825
508.06306033865746
508.06640683810645
508.06975289490936
508.0730985087306
508.0764436792348
508.07978840608655
508.0831326889505
508.0864765274915
508.08981992137467
508.093162870265
508.0965053738279
508.0998474317288
508.1031890436335
508.1065302092078
508.10987092811763
508.113211200029
508.11655102460793
508.1198904015206
508.1232293304332
508.12656781101225
508.12990584292413
508.1332434258351
508.1365805594113
508.139917243319
508.1432534772242
508.1465892607931
508.14992459369194
508.1532594755871
508.1565939061451
508.1599278850323
508.16326141191496
508.1665944864591
508.16992710833085
508.1732592771965
508.17659099272225
508.1799222545743
508.1832530624189
508.1865834159222
508.1899133147509
508.19324275857196
508.19657174705264
508.19990027986057
508.2032283566633
508.2065559771287
508.2098831409245
508.21320984771876
508.21653609717976
508.21986188897597
508.2231872227759
508.22651209824846
508.22983651506263
508.23316047288733
508.236483971392
508.2398070102464
508.2431295891205
508.2464517076843
508.2497733656081
508.2530945625625
508.25641529821803
508.25973557224495
508.26305538431404
508.2663747340963
508.2696936212625
508.27301204548337
508.27633000643016
508.2796475037743
508.28296453718747
508.2862811063418
508.2895972109096
508.2929128505633
508.29622802497545
508.2995427338184
508.30285697676493
508.30617075348835
508.3094840636619
508.3127969069591
508.3161092830534
508.3194211916185
508.32273263232844
508.3260436048573
508.32935410887933
508.33266414406864
508.33597371009944
508.33928280664566
508.34259143338124
508.3458995899804
508.3492072761172
508.35251449146597
508.355821235701
508.35912750849695
508.3624333095289
508.36573863847195
508.36904349500116
508.37234787879186
508.37565178951957
508.37895522685983
508.3822581904884
508.38556068008086
508.3888626953129
508.3921642358604
508.3954653013992
508.39876589160565
508.40206600615613
508.40536564472734
508.40866480699594
508.4119634926391
508.4152617013341
508.41855943275834
508.4218566865892
508.42515346250445
508.42844976018193
508.43174557929945
508.4350409195348
508.43833578056604
508.44163016207096
508.4449240637274
508.44821748521315
508.45151042620626
508.454802886385
508.4580948654276
508.4613863630126
508.46467737881846
508.46796791252393
508.4712579638077
508.47454753234854
508.4778366178256
508.481125219918
508.484413338305
508.48770097266595
508.4909881226803
508.4942747880276
508.4975609683876
508.5008466634398
508.5041318728639
508.50741659634
508.51070083354796
508.5139845841676
508.51726784787877
508.52055062436114
508.52383291329477
508.52711471435975
508.53039602723663
508.5336768516062
508.53695718714914
508.54023703354653
508.54351639047934
508.54679525762833
508.5500736346745
508.55335152129885
508.5566289171826
508.5599058220072
508.5631822354543
508.5664581572056
508.5697335869428
508.57300852434776
508.57628296910286
508.57955692089024
508.582830379392
508.58610334429056
508.5893758152682
508.59264779200737
508.59591927419035
508.59919026149953
508.6024607536175
508.6057307502268
508.6090002510101
508.6122692556502
508.61553776383005
508.618805775233
508.6220732895425
508.6253403064421
508.6286068256155
508.63187284674643
508.6351383695188
508.63840339361684
508.6416679187249
508.64493194452746
508.64819547070886
508.65145849695375
508.6547210229468
508.6579830483728
508.66124457291687
508.66450559626435
508.66776611810053
508.67102613811073
508.6742856559805
508.6775446713956
508.68080318404157
508.68406119360395
508.6873186997683
508.69057570222014
508.69383220064526
508.6970881947292
508.70034368415793
508.7035986686177
508.70685314779473
508.7101071213755
508.71336058904615
508.7166135504932
508.71986600540333
508.72311795346343
508.72636939436086
508.7296203277832
508.73287075341807
508.73612067095326
508.7393700800766
508.74261898047587
508.74586737183915
508.7491152538547
508.75236262621104
508.75560948859686
508.75885584070113
508.7621016822128
508.7653470128206
508.7685918322135
508.7718361400804
508.7750799361105
508.77832321999324
508.78156599141823
508.78480825007557
508.78804999565557
508.79129122784855
508.79453194634505
508.7977721508354
508.8010118410101
508.80425101656
508.807489677176
508.8107278225492
508.813965452371
508.8172025663331
508.8204391641274
508.82367524544577
508.8269108099802
508.83014585742274
508.83338038746535
508.83661439980017
508.8398478941193
508.8430808701147
508.84631332747824
508.84954526590184
508.85277668507763
508.85600758469775
508.85923796445456
508.86246782404044
508.86569716314796
508.86892598146994
508.8721542786992
508.87538205452904
508.8786093086529
508.8818360407646
508.8850622505578
508.8882879377262
508.8915131019636
508.89473774296414
508.8979618604218
508.9011854540305
508.90440852348445
508.9076310684778
508.91085308870504
508.9140745838605
508.91729555363906
508.9205159977356
508.923735915845
508.9269553076623
508.9301741728831
508.9333925112031
508.9366103223182
508.9398276059243
508.9430443617174
508.94626058939355
508.94947628864895
508.9526914591801
508.9559061006836
508.9591202128564
508.96233379539547
508.96554684799764
508.96875937035986
508.9719713621795
508.97518282315366
508.9783937529795
508.9816041513544
508.98481401797574
508.98802335254106
508.991232154748
508.99444042429434
508.99764816087816
509.0008553641975
509.0040620339504
509.0072681698349
509.0104737715493
509.01367883879186
509.0168833712611
509.0200873686557
509.02329083067445
509.0264937570158
509.02969614737833
509.03289800146047
509.03609931896074
509.0393000995779
509.0425003430106
509.04570004895766
509.048899217118
509.05209784719057
509.05529593887456
509.0584934918694
509.06169050587425
509.0648869805883
509.06808291571076
509.071278310941
509.0744731659787
509.0776674805235
509.0808612542752
509.08405448693395
509.08724717819985
509.09043932777297
509.0936309353534
509.0968220006413
509.10001252333666
509.10320250313987
509.10639193975146
509.109580832872
509.112769182202
509.1159569874418
509.1191442482922
509.1223309644539
509.125517135628
509.12870276151546
509.13188784181705
509.135072376234
509.13825636446757
509.14143980621895
509.1446227011894
509.14780504908015
509.1509868495924
509.1541681024272
509.157348807286
509.16052896387
509.1637085718804
509.16688763101877
509.1700661409867
509.17324410148615
509.176421512219
509.1795983728872
509.18277468319286
509.1859504428386
509.18912565152675
509.19230030895994
509.195474414841
509.19864796887293
509.20182097075906
509.20499342020287
509.20816531690787
509.2113366605778
509.21450745091636
509.2176776876273
509.2208473704146
509.2240164989822
509.22718507303387
509.23035309227305
509.2335205564033
509.2366874651283
509.239853818152
509.2430196151787
509.2461848559125
509.2493495400578
509.252513667319
509.2556772374006
509.25884025000744
509.26200270484435
509.26516460161645
509.26832594002906
509.2714867197875
509.2746469405971
509.2778066021632
509.2809657041911
509.28412424638634
509.2872822284547
509.29043965010203
509.29359651103425
509.2967528109576
509.2999085495786
509.30306372660414
509.3062183417413
509.30937239469733
509.3125258851793
509.3156788128946
509.3188311775508
509.3219829788558
509.32513421651754
509.32828489024416
509.33143499974346
509.3345845447235
509.33773352489277
509.3408819399598
509.34402978963305
509.34717707362154
509.3503237916344
509.3534699433811
509.35661552857107
509.35976054691344
509.36290499811764
509.3660488818931
509.369192197949
509.3723349459948
509.3754771257401
509.3786187368945
509.38175977916796
509.3849002522703
509.3880401559114
509.3911794898012
509.39431825364943
509.39745644716606
509.4005940700612
509.40373112204463
509.40686760282654
509.4100035121172
509.413138849627
509.4162736150664
509.4194078081465
509.4225414285785
509.4256744760738
509.428806950344
509.4319388511004
509.43507017805484
509.43820093091915
509.4413311094055
509.44446071322625
509.4475897420938
509.4507181957207
509.4538460738198
509.4569733761042
509.46010010228713
509.4632262520819
509.46635182520197
509.4694768213607
509.47260124027105
509.4757250816459
509.4788483451981
509.48197103064047
509.48509313768557
509.488214666046
509.4913356154349
509.4944559855654
509.4975757761514
509.50069498690675
509.50381361754546
509.50693166778126
509.5100491373279
509.5131660258993
509.51628233320946
509.51939805897257
509.52251320290304
509.5256277647155
509.5287417441251
509.5318551408469
509.5349679545958
509.5380801850871
509.54119183203613
509.54430289515847
509.54741337416965
509.55052326878524
509.553632578721
509.5567413036928
509.5598494434165
509.56295699760847
509.5660639659849
509.569170348262
509.57227614415604
509.5753813533837
509.5784859756617
509.5815900107067
509.5846934582354
509.58779631796494
509.5908985896125
509.5940002728954
509.5971013675311
509.60020187323687
509.6033017897306
509.6064011167301
509.60949985395325
509.6125980011178
509.61569555794165
509.61879252414303
509.6218888994405
509.6249846835527
509.6280798761983
509.63117447709567
509.6342684859636
509.63736190252087
509.64045472648615
509.64354695757845
509.6466385955167
509.64972964002015
509.6528200908082
509.65590994760043
509.6589992101168
509.66208787807716
509.6651759512016
509.66826342921024
509.6713503118234
509.6744365987614
509.67752228974484
509.680607384494
509.6836918827297
509.68677578417294
509.68985908854495
509.69294179556744
509.6960239049621
509.69910541645083
509.70218632975605
509.7052666445999
509.70834636070447
509.711425477792
509.7145039955848
509.7175819138055
509.7206592321769
509.72373595042166
509.7268120682626
509.7298875854227
509.73296250162537
509.7360368165938
509.73911053005156
509.7421836417226
509.74525615133086
509.74832805860035
509.751399363255
509.7544700650186
509.7575401636151
509.76060965876843
509.76367855020237
509.7667468376409
509.7698145208079
509.7728815994275
509.7759480732235
509.7790139419202
509.782079205242
509.7851438629133
509.7882079146585
509.79127136020236
509.7943341992699
509.79739643158666
509.80045805687826
509.80351907487045
509.80657948528903
509.80963928786
509.81269848230966
509.81575706836463
509.81881504575165
509.8218724141976
509.8249291734295
509.8279853231744
509.8310408631595
509.83409579311194
509.83715011275933
509.8402038218295
509.84325692005075
509.84630940715135
509.84936128285983
509.8524125469047
509.8554631990147
509.8585132389188
509.86156266634623
509.8646114810264
509.8676596826889
509.87070727106345
509.8737542458797
509.8768006068673
509.8798463537561
509.882891486276
509.88593600415686
509.88897990712906
509.8920231949231
509.89506586726964
509.8981079238989
509.90114936454154
509.9041901889283
509.90723039678994
509.91026998785776
509.91330896186275
509.91634731853617
509.919385057609
509.92242217881255
509.92545868187824
509.9284945665378
509.9315298325231
509.9345644795661
509.937598507399
509.94063191575435
509.943664704365
509.9466968729638
509.94972842128357
509.95275934905715
509.9557896560174
509.9588193418973
509.96184840643025
509.96487684934993
509.9679046703901
509.9709318692845
509.97395844576715
509.97698439957196
509.9800097304334
509.9830344380863
509.9860585222658
509.98908198270726
509.992104819146
509.9951270313178
509.9981486189587
510.00116958180445
510.0041899195911
510.0072096320547
510.01022871893167
510.01324717995897
510.01626501487374
510.01928222341314
510.0222988053141
510.0253147603138
510.0283300881498
510.03134478855975
510.0343588612815
510.03737230605304
510.0403851226123
510.04339731069706
510.0464088700452
510.0494198003945
510.0524301014831
510.055439773049
510.0584488148305
510.06145722656595
510.0644650079936
510.06747215885173
510.07047867887866
510.07348456781244
510.0764898253909
510.0794944513517
510.0824984454324
510.0855018073711
510.08850453690627
510.0915066337765
510.0945080977202
510.09750892847603
510.1005091257824
510.1035086893779
510.10650761900126
510.10950591439143
510.1125035752874
510.1155006014284
510.1184969925538
510.12149274840283
510.1244878687147
510.12748235322886
510.1304762016849
510.1334694138226
510.1364619893815
510.13945392810126
510.14244522972183
510.1454358939833
510.1484259206255
510.1514153093884
510.1544040600121
510.15739217223665
510.16037964580266
510.1633664804509
510.16635267592244
510.16933823195825
510.1723231482996
510.1753074246875
510.178291060863
510.1812740565673
510.1842564115417
510.18723812552764
510.1902191982666
510.19319962950055
510.1961794189714
510.19915856642126
510.2021370715926
510.20511493422794
510.20809215406996
510.2110687308615
510.21404466434535
510.21701995426463
510.21999460036284
510.2229686023833
510.22594196006924
510.228914673164
510.2318867414107
510.23485816455275
510.23782894233375
510.2407990744972
510.24376856078686
510.2467374009465
510.24970559472024
510.2526731418526
510.255640042088
510.2586062951708
510.26157190084575
510.26453685885747
510.26750116895084
510.27046483087054
510.27342784436144
510.2763902091684
510.2793519250366
510.2823129917109
510.2852734089364
510.28823317645845
510.2911922940226
510.29415076137445
510.29710857825955
510.3000657444237
510.3030222596127
510.3059781235721
510.3089333360475
510.3118878967849
510.31484180553036
510.31779506202963
510.3207476660283
510.32369961727215
510.32665091550723
510.32960156047955
510.3325515519351
510.33550088962
510.3384495732802
510.3413976026617
510.34434497751056
510.3472916975728
510.3502377625947
510.35318317232225
510.3561279265017
510.3590720248791
510.36201546720065
510.3649582532129
510.36790038266247
510.37084185529636
510.3737826708617
510.37672282910546
510.3796623297743
510.3826011726152
510.3855393573748
510.3884768838001
510.39141375163774
510.3943499606345
510.3972855105375
510.40022040109386
510.4031546320508
510.4060882031557
510.40902111415596
510.41195336479893
510.41488495483225
510.41781588400374
510.42074615206127
510.42367575875267
510.4266047038258
510.42953298702844
510.43246060810895
510.4353875668156
510.43831386289696
510.44123949610173
510.4441644661787
510.44708877287655
510.4500124159441
510.45293539513034
510.455857710184
510.45877936085355
510.4617003468878
510.464620668036
510.46754032404726
510.47045931467085
510.47337763965595
510.476295298752
510.4792122917087
510.4821286182756
510.48504427820274
510.48795927124013
510.4908735971379
510.49378725564645
510.49670024651607
510.49961256949734
510.5025242243411
510.50543521079805
510.50834552861886
510.51125517755383
510.5141641573531
510.51707246776675
510.5199801085449
510.5228870794382
510.52579338019734
510.5286990105734
510.53160397031763
510.5345082591815
510.5374118769165
510.54031482327434
510.54321709800695
510.54611870086626
510.5490196316042
510.55191988997274
510.554819475724
510.5577183886106
510.56061662838545
510.56351419480154
510.5664110876122
510.569307306571
510.5722028514316
510.5750977219478
510.57799191787365
510.58088543896326
510.5837782849711
510.58667045565164
510.5895619507593
510.5924527700487
510.5953429132743
510.5982323801908
510.60112117055303
510.60400928411593
510.6068967206346
510.6097834798642
510.61266956156
510.6155549654774
510.6184396913717
510.6213237389983
510.6242071081127
510.62708979847105
510.6299718098297
510.63285314194525
510.6357337945741
510.638613767473
510.64149306039883
510.64437167310837
510.6472496053585
510.650126856906
510.65300342750777
510.65587931692096
510.65875452490275
510.6616290512105
510.6645028956019
510.66737605783453
510.6702485376662
510.67312033485484
510.675991449158
510.6788618803338
510.6817316281405
510.68460069233663
510.68746907268076
510.69033676893184
510.6932037808489
510.69607010819107
510.6989357507176
510.70180070818776
510.70466498036114
510.70752856699767
510.71039146785745
510.7132536827006
510.71611521128705
510.7189760533764
510.72183620872863
510.72469567710357
510.7275544582611
510.7304125519612
510.7332699579639
510.7361266760296
510.7389827059186
510.74183804739175
510.74469270021007
510.7475466641348
510.75039993892744
510.7532525243497
510.7561044201633
510.75895562612993
510.76180614201155
510.76465596757055
510.76750510256954
510.7703535467716
510.77320129994007
510.7760483618382
510.77889473222933
510.781740410877
510.78458539754513
510.7874296919982
510.79027329400094
510.79311620331816
510.7959584197148
510.7987999429557
510.8016407728061
510.8044809090312
510.8073203513967
510.81015909966834
510.8129971536122
510.815834512994
510.81867117757986
510.8215071471358
510.8243424214278
510.82717700022215
510.83001088328535
510.8328440703841
510.83567656128514
510.8385083557554
510.84133945356155
510.8441698544706
510.8469995582499
510.84982856466706
510.85265687348976
510.85548448448606
510.8583113974245
510.86113761207355
510.8639631282018
510.8667879455776
510.8696120639694
510.872435483146
510.8752582028761
510.8780802229288
510.8809015430728
510.88372216307687
510.8865420827102
510.88936130174204
510.8921798199416
510.89499763707806
510.8978147529209
510.90063116723957
510.90344687980394
510.90626189038414
510.9090761987501
510.9118898046719
510.9147027079197
510.91751490826357
510.9203264054737
510.92313719932065
510.9259472895752
510.9287566760082
510.93156535839046
510.93437333649297
510.937180610087
510.9399871789441
510.9427930428361
510.9455982015353
510.94840265481355
510.95120640244306
510.95400944419623
510.95681177984545
510.9596134091629
510.9624143319212
510.96521454789297
510.9680140568511
510.9708128585686
510.97361095281883
510.97640833937555
510.9792050180125
510.9820009885035
510.9847962506225
510.9875908041437
510.99038464884177
510.99317778449165
510.99597021086845
510.9987619277475
511.001552934904
511.004343232113
511.0071328191501
511.0099216957909
511.01270986181123
511.0154973169871
511.0182840610945
511.02107009390954
511.02385541520846
511.0266400247673
511.0294239223623
511.0322071077702
511.0349895807675
511.0377713411309
511.04055238863737
511.04333272306405
511.04611234418815
511.0488912517868
511.05166944563723
511.054446925517
511.05722369120406
511.0599997424764
511.0627750791124
511.06554970089053
511.0683236075894
511.0710967989877
511.0738692748645
511.0766410349987
511.0794120791694
511.08218240715576
511.0849520187372
511.08772091369326
511.09048909180353
511.0932565528477
511.0960232966057
511.09878932285767
511.1015546313837
511.1043192219639
511.1070830943787
511.1098462484084
511.11260868383386
511.11537040043584
511.1181313979956
511.12089167629495
511.12365123511574
511.12641007423997
511.1291681934496
511.1319255925267
511.13468227125384
511.13743822941376
511.14019346678936
511.1429479831637
511.14570177832013
511.14845485204216
511.1512072041138
511.15395883431904
511.1567097424419
511.15945992826653
511.16220939157745
511.16495813215886
511.16770614979544
511.1704534442721
511.17320001537394
511.17594586288635
511.1786909865949
511.1814353862852
511.18417906174284
511.18692201275337
511.1896642391024
511.1924057405755
511.19514651695874
511.19788656803837
511.2006258936009
511.20336449343324
511.2061023673226
511.20883951505664
511.2115759364232
511.2143116312103
511.21704659920636
511.21978084019986
511.2225143539796
511.2252471403343
511.22797919905304
511.230710529925
511.2334411327396
511.2361710072863
511.23890015335485
511.2416285707351
511.2443562592174
511.24708321859214
511.24980944865035
511.2525349491833
511.2552597199825
511.25798376083947
511.2607070715461
511.2634296518946
511.26615150167765
511.26887262068783
511.271593008718
511.2743126655613
511.277031591011
511.27974978486066
511.28246724690405
511.28518397693495
511.28789997474735
511.29061524013525
511.29332977289266
511.2960435728136
511.29875663969244
511.3014689733237
511.3041805735021
511.3068914400227
511.30960157268066
511.3123109712709
511.3150196355883
511.31772756542784
511.32043476058436
511.3231412208528
511.32584694602826
511.32855193590615
511.33125619028203
511.33395970895197
511.3366624917122
511.3393645383593
511.3420658486897
511.34476642250013
511.3474662595876
511.3501653597492
511.3528637227822
511.35556134848423
511.3582582366531
511.36095438708674
511.36364979958296
511.36634447393965
511.3690384099549
511.371731607427
511.3744240661546
511.3771157859361
511.37980676657014
511.3824970078555
511.3851865095911
511.38787527157604
511.39056329360926
511.39325057549024
511.39593711701843
511.3986229179935
511.4013079782154
511.40399229748425
511.4066758756004
511.40935871236445
511.412040807577
511.41472216103887
511.4174027725511
511.420082641915
511.422761768932
511.42544015340366
511.42811779513147
511.4307946939174
511.4334708495636
511.43614626187275
511.4388209306479
511.441494855692
511.44416803680804
511.44684047379917
511.4495121664685
511.45218311461906
511.45485331805446
511.45752277657846
511.4601914899953
511.4628594581094
511.46552668072525
511.46819315764753
511.47085888868094
511.47352387363014
511.47618811230006
511.47885160449584
511.4815143500231
511.48417634868736
511.48683760029405
511.48949810464853
511.4921578615566
511.49481687082414
511.49747513225714
511.5001326456619
511.5027894108449
511.5054454276129
511.5081006957731
511.5107552151329
511.51340898549995
511.5160620066821
511.51871427848744
511.5213658007243
511.52401657320104
511.52666659572617
511.5293158681085
511.53196439015676
511.53461216168023
511.53725918248836
511.5399054523908
511.54255097119756
511.5451957387187
511.5478397547648
511.55048301914655
511.5531255316747
511.55576729216034
511.5584083004145
511.5610485562487
511.56368805947466
511.56632680990435
511.5689648073502
511.57160205162506
511.5742385425418
511.5768742799138
511.57950926355454
511.58214349327784
511.5847769688979
511.58740969022904
511.59004165708564
511.5926728692822
511.59530332663337
511.59793302895434
511.6005619760607
511.6031901677685
511.605817603894
511.6084442842538
511.6110702086643
511.6136953769425
511.6163197889058
511.6189434443719
511.62156634315863
511.6241884850839
511.626809869966
511.6294304976233
511.6320503678745
511.6346694805387
511.63728783543536
511.6399054323841
511.64252227120494
511.64513835171795
511.6477536737435
511.65036823710204
511.65298204161434
511.65559508710146
511.65820737338447
511.6608189002844
511.6634296676226
511.66603967522076
511.6686489229006
511.6712574104839
511.67386513779263
511.6764721046487
511.6790783108744
511.6816837562918
511.684288440723
511.68689236398984
511.68949552591437
511.69209792631875
511.6946995650252
511.6973004418559
511.6999005566332
511.70249990917966
511.70509849931784
511.7076963268704
511.71029339166
511.71288969350974
511.7154852322427
511.71808000768203
511.720674019651
511.7232672679735
511.7258597524732
511.7284514729737
511.7310424292988
511.7336326212725
511.73622204871924
511.73881071146377
511.74139860933076
511.7439857421451
511.74657210973226
511.7491577119175
511.75174254852675
511.75432661938623
511.7569099243227
511.75949246316316
511.76207423573476
511.7646552418647
511.7672354813807
511.7698149541103
511.77239365988146
511.77497159852203
511.7775487698601
511.78012517372406
511.7827008099422
511.78527567834306
511.78784977875523
511.7904231110075
511.79299567492865
511.7955674703479
511.798138497095
511.80070875499985
511.80327824389235
511.8058469636027
511.8084149139612
511.81098209479853
511.8135485059453
511.81611414723204
511.81867901848943
511.8212431195483
511.82380645023966
511.82636901039484
511.8289307998451
511.83149181842225
511.83405206595796
511.8366115422838
511.83917024723144
511.8417281806329
511.84428534232063
511.8468417321275
511.8493973498863
511.85195219543004
511.85450626859176
511.8570595692048
511.85961209710297
511.86216385212026
511.8647148340907
511.86726504284854
511.869814478228
511.8723631400634
511.8749110281889
511.8774581424392
511.88000448264927
511.882550048654
511.8850948402884
511.88763885738774
511.89018209978747
511.89272456732294
511.89526625982955
511.8978071771427
511.9003473190977
511.90288668553046
511.9054252762768
511.9079630911723
511.9105001300526
511.9130363927535
511.91557187911064
511.91810658895986
511.9206405221372
511.9231736784792
511.9257060578226
511.92823766000413
511.93076848486055
511.9332985322286
511.93582780194504
511.9383562938468
511.9408840077707
511.9434109435532
511.94593710103106
511.94846248004103
511.95098708041985
511.9535109020045
511.95603394463194
511.95855620813916
511.9610776923636
511.96359839714285
511.96611832231486
511.9686374677175
511.97115583318885
511.9736734185673
511.97619022369133
511.9787062483998
511.98122149253174
511.9837359559266
511.9862496384238
511.98876253986316
511.9912746600843
511.99378599892736
511.99629655623255
511.99880633184
512.0013153255899
512.0038235373228
512.0063309668795
512.008837614101
512.0113434788278
512.0138485609008
512.016352860161
512.0188563764492
512.0213591096066
512.0238610594741
512.026362225893
512.0288626087043
512.03136220775
512.033861022872
512.0363590539124
512.0388563007135
512.0413527631177
512.0438484409677
512.0463433341064
512.0488374423768
512.0513307656221
512.0538233036854
512.05631505641
512.0588060236395
512.0612962052174
512.0637856009877
512.0662742107944
512.0687620344819
512.0712490718948
512.073735322878
512.0762207872759
512.0787054649335
512.0811893556955
512.0836724594068
512.0861547759122
512.0886363050569
512.091117046686
512.0935970006448
512.0960761667781
512.0985545449308
512.101032134948
512.1035089366748
512.1059849499565
512.1084601746387
512.1109346105674
512.1134082575885
512.1158811155484
512.1183531842936
512.1208244636706
512.1232949535262
512.125764653707
512.1282335640602
512.1307016844327
512.1331690146716
512.1356355546242
512.1381013041379
512.1405662630604
512.1430304312393
512.1454938085225
512.1479563947581
512.1504181897946
512.1528791934803
512.155339405664
512.1577988261942
512.1602574549194
512.1627152916884
512.1651723363503
512.1676285887546
512.1700840487512
512.1725387161902
512.174992590922
512.177445672797
512.1798979616661
512.1823494573802
512.1848001597899
512.1872500687465
512.1896991841012
512.1921475057053
512.1945950334106
512.1970417670688
512.1994877065318
512.2019328516518
512.2043772022806
512.2068207582703
512.2092635194732
512.2117054857421
512.2141466569298
512.2165870328896
512.219026613475
512.2214653985394
512.2239033879367
512.226340581521
512.2287769791461
512.2312125806665
512.233647385936
512.236081394809
512.2385146071398
512.2409470227825
512.2433786415917
512.2458094634218
512.2482394881273
512.2506687155629
512.2530971455834
512.2555247780434
512.2579516127979
512.260377649702
512.262802888611
512.2652273293799
512.2676509718636
512.2700738159173
512.2724958613954
512.2749171081533
512.2773375560461
512.2797572049291
512.2821760546577
512.2845941050876
512.2870113560749
512.2894278074756
512.2918434591455
512.2942583109408
512.2966723627175
512.2990856143321
512.3014980656411
512.3039097165018
512.3063205667719
512.3087306163089
512.3111398649709
512.3135483126156
512.3159559591012
512.3183628042856
512.3207688480267
512.3231740901825
512.3255785306116
512.3279821691721
512.3303850057224
512.3327870401209
512.335188272226
512.3375887018962
512.3399883289902
512.3423871533674
512.3447851748871
512.3471823934088
512.3495788087927
512.3519744208985
512.3543692295863
512.3567632347159
512.3591564361476
512.3615488337417
512.3639404273594
512.3663312168618
512.3687212021106
512.3711103829675
512.373498759294
512.3758863309516
512.3782730978022
512.3806590597077
512.3830442165305
512.3854285681333
512.387812114379
512.3901948551303
512.3925767902498
512.3949579196
512.3973382430437
512.3997177604439
512.4020964716632
512.4044743765645
512.4068514750107
512.4092277668648
512.411603251989
512.413977930246
512.4163518014981
512.4187248656082
512.4210971224396
512.4234685718562
512.4258392137218
512.4282090479002
512.4305780742549
512.4329462926495
512.4353137029476
512.4376803050133
512.4400460987105
512.4424110839035
512.444775260457
512.4471386282363
512.4495011871062
512.4518629369319
512.4542238775788
512.4565840089123
512.458943330798
512.4613018431015
512.4636595456885
512.4660164384246
512.4683725211756
512.4707277938077
512.473082256187
512.47543590818
512.4777887496529
512.4801407804722
512.4824920005047
512.4848424096173
512.4871920076768
512.4895407945502
512.4918887701045
512.494235934207
512.4965822867247
512.4989278275247
512.501272556474
512.5036164734398
512.5059595782894
512.5083018708903
512.5106433511097
512.5129840188157
512.5153238738764
512.5176629161598
512.5200011455346
512.5223385618693
512.5246751650326
512.527010954893
512.529345931319
512.5316800941793
512.5340134433428
512.5363459786787
512.5386777000562
512.5410086073449
512.5433387004147
512.5456679791351
512.5479964433763
512.5503240930083
512.5526509279017
512.5549769479275
512.5573021529559
512.5596265428575
512.5619501175025
512.5642728767615
512.5665948205052
512.5689159486047
512.5712362609314
512.5735557573563
512.5758744377505
512.5781923019853
512.5805093499317
512.582825581461
512.585140996444
512.5874555947524
512.589769376258
512.592082340832
512.5943944883458
512.5967058186712
512.5990163316802
512.6013260272442
512.603634905235
512.6059429655246
512.608250207985
512.6105566324887
512.6128622389089
512.6151670271184
512.6174709969906
512.619774148399
512.622076481217
512.6243779953187
512.6266786905779
512.6289785668688
512.6312776240655
512.6335758620427
512.6358732806749
512.6381698798374
512.640465659406
512.642760619257
512.6450547592666
512.6473480793107
512.6496405792656
512.6519322590067
512.65422311841
512.656513157351
512.6588023757057
512.6610907733503
512.6633783501612
512.6656651060149
512.6679510407879
512.6702361543568
512.672520446598
512.6748039173882
512.6770865666036
512.6793683941206
512.6816493998152
512.683929583564
512.6862089452433
512.6884874847295
512.6907652018996
512.6930420966304
512.6953181687992
512.6975934182834
512.6998678449607
512.7021414487089
512.7044142294059
512.7066861869299
512.7089573211596
512.7112276319732
512.7134971192494
512.7157657828667
512.718033622704
512.7203006386404
512.7225668305556
512.724832198329
512.72709674184
512.7293604609682
512.7316233555929
512.7338854255933
512.7361466708488
512.7384070912393
512.7406666866442
512.742925456943
512.7451834020154
512.7474405217414
512.7496968160009
512.7519522846741
512.7542069276411
512.7564607447829
512.7587137359805
512.7609659011149
512.7632172400678
512.7654677527204
512.7677174389543
512.769966298651
512.7722143316915
512.7744615379571
512.776707917329
512.7789534696882
512.7811981949161
512.783442092894
512.7856851635032
512.787927406625
512.7901688221413
512.7924094099343
512.7946491698871
512.7968881018825
512.7991262058032
512.8013634815317
512.8035999289506
512.8058355479428
512.8080703383915
512.8103043001796
512.81253743319
512.8147697373059
512.8170012124111
512.8192318583893
512.8214616751249
512.8236906625017
512.8259188204044
512.8281461487171
512.8303726473242
512.8325983161095
512.834823154957
512.8370471637505
512.8392703423743
512.8414926907129
512.8437142086506
512.8459348960711
512.8481547528587
512.850373778898
512.8525919740738
512.8548093382716
512.8570258713768
512.8592415732747
512.8614564438514
512.8636704829925
512.8658836905839
512.8680960665121
512.8703076106636
512.872518322925
512.8747282031821
512.8769372513217
512.8791454672302
512.8813528507945
512.8835594019021
512.8857651204399
512.8879700062947
512.8901740593532
512.892377279502
512.8945796666286
512.8967812206207
512.8989819413665
512.9011818287541
512.9033808826717
512.9055791030074
512.9077764896489
512.9099730424842
512.9121687614016
512.9143636462892
512.916557697035
512.9187509135273
512.9209432956542
512.9231348433035
512.9253255563634
512.9275154347221
512.9297044782676
512.9318926868883
512.9340800604726
512.9362665989089
512.9384523020861
512.9406371698939
512.9428212022218
512.9450043989597
512.9471867599972
512.9493682852241
512.9515489745305
512.9537288278067
512.9559078449428
512.9580860258287
512.9602633703549
512.962439878412
512.9646155498909
512.9667903846827
512.9689643826783
512.9711375437688
512.9733098678452
512.9754813547987
512.9776520045208
512.9798218169027
512.9819907918362
512.9841589292129
512.9863262289244
512.9884926908632
512.990658314921
512.99282310099
512.9949870489623
512.9971501587305
512.9993124301869
513.0014738632239
513.0036344577335
513.005794213608
513.0079531307398
513.0101112090209
513.0122684483432
513.0144248485987
513.0165804096792
513.0187351314768
513.0208890138825
513.0230420567879
513.0251942600845
513.0273456236642
513.0294961474189
513.0316458312406
513.0337946750216
513.0359426786541
513.0380898420304
513.0402361650428
513.0423816475837
513.0445262895458
513.046670090822
513.0488130513055
513.0509551708898
513.0530964494684
513.0552368869354
513.0573764831848
513.0595152381112
513.061653151609
513.0637902235732
513.0659264538987
513.0680618424807
513.0701963892144
513.0723300939945
513.074462956716
513.0765949772737
513.0787261555625
513.0808564914784
513.0829859849167
513.0851146357733
513.0872424439439
513.0893694093244
513.0914955318107
513.0936208112986
513.095745247684
513.0978688408628
513.0999915907311
513.1021134971846
513.1042345601194
513.1063547794307
513.1084741550145
513.1105926867668
513.112710374584
513.1148272183624
513.1169432179987
513.1190583733897
513.1211726844325
513.123286151024
513.1253987730616
513.1275105504429
513.1296214830651
513.1317315708253
513.1338408136206
513.135949211348
513.138056763904
513.1401634711852
513.1422693330879
513.1443743495084
513.1464785203431
513.1485818454879
513.1506843248391
513.1527859582928
513.1548867457456
513.1569866870938
513.1590857822345
513.1611840310651
513.1632814334833
513.1653779893869
513.1674736986739
513.1695685612427
513.1716625769919
513.1737557458206
513.1758480676277
513.1779395423126
513.180030169775
513.1821199499151
513.1842088826326
513.1862969678274
513.1883842054
513.1904705952505
513.1925561372792
513.1946408313858
513.1967246774703
513.1988076754332
513.2008898251739
513.2029711265924
513.2050515795887
513.2071311840633
513.2092099399166
513.2112878470492
513.2133649053618
513.2154411147554
513.2175164751312
513.2195909863905
513.2216646484345
513.2237374611651
513.2258094244843
513.227880538294
513.2299508024965
513.2320202169941
513.2340887816887
513.2361564964823
513.2382233612772
513.2402893759755
513.2423545404796
513.2444188546914
513.2464823185129
513.2485449318461
513.2506066945931
513.252667606656
513.2547276679371
513.2567868783384
513.2588452377623
513.2609027461116
513.2629594032884
513.2650152091948
513.2670701637334
513.2691242668067
513.2711775183171
513.2732299181674
513.2752814662605
513.2773321624996
513.2793820067883
513.2814309990296
513.2834791391266
513.2855264269828
513.2875728625014
513.2896184455864
513.2916631761415
513.2937070540705
513.2957500792778
513.297792251668
513.2998335711465
513.3018740376184
513.3039136509898
513.3059524111665
513.3079903180543
513.3100273715592
513.3120635715874
513.314098918045
513.3161334108378
513.318167049871
513.3201998350502
513.3222317662809
513.3242628434688
513.32629306652
513.3283224353407
513.3303509498375
513.332378609916
513.3344054154824
513.3364313664428
513.3384564627032
513.3404807041699
513.3425040907485
513.3445266223451
513.3465482988657
513.3485691202164
513.3505890863038
513.3526081970343
513.3546264523144
513.3566438520505
513.3586603961497
513.3606760845188
513.3626909170645
513.3647048936938
513.3667180143142
513.3687302788334
513.370741687159
513.372752239199
513.3747619348611
513.3767707740532
513.3787787566831
513.3807858826591
513.3827921518892
513.3847975642815
513.3868021197435
513.3888058181834
513.3908086595094
513.3928106436298
513.3948117704532
513.3968120398885
513.3988114518448
513.4008100062312
513.402807702956
513.4048045419282
513.4068005230566
513.40879564625
513.410789911417
513.4127833184663
513.4147758673063
513.4167675578461
513.4187583899953
513.4207483636629
513.422737478758
513.4247257351898
513.4267131328676
513.4286996717011
513.4306853516001
513.4326701724746
513.4346541342348
513.4366372367912
513.4386194800537
513.4406008639329
513.4425813883387
513.4445610531806
513.4465398583685
513.4485178038127
513.4504948894233
513.4524711151108
513.4544464807858
513.4564209863587
513.4583946317399
513.4603674168403
513.462339341571
513.4643104058429
513.4662806095668
513.4682499526535
513.4702184350145
513.4721860565606
513.4741528172032
513.4761187168534
513.4780837554227
513.4800479328225
513.4820112489643
513.4839737037602
513.4859352971217
513.4878960289603
513.4898558991873
513.4918149077138
513.4937730544508
513.49573033931
513.497686762203
513.4996423230417
513.5015970217374
513.5035508582015
513.5055038323452
513.5074559440799
513.5094071933169
513.5113575799677
513.5133071039444
513.5152557651589
513.5172035635234
513.5191504989497
513.5210965713499
513.5230417806359
513.5249861267201
513.5269296095152
513.5288722289346
513.5308139848925
513.5327548773029
513.5346949060798
513.5366340711374
513.5385723723901
513.5405098097523
513.5424463831386
513.5443820924642
513.5463169376445
513.5482509185953
513.5501840352323
513.5521162874714
513.5540476752284
513.555978198419
513.5579078569591
513.5598366507646
513.5617645797514
513.563691643836
513.565617842935
513.5675431769656
513.5694676458455
513.5713912494931
513.5733139878274
513.5752358607673
513.5771568682318
513.5790770101402
513.5809962864124
513.5829146969689
513.5848322417304
513.5867489206179
513.5886647335523
513.5905796804547
513.5924937612466
513.5944069758499
513.5963193241868
513.5982308061799
513.6001414217516
513.6020511708242
513.6039600533207
513.6058680691643
513.6077752182783
513.6096815005864
513.611586916012
513.6134914644791
513.6153951459117
513.6172979602342
513.6191999073711
513.6211009872476
513.6230011997885
513.6249005449189
513.6267990225637
513.6286966326483
513.6305933750981
513.6324892498388
513.6343842567966
513.6362783958974
513.6381716670679
513.6400640702349
513.6419556053255
513.6438462722675
513.6457360709891
513.6476250014185
513.6495130634845
513.651400257116
513.6532865822422
513.6551720387926
513.657056626697
513.6589403458855
513.6608231962881
513.6627051778349
513.6645862904567
513.666466534084
513.6683459086477
513.6702244140789
513.6721020503093
513.6739788172707
513.6758547148958
513.6777297431171
513.6796039018676
513.6814771910805
513.6833496106891
513.6852211606273
513.6870918408289
513.6889616512284
513.6908305917606
513.6926986623602
513.6945658629619
513.696432193501
513.6982976539131
513.7001622441343
513.7020259641007
513.7038888137484
513.7057507930141
513.7076119018346
513.7094721401478
513.7113315078913
513.7131900050032
513.7150476314222
513.7169043870871
513.718760271937
513.7206152859111
513.7224694289492
513.7243227009916
513.7261751019786
513.7280266318515
513.7298772905525
513.7317270780239
513.7335759942088
513.7354240390499
513.7372712124906
513.7391175144741
513.7409629449445
513.7428075038459
513.7446511911224
513.7464940067188
513.7483359505799
513.7501770226512
513.7520172228784
513.7538565512072
513.7556950075831
513.7575325919521
513.7593693042608
513.7612051444556
513.7630401124833
513.7648742082905
513.7667074318246
513.7685397830331
513.7703712618646
513.7722018682674
513.7740316021903
513.7758604635827
513.777688452394
513.7795155685743
513.781341812074
513.7831671828438
513.7849916808349
513.786815305998
513.7886380582842
513.7904599376451
513.7922809440321
513.7941010773972
513.7959203376926
513.797738724871
513.7995562388854
513.8013728796885
513.8031886472335
513.8050035414741
513.8068175623642
513.8086307098582
513.8104429839105
513.812254384476
513.8140649115093
513.8158745649652
513.8176833447991
513.819491250967
513.8212982834251
513.8231044421301
513.8249097270387
513.8267141381081
513.8285176752955
513.8303203385593
513.8321221278578
513.8339230431496
513.8357230843934
513.8375222515482
513.8393205445735
513.8411179634294
513.842914508076
513.844710178474
513.846504974584
513.8482988963668
513.8500919437832
513.8518841167946
513.8536754153623
513.8554658394477
513.8572553890125
513.859044064019
513.86083186443
513.8626187902083
513.8644048413177
513.866190017722
513.867974319386
513.8697577462743
513.8715402983518
513.8733219755835
513.8751027779352
513.8768827053731
513.8786617578634
513.8804399353722
513.8822172378656
513.8839936653095
513.885769217671
513.8875438949177
513.8893176970172
513.8910906239374
513.8928626756464
513.8946338521126
513.8964041533046
513.8981735791912
513.8999421297411
513.9017098049234
513.9034766047067
513.90524252906
513.9070075779526
513.9087717513543
513.9105350492349
513.9122974715648
513.9140590183146
513.9158196894551
513.9175794849574
513.9193384047925
513.9210964489315
513.9228536173456
513.9246099100063
513.9263653268857
513.9281198679561
513.9298735331898
513.93162632256
513.9333782360396
513.9351292736022
513.9368794352212
513.9386287208703
513.9403771305236
513.9421246641558
513.9438713217413
513.9456171032551
513.9473620086723
513.9491060379675
513.9508491911155
513.9525914680911
513.9543328688693
513.9560733934253
513.9578130417343
513.9595518137716
513.9612897095127
513.9630267289336
513.9647628720107
513.9664981387206
513.9682325290399
513.9699660429461
513.9716986804168
513.9734304414295
513.9751613259624
513.9768913339941
513.9786204655037
513.9803487204703
513.9820760988731
513.9838026006918
513.9855282259065
513.9872529744977
513.9889768464458
513.9906998417313
513.9924219603353
513.9941432022387
513.9958635674224
513.997583055867
513.9993016675534
514.0010194024625
514.002736260576
514.0044522418756
514.006167346343
514.0078815739602
514.0095949247096
514.0113073985739
514.0130189955358
514.0147297155787
514.0164395586861
514.0181485248421
514.019856614031
514.0215638262374
514.0232701614462
514.024975619643
514.0266802008131
514.0283839049417
514.0300867320146
514.0317886820179
514.0334897549379
514.0351899507615
514.0368892694754
514.038587711067
514.0402852755236
514.0419819628331
514.0436777729834
514.0453727059629
514.0470667617604
514.0487599403654
514.0504522417672
514.0521436659554
514.0538342129202
514.0555238826513
514.0572126751389
514.0589005903734
514.0605876283456
514.0622737890468
514.0639590724685
514.0656434786027
514.0673270074416
514.0690096589773
514.0706914332021
514.0723723301086
514.0740523496896
514.0757314919377
514.0774097568457
514.0790871444061
514.0807636546125
514.0824392874587
514.084114042939
514.0857879210479
514.0874609217802
514.0891330451308
514.0908042910945
514.0924746596669
514.0941441508438
514.0958127646214
514.0974805009961
514.0991473599641
514.100813341522
514.1024784456666
514.1041426723956
514.1058060217068
514.1074684935983
514.1091300880684
514.1107908051157
514.1124506447394
514.1141096069385
514.1157676917127
514.1174248990618
514.1190812289866
514.1207366814878
514.1223912565662
514.1240449542228
514.1256977744587
514.1273497172755
514.129000782675
514.1306509706595
514.1323002812313
514.1339487143931
514.1355962701476
514.1372429484976
514.1388887494462
514.1405336729971
514.1421777191543
514.1438208879221
514.1454631793048
514.1471045933075
514.1487451299357
514.1503847891953
514.1520235710926
514.1536614756343
514.1552985028273
514.1569346526788
514.1585699251963
514.1602043203876
514.161837838261
514.1634704788247
514.1651022420868
514.1667331280561
514.1683631367413
514.1699922681511
514.1716205222943
514.1732478991802
514.1748743988181
514.176500021218
514.1781247663893
514.179748634342
514.1813716250866
514.1829937386339
514.1846149749948
514.1862353341809
514.1878548162039
514.1894734210761
514.1910911488097
514.1927079994178
514.194323972914
514.195939069312
514.1975532886257
514.1991666308696
514.2007790960582
514.2023906842063
514.2040013953291
514.2056112294425
514.207220186563
514.2088282667072
514.2104354698921
514.2120417961349
514.2136472454534
514.2152518178654
514.2168555133884
514.218458332041
514.2200602738416
514.2216613388085
514.2232615269603
514.2248608383155
514.2264592728933
514.2280568307132
514.2296535117952
514.2312493161593
514.232844243826
514.2344382948162
514.2360314691508
514.2376237668512
514.2392151879391
514.2408057324363
514.2423954003656
514.2439841917493
514.2455721066102
514.2471591449715
514.2487453068569
514.2503305922902
514.2519150012957
514.2534985338983
514.255081190123
514.2566629699949
514.2582438735393
514.259823900782
514.2614030517487
514.262981326466
514.2645587249607
514.26613524726
514.2677108933909
514.2692856633806
514.2708595572566
514.272432575047
514.2740047167803
514.2755759824853
514.2771463721909
514.2787158859259
514.2802845237187
514.2818522855986
514.2834191715946
514.2849851817358
514.2865503160518
514.2881145745724
514.2896779573276
514.2912404643477
514.2928020956628
514.2943628513032
514.2959227312994
514.297481735682
514.2990398644819
514.3005971177298
514.3021534954572
514.3037089976957
514.3052636244773
514.3068173758344
514.3083702517991
514.3099222524037
514.31147337768
514.3130236276605
514.3145730023781
514.316121501866
514.3176691261575
514.3192158752862
514.3207617492857
514.3223067481898
514.3238508720327
514.325394120849
514.3269364946731
514.3284779935397
514.3300186174837
514.3315583665402
514.3330972407447
514.334635240133
514.3361723647416
514.3377086146066
514.3392439897647
514.3407784902519
514.3423121161048
514.3438448673604
514.3453767440559
514.3469077462286
514.3484378739157
514.3499671271546
514.3514955059826
514.3530230104369
514.3545496405551
514.3560753963746
514.3576002779331
514.3591242852684
514.360647418419
514.3621696774236
514.363691062321
514.3652115731501
514.36673120995
514.36824997276
514.3697678616198
514.3712848765693
514.3728010176486
514.3743162848983
514.3758306783594
514.3773441980728
514.3788568440799
514.3803686164223
514.3818795151423
514.3833895402826
514.3848986918864
514.3864069699972
514.3879143746589
514.3894209059152
514.3909265638102
514.392431348388
514.393935259693
514.3954382977694
514.3969404626613
514.3984417544128
514.3999421730686
514.401441718673
514.4029403912708
514.404438190907
514.4059351176267
514.407431171475
514.4089263524971
514.4104206607386
514.4119140962456
514.4134066590644
514.4148983492418
514.4163891668246
514.4178791118603
514.4193681843966
514.4208563844817
514.422343712164
514.4238301674919
514.425315750514
514.4268004612792
514.4282842998367
514.4297672662359
514.4312493605265
514.4327305827588
514.4342109329835
514.4356904112518
514.4371690176146
514.438646752123
514.4401236148286
514.4415996057836
514.4430747250402
514.4445489726512
514.4460223486693
514.4474948531478
514.4489664861402
514.4504372477003
514.4519071378821
514.4533761567401
514.4548443043285
514.4563115807022
514.4577779859166
514.4592435200274
514.460708183091
514.4621719751639
514.4636348963026
514.4650969465637
514.4665581260041
514.4680184346811
514.4694778726522
514.4709364399749
514.4723941367071
514.4738509629068
514.4753069186326
514.4767620039432
514.4782162188982
514.4796695635567
514.4811220379787
514.4825736422243
514.4840243763541
514.4854742404287
514.4869232345094
514.4883713586574
514.4898186129345
514.4912649974025
514.4927105121234
514.4941551571595
514.4955989325734
514.4970418384281
514.498483874787
514.4999250417137
514.5013653392724
514.5028047675274
514.5042433265434
514.505681016385
514.5071178371176
514.5085537888066
514.5099888715175
514.5114230853163
514.5128564302689
514.5142889064417
514.5157205139011
514.5171512527135
514.518581122945
514.5200101246622
514.5214382579321
514.5228655228217
514.5242919193983
514.5257174477296
514.5271421078836
514.5285658999288
514.5299888239336
514.5314108799665
514.5328320680959
514.5342523883904
514.5356718409192
514.5370904257519
514.5385081429582
514.5399249926085
514.5413409747729
514.5427560895215
514.544170336925
514.5455837170542
514.5469962299802
514.5484078757744
514.5498186545082
514.5512285662534
514.5526376110819
514.5540457890658
514.5554531002775
514.5568595447902
514.5582651226772
514.5596698340122
514.5610736788684
514.5624766573195
514.5638787694392
514.565280015301
514.5666803949788
514.5680799085463
514.5694785560776
514.5708763376468
514.5722732533292
514.5736693031994
514.5750644873327
514.5764588058047
514.577852258691
514.5792448460678
514.5806365680118
514.5820274245997
514.5834174159089
514.584806542017
514.5861948030018
514.587582198941
514.5889687299122
514.5903543959929
514.5917391972615
514.5931231337964
514.5945062056761
514.5958884129794
514.5972697557855
514.5986502341738
514.6000298482237
514.6014085980154
514.6027864836291
514.604163505145
514.6055396626438
514.6069149562057
514.6082893859117
514.6096629518426
514.6110356540793
514.612407492703
514.6137784677952
514.615148579437
514.6165178277098
514.6178862126952
514.6192537344749
514.6206203931309
514.6219861887456
514.6233511214015
514.624715191181
514.6260783981674
514.6274407424438
514.6288022240946
514.6301628432037
514.6315225998554
514.6328814941343
514.6342395261253
514.6355966959135
514.6369530035846
514.6383084492248
514.6396630329203
514.6410167547577
514.6423696148239
514.6437216132059
514.6450727499913
514.6464230252681
514.6477724391247
514.6491209916497
514.6504686829325
514.6518155130624
514.6531614821296
514.6545065902245
514.6558508374379
514.657194223861
514.6585367495856
514.6598784147035
514.6612192193073
514.6625591634898
514.6638982473438
514.6652364709624
514.6665738344396
514.6679103378696
514.6692459813465
514.6705807649656
514.6719146888216
514.6732477530094
514.6745799576237
514.67591130276
514.6772417885137
514.67857141498
514.6799001822541
514.6812280904315
514.6825551396083
514.6838813298808
514.6852066613459
514.6865311341006
514.6878547482423
514.6891775038688
514.6904994010778
514.6918204399668
514.6931406206335
514.6944599431757
514.6957784076918
514.6970960142802
514.6984127630395
514.6997286540687
514.7010436874672
514.7023578633342
514.7036711817694
514.7049836428729
514.7062952467451
514.7076059934869
514.7089158831994
514.7102249159838
514.7115330919415
514.7128404111744
514.714146873784
514.7154524798719
514.7167572295397
514.7180611228886
514.7193641600201
514.7206663410353
514.7219676660364
514.7232681351255
514.7245677484051
514.7258665059782
514.7271644079484
514.7284614544195
514.7297576454956
514.7310529812811
514.7323474618807
514.7336410873994
514.7349338579421
514.7362257736139
514.7375168345196
514.7388070407641
514.7400963924528
514.7413848896912
514.7426725325853
514.743959321241
514.7452452557651
514.7465303362645
514.7478145628469
514.7490979356202
514.7503804546922
514.7516621201711
514.7529429321656
514.754222890785
514.7555019961382
514.7567802483346
514.7580576474842
514.7593341936966
514.7606098870823
514.7618847277516
514.7631587158154
514.7644318513843
514.7657041345695
514.7669755654823
514.768246144234
514.7695158709365
514.7707847457017
514.7720527686416
514.7733199398687
514.7745862594951
514.7758517276335
514.7771163443964
514.7783801098966
514.7796430242469
514.7809050875602
514.7821662999498
514.7834266615292
514.7846861724119
514.7859448327112
514.7872026425406
514.7884596020139
514.7897157112451
514.7909709703484
514.792225379438
514.7934789386278
514.7947316480319
514.7959835077648
514.7972345179413
514.7984846786759
514.7997339900834
514.8009824522791
514.8022300653782
514.8034768294966
514.8047227447504
514.805967811256
514.8072120291303
514.8084553984903
514.8096979194532
514.8109395921368
514.8121804166593
514.8134203931392
514.8146595216948
514.8158978024452
514.8171352355095
514.818371821007
514.8196075590571
514.8208424497792
514.8220764932929
514.8233096897178
514.8245420391735
514.82577354178
514.8270041976574
514.828234006926
514.8294629697065
514.83069108612
514.8319183562884
514.8331447803333
514.8343703583763
514.8355950905387
514.836818976942
514.8380420177078
514.839264212958
514.8404855628145
514.8417060673995
514.8429257268355
514.8441445412444
514.8453625107485
514.8465796354702
514.8477959155324
514.8490113510583
514.850225942171
514.851439688994
514.8526525916508
514.8538646502651
514.8550758649611
514.8562862358634
514.8574957630973
514.858704446788
514.8599122870609
514.8611192840411
514.8623254378543
514.863530748626
514.8647352164816
514.8659388415466
514.8671416239466
514.8683435638073
514.869544661255
514.8707449164157
514.8719443294161
514.873142900383
514.8743406294428
514.8755375167228
514.8767335623505
514.8779287664537
514.8791231291601
514.880316650598
514.8815093308959
514.882701170182
514.8838921685848
514.8850823262331
514.8862716432558
514.8874601197818
514.8886477559403
514.8898345518604
514.8910205076721
514.8922056235054
514.8933898994904
514.8945733357567
514.8957559324339
514.8969376896515
514.8981186075397
514.8992986862287
514.9004779258493
514.9016563265321
514.9028338884085
514.9040106116096
514.905186496267
514.9063615425124
514.9075357504775
514.908709120294
514.909881652094
514.9110533460092
514.9122242021721
514.9133942207153
514.9145634017717
514.9157317454743
514.9168992519564
514.9180659213515
514.919231753794
514.9203967494178
514.9215609083577
514.9227242307489
514.9238867167268
514.9250483664263
514.9262091799825
514.9273691575312
514.9285282992081
514.9296866051492
514.9308440754907
514.9320007103687
514.93315650992
514.9343114742818
514.9354656035915
514.9366188979865
514.937771357604
514.9389229825816
514.9400737730574
514.9412237291696
514.9423728510568
514.9435211388585
514.944668592714
514.945815212763
514.9469609991451
514.948105952
514.9492500714676
514.9503933576874
514.9515358107986
514.952677430941
514.9538182182538
514.9549581728767
514.9560972949492
514.9572355846111
514.9583730420017
514.9595096672607
514.9606454605286
514.9617804219457
514.962914551653
514.9640478497907
514.9651803164999
514.9663119519213
514.9674427561962
514.9685727294662
514.9697018718736
514.9708301835598
514.971957664667
514.9730843153371
514.9742101357123
514.9753351259345
514.9764592861462
514.9775826164899
514.9787051171087
514.9798267881459
514.980947629745
514.982067642049
514.9831868252014
514.9843051793458
514.9854227046261
514.9865394011862
514.9876552691702
514.9887703087223
514.9898845199867
514.990997903108
514.992110458231
514.9932221855005
514.9943330850614
514.9954431570585
514.9965524016369
514.9976608189417
514.9987684091183
514.9998751723123
515.0009811086694
515.0020862183359
515.0031905014579
515.0042939581821
515.0053965886553
515.0064983930243
515.0075993714357
515.0086995240362
515.0097988509723
515.010897352391
515.0119950284387
515.0130918792623
515.0141879050092
515.015283105827
515.0163774818637
515.017471033267
515.0185637601847
515.0196556627651
515.0207467411568
515.0218369955086
515.0229264259691
515.0240150326873
515.0251028158121
515.0261897754925
515.0272759118772
515.028361225115
515.0294457153551
515.0305293827472
515.0316122274411
515.032694249587
515.0337754493356
515.034855826838
515.0359353822463
515.0370141157126
515.0380920273896
515.0391691174294
515.0402453859846
515.0413208332078
515.0423954592519
515.0434692642701
515.0445422484162
515.0456144118438
515.0466857547066
515.0477562771586
515.0488259793536
515.0498948614462
515.0509629235909
515.0520301659425
515.0530965886563
515.0541621918882
515.055226975794
515.0562909405302
515.0573540862532
515.05841641312
515.0594779212873
515.0605386109122
515.0615984821515
515.0626575351622
515.0637157701013
515.0647731871258
515.0658297863928
515.06688556806
515.0679405322852
515.0689946792266
515.0700480090426
515.0711005218913
515.0721522179311
515.0732030973207
515.0742531602185
515.075302406783
515.0763508371728
515.0773984515466
515.0784452500637
515.0794912328837
515.0805364001666
515.0815807520725
515.0826242887616
515.0836670103951
515.0847089171338
515.0857500091389
515.0867902865717
515.0878297495937
515.0888683983663
515.0899062330519
515.0909432538125
515.0919794608102
515.0930148542069
515.0940494341645
515.0950832008449
515.09611615441
515.0971482950216
515.0981796228419
515.0992101380335
515.1002398407594
515.1012687311826
515.1022968094661
515.1033240757732
515.1043505302672
515.1053761731115
515.1064010044691
515.1074250245032
515.1084482333769
515.1094706312537
515.1104922182975
515.1115129946724
515.1125329605424
515.1135521160717
515.1145704614245
515.1155879967654
515.1166047222595
515.1176206380718
515.1186357443679
515.1196500413135
515.1206635290747
515.1216762078176
515.1226880777089
515.1236991389156
515.1247093916053
515.1257188359449
515.1267274721018
515.1277353002437
515.128742320538
515.1297485331528
515.1307539382564
515.131758536017
515.1327623266028
515.1337653101826
515.1347674869252
515.1357688569993
515.1367694205741
515.1377691778183
515.138768128901
515.1397662739913
515.1407636132589
515.1417601468733
515.1427558750041
515.1437507978211
515.144744915494
515.1457382281927
515.1467307360871
515.1477224393467
515.1487133381414
515.1497034326416
515.1506927230174
515.1516812094395
515.1526688920789
515.1536557711064
515.1546418466932
515.1556271190101
515.1566115882287
515.1575952545203
515.1585781180569
515.1595601790103
515.1605414375528
515.1615218938563
515.162501548093
515.1634804004351
515.1644584510547
515.165435700124
515.1664121478155
515.1673877943016
515.1683626397547
515.1693366843473
515.1703099282516
515.1712823716406
515.1722540146874
515.1732248575657
515.1741949004498
515.1751641435138
515.1761325869319
515.1771002308782
515.1780670755273
515.1790331210544
515.179998367635
515.1809628154443
515.1819264646577
515.1828893154508
515.183851367999
515.1848126224778
515.1857730790633
515.1867327379315
515.1876915992583
515.18864966322
515.1896069299929
515.1905633997538
515.1915190726799
515.1924739489476
515.193428028734
515.194381312216
515.1953337995709
515.1962854909767
515.1972363866115
515.1981864866531
515.1991357912792
515.2000843006682
515.2010320149983
515.201978934448
515.2029250591958
515.2038703894199
515.2048149252988
515.2057586670115
515.2067016147372
515.2076437686552
515.2085851289447
515.2095256957845
515.2104654693532
515.2114044498293
515.2123426373915
515.2132800322191
515.2142166344914
515.2151524443879
515.2160874620878
515.2170216877706
515.2179551216155
515.2188877638022
515.2198196145101
515.2207506739193
515.2216809422094
515.2226104195607
515.223539106153
515.2244670021663
515.2253941077807
515.2263204231766
515.227245948534
515.228170684033
515.2290946298539
515.2300177861774
515.2309401531846
515.2318617310565
515.232782519974
515.2337025201181
515.2346217316698
515.2355401548103
515.2364577897209
515.2373746365826
515.2382906955762
515.2392059668827
515.2401204506831
515.2410341471585
515.2419470564904
515.2428591788602
515.2437705144492
515.2446810634389
515.2455908260102
515.246499802345
515.247407992625
515.2483153970319
515.2492220157477
515.2501278489543
515.2510328968341
515.2519371595698
515.2528406373443
515.2537433303404
515.2546452387409
515.2555463627281
515.2564467024846
515.2573462581933
515.2582450300368
515.2591430181984
515.260040222861
515.2609366442074
515.2618322824204
515.2627271376829
515.2636212101773
515.2645145000864
515.2654070075931
515.2662987328805
515.2671896761316
515.2680798375296
515.2689692172581
515.2698578155008
515.2707456324416
515.2716326682647
515.2725189231545
515.2734043972958
515.274289090874
515.2751730040744
515.2760561370823
515.2769384900827
515.2778200632614
515.2787008568038
515.2795808708951
515.2804601057209
515.2813385614671
515.2822162383198
515.283093136465
515.2839692560887
515.2848445973767
515.2857191605152
515.2865929456904
515.2874659530884
515.288338182895
515.2892096352963
515.2900803104789
515.2909502086296
515.2918193299355
515.2926876745831
515.2935552427592
515.2944220346502
515.2952880504425
515.2961532903229
515.2970177544784
515.2978814430957
515.298744356361
515.2996064944604
515.3004678575795
515.3013284459047
515.3021882596225
515.3030472989198
515.3039055639825
515.3047630549969
515.3056197721495
515.3064757156272
515.3073308856168
515.3081852823049
515.3090389058781
515.3098917565236
515.3107438344288
515.3115951397814
515.3124456727697
515.3132954335825
515.3141444224087
515.3149926394375
515.3158400848585
515.3166867588617
515.3175326616373
515.3183777933758
515.3192221542678
515.320065744504
515.3209085642751
515.3217506137725
515.3225918931875
515.3234324027118
515.3242721425371
515.3251111128556
515.3259493138595
515.3267867457415
515.3276234086942
515.3284593029101
515.3292944285821
515.330128785903
515.3309623750655
515.3317951962628
515.3326272496878
515.3334585355341
515.3342890539953
515.3351188052651
515.335947789537
515.3367760070049
515.3376034578629
515.3384301423056
515.3392560605283
515.3400812127264
515.3409055990954
515.3417292198311
515.3425520751294
515.3433741651864
515.3441954901981
515.3450160503602
515.3458358458689
515.3466548769205
515.3474731437117
515.3482906464395
515.3491073853014
515.3499233604952
515.350738572219
515.3515530206718
515.3523667060525
515.3531796285605
515.3539917883949
515.3548031857548
515.3556138208402
515.3564236938511
515.3572328049876
515.3580411544498
515.358848742438
515.3596555691528
515.3604616347953
515.3612669395669
515.3620714836687
515.362875267302
515.3636782906682
515.3644805539687
515.3652820574051
515.3660828011788
515.3668827854914
515.3676820105446
515.3684804765402
515.3692781836795
515.3700751321643
515.3708713221962
515.3716667539767
515.3724614277074
515.3732553435906
515.3740485018283
515.3748409026229
515.3756325461771
515.3764234326944
515.377213562378
515.3780029354315
515.3787915520592
515.3795794124652
515.3803665168538
515.381152865429
515.3819384583952
515.3827232959565
515.3835073783167
515.38429070568
515.3850732782506
515.3858550962328
515.386636159831
515.3874164692501
515.388196024695
515.3889748263713
515.3897528744841
515.3905301692383
515.3913067108391
515.3920824994917
515.3928575354015
515.3936318187738
515.3944053498136
515.3951781287263
515.3959501557177
515.3967214309936
515.3974919547599
515.3982617272228
515.3990307485886
515.3997990190636
515.4005665388539
515.401333308166
515.4020993272064
515.4028645961815
515.403629115298
515.4043928847631
515.4051559047838
515.4059181755678
515.4066796973226
515.4074404702563
515.4082004945766
515.4089597704912
515.4097182982076
515.4104760779336
515.4112331098767
515.4119893942446
515.4127449312456
515.4134997210875
515.4142537639785
515.4150070601264
515.4157596097392
515.416511413025
515.4172624701922
515.4180127814496
515.418762347006
515.4195111670705
515.4202592418522
515.421006571561
515.4217531564058
515.4224989965959
515.4232440923405
515.4239884438488
515.4247320513299
515.4254749149931
515.4262170350474
515.4269584117022
515.4276990451671
515.4284389356516
515.4291780833654
515.429916488518
515.4306541513187
515.4313910719769
515.4321272507026
515.4328626877058
515.4335973831966
515.4343313373855
515.4350645504832
515.4357970227001
515.4365287542463
515.4372597453324
515.437989996169
515.4387195069663
515.4394482779347
515.4401763092845
515.4409036012261
515.4416301539699
515.4423559677265
515.4430810427065
515.4438053791208
515.4445289771805
515.4452518370969
515.4459739590815
515.4466953433465
515.4474159901041
515.4481358995666
515.448855071946
515.4495735074541
515.450291206303
515.4510081687046
515.4517243948716
515.452439885017
515.453154639354
515.4538686580958
515.4545819414558
515.4552944896476
515.4560063028847
515.456717381381
515.4574277253504
515.4581373350064
515.4588462105627
515.4595543522327
515.4602617602299
515.4609684347678
515.4616743760599
515.4623795843203
515.4630840597632
515.4637878026032
515.4644908130543
515.4651930913313
515.4658946376493
515.4665954522233
515.467295535269
515.4679948870024
515.4686935076394
515.469391397396
515.4700885564883
515.4707849851333
515.4714806835476
515.4721756519483
515.4728698905527
515.4735633995787
515.474256179244
515.4749482297665
515.4756395513645
515.4763301442562
515.4770200086604
515.4777091447953
515.4783975528798
515.4790852331329
515.4797721857739
515.4804584110224
515.481143909098
515.4818286802205
515.4825127246094
515.4831960424843
515.483878634065
515.4845604995709
515.4852416392213
515.4859220532356
515.4866017418339
515.487280705236
515.4879589436624
515.4886364573334
515.4893132464698
515.4899893112923
515.4906646520225
515.4913392688815
515.4920131620905
515.4926863318709
515.4933587784443
515.4940305020326
515.4947015028578
515.4953717811417
515.4960413371062
515.4967101709736
515.497378282966
515.4980456733059
515.498712342216
515.499378289919
515.5000435166384
515.5007080225977
515.501371808021
515.5020348731322
515.5026972181553
515.5033588433145
515.5040197488346
515.5046799349406
515.5053394018574
515.5059981498104
515.5066561790242
515.507313489724
515.5079700821351
515.5086259564824
515.5092811129915
515.5099355518877
515.5105892733962
515.5112422777426
515.5118945651517
515.5125461358492
515.5131969900609
515.513847128013
515.514496549932
515.5151452560443
515.5157932465767
515.5164405217555
515.5170870818073
515.517732926959
515.5183780574374
515.5190224734696
515.5196661752822
515.5203091631018
515.5209514371558
515.5215929976711
515.5222338448751
515.5228739789951
515.5235134002581
515.5241521088916
515.5247901051231
515.52542738918
515.5260639612897
515.5266998216792
515.5273349705761
515.5279694082075
515.5286031348004
515.5292361505825
515.5298684557816
515.5305000506256
515.5311309353423
515.5317611101592
515.5323905753042
515.5330193310054
515.5336473774909
515.5342747149888
515.5349013437275
515.5355272639353
515.5361524758404
515.5367769796716
515.5374007756578
515.5380238640281
515.5386462450114
515.5392679188366
515.5398888857325
515.5405091459278
515.5411286996513
515.5417475471312
515.5423656885959
515.542983124274
515.5435998543948
515.5442158791874
515.5448311988815
515.5454458137066
515.546059723892
515.5466729296676
515.5472854312635
515.5478972289103
515.5485083228385
515.5491187132787
515.5497284004617
515.5503373846185
515.5509456659801
515.5515532447774
515.5521601212416
515.5527662956034
515.5533717680936
515.5539765389427
515.5545806083809
515.5551839766384
515.5557866439457
515.5563886105327
515.5569898766297
515.5575904424664
515.5581903082729
515.5587894742793
515.559387940716
515.5599857078138
515.5605827758033
515.5611791449154
515.5617748153817
515.5623697874338
515.5629640613039
515.5635576372241
515.5641505154264
515.5647426961426
515.5653341796047
515.5659249660447
515.5665150556946
515.5671044487864
515.5676931455517
515.5682811462231
515.5688684510327
515.5694550602133
515.5700409739972
515.5706261926169
515.5712107163052
515.5717945452947
515.5723776798185
515.57296012011
515.5735418664027
515.5741229189306
515.5747032779276
515.5752829436279
515.5758619162656
515.5764401960743
515.5770177832882
515.5775946781417
515.5781708808698
515.5787463917076
515.57932121089
515.5798953386528
515.5804687752319
515.5810415208633
515.5816135757835
515.5821849402295
515.582755614438
515.5833255986462
515.5838948930908
515.5844634980093
515.5850314136391
515.5855986402179
515.5861651779834
515.5867310271732
515.5872961880247
515.5878606607752
515.5884244456619
515.5889875429219
515.5895499527927
515.5901116755116
515.5906727113155
515.591233060442
515.5917927231293
515.592351699615
515.5929099901376
515.5934675949351
515.594024514245
515.594580748305
515.5951362973525
515.5956911616248
515.5962453413593
515.5967988367937
515.5973516481657
515.5979037757137
515.5984552196763
515.5990059802929
515.5995560578025
515.6001054524446
515.6006541644591
515.6012021940859
515.6017495415646
515.602296207135
515.6028421910372
515.6033874935105
515.6039321147945
515.6044760551289
515.6050193147538
515.6055618939096
515.6061037928367
515.6066450117761
515.6071855509689
515.6077254106566
515.6082645910809
515.6088030924838
515.609340915107
515.6098780591927
515.6104145249827
515.6109503127194
515.6114854226452
515.6120198550026
515.6125536100343
515.6130866879834
515.6136190890928
515.6141508136055
515.6146818617643
515.6152122338125
515.6157419299933
515.6162709505501
515.6167992957265
515.6173269657664
515.617853960914
515.6183802814134
515.6189059275094
515.6194308994471
515.6199551974713
515.6204788218269
515.6210017727586
515.6215240505115
515.6220456553302
515.6225665874598
515.6230868471451
515.6236064346311
515.6241253501627
515.6246435939848
515.6251611663428
515.6256780674813
515.6261942976454
515.6267098570796
515.6272247460289
515.6277389647377
515.6282525134501
515.6287653924102
515.6292776018621
515.6297891420503
515.6303000132192
515.630810215613
515.6313197494759
515.6318286150523
515.6323368125871
515.6328443423255
515.6333512045125
515.6338573993934
515.634362927214
515.6348677882203
515.6353719826578
515.6358755107725
515.6363783728101
515.6368805690162
515.6373820996365
515.6378829649169
515.6383831651034
515.638882700442
515.6393815711784
515.6398797775586
515.6403773198284
515.640874198234
515.641370413021
515.6418659644352
515.6423608527222
515.6428550781278
515.6433486408981
515.6438415412791
515.6443337795166
515.6448253558564
515.6453162705442
515.6458065238263
515.646296115949
515.6467850471589
515.647273317703
515.647760927828
515.6482478777806
515.6487341678074
515.6492197981555
515.6497047690715
515.6501890808021
515.6506727335935
515.6511557276925
515.6516380633456
515.6521197407991
515.6526007602996
515.6530811220936
515.6535608264275
515.6540398735475
515.6545182637007
515.654995997134
515.6554730740951
515.6559494948311
515.6564252595894
515.6569003686174
515.6573748221634
515.6578486204756
515.6583217638021
515.6587942523905
515.6592660864889
515.6597372663454
515.6602077922083
515.660677664326
515.6611468829473
515.6616154483207
515.6620833606959
515.6625506203219
515.6630172274478
515.6634831823225
515.6639484851947
515.6644131363133
515.664877135927
515.665340484284
515.6658031816327
515.666265228221
515.6667266242974
515.6671873701101
515.6676474659079
515.6681069119394
515.6685657084535
515.6690238556993
515.669481353926
515.6699382033829
515.6703944043194
515.6708499569851
515.6713048616297
515.671759118503
515.6722127278548
515.6726656899349
515.673118004993
515.6735696732786
515.6740206950416
515.6744710705315
515.6749207999977
515.6753698836895
515.6758183218561
515.6762661147467
515.6767132626102
515.6771597656956
515.6776056242519
515.6780508385278
515.6784954087719
515.6789393352327
515.6793826181589
515.679825257799
515.6802672544019
515.6807086082159
515.6811493194899
515.6815893884731
515.6820288154144
515.6824676005625
515.6829057441661
515.6833432464736
515.6837801077339
515.6842163281962
515.684651908109
515.6850868477212
515.6855211472815
515.6859548070391
515.6863878272433
515.6868202081431
515.6872519499874
515.6876830530244
515.6881135175021
515.6885433436679
515.68897253177
515.6894010820564
515.6898289947754
515.6902562701756
515.6906829085054
515.6911089100132
515.6915342749472
515.6919590035558
515.6923830960872
515.6928065527899
515.6932293739125
515.6936515597037
515.6940731104122
515.6944940262866
515.6949143075752
515.6953339545261
515.695752967387
515.696171346406
515.6965890918312
515.6970062039107
515.6974226828928
515.6978385290257
515.6982537425578
515.698668323737
515.699082272812
515.6994955900312
515.6999082756432
515.7003203298963
515.7007317530387
515.7011425453189
515.7015527069854
515.7019622382862
515.7023711394703
515.7027794107863
515.7031870524828
515.703594064808
515.7040004480103
515.7044062023384
515.704811328041
515.7052158253667
515.705619694564
515.7060229358816
515.7064255495685
515.7068275358737
515.7072288950461
515.707629627335
515.7080297329895
515.7084292122591
515.708828065393
515.7092262926402
515.7096238942496
515.71002087047
515.7104172215498
515.7108129477375
515.7112080492813
515.7116025264294
515.7119963794297
515.7123896085303
515.7127822139795
515.7131741960255
515.7135655549167
515.7139562909014
515.7143464042277
515.7147358951441
515.7151247638993
515.715513010742
515.715900635921
515.716287639685
515.7166740222827
515.717059783963
515.7174449249748
515.717829445567
515.7182133459886
515.7185966264891
515.7189792873181
515.7193613287253
515.7197427509608
515.7201235542747
515.720503738917
515.7208833051383
515.7212622531887
515.7216405833182
515.7220182957764
515.7223953908127
515.7227718686767
515.7231477296174
515.7235229738843
515.7238976017269
515.7242716133945
515.7246450091369
515.7250177892032
515.7253899538426
515.7257615033039
515.7261324378359
515.7265027576872
515.7268724631066
515.7272415543431
515.7276100316454
515.7279778952628
515.7283451454447
515.7287117824409
515.7290778065016
515.7294432178768
515.729808016817
515.7301722035721
515.7305357783924
515.730898741528
515.7312610932285
515.7316228337439
515.7319839633248
515.7323444822213
515.7327043906836
515.7330636889618
515.7334223773058
515.7337804559651
515.734137925189
515.7344947852265
515.7348510363266
515.7352066787386
515.7355617127117
515.7359161384956
515.7362699563397
515.7366231664938
515.7369757692078
515.7373277647315
515.7376791533148
515.7380299352075
515.7383801106588
515.7387296799183
515.7390786432348
515.7394270008575
515.7397747530348
515.7401219000152
515.7404684420475
515.7408143793804
515.7411597122626
515.741504440943
515.7418485656698
515.7421920866913
515.7425350042555
515.7428773186101
515.7432190300025
515.74356013868
515.7439006448898
515.744240548879
515.7445798508946
515.7449185511838
515.7452566499936
515.7455941475708
515.7459310441617
515.7462673400127
515.7466030353702
515.7469381304812
515.7472726255927
515.7476065209511
515.7479398168033
515.7482725133963
515.7486046109769
515.7489361097918
515.7492670100868
515.749597312108
515.7499270161019
515.7502561223149
515.7505846309933
515.7509125423834
515.7512398567313
515.7515665742834
515.7518926952856
515.752218219984
515.7525431486248
515.7528674814538
515.7531912187168
515.7535143606591
515.7538369075259
515.7541588595617
515.7544802170108
515.7548009801175
515.7551211491258
515.7554407242795
515.7557597058227
515.7560780939992
515.7563958890527
515.7567130912267
515.757029700765
515.7573457179109
515.757661142908
515.7579759759996
515.7582902174289
515.7586038674386
515.7589169262714
515.7592293941692
515.7595412713741
515.7598525581278
515.760163254672
515.7604733612478
515.7607828780964
515.7610918054582
515.7614001435737
515.7617078926831
515.7620150530269
515.7623216248447
515.7626276083764
515.7629330038616
515.7632378115394
515.7635420316486
515.7638456644278
515.7641487101149
515.7644511689481
515.7647530411649
515.7650543270032
515.7653550267008
515.7656551404956
515.7659546686253
515.7662536113277
515.76655196884
515.7668497413996
515.767146929244
515.7674435326097
515.7677395517336
515.7680349868518
515.7683298382011
515.7686241060177
515.7689177905378
515.7692108919977
515.7695034106335
515.7697953466817
515.7700867003776
515.7703774719565
515.770667661653
515.7709572697016
515.7712462963369
515.7715347417931
515.7718226063042
515.7721098901044
515.7723965934275
515.7726827165073
515.7729682595781
515.7732532228741
515.7735376066297
515.773821411079
515.774104636456
515.7743872829943
515.7746693509279
515.7749508404903
515.7752317519147
515.7755120854339
515.7757918412807
515.7760710196875
515.7763496208864
515.7766276451097
515.7769050925889
515.7771819635558
515.7774582582423
515.7777339768799
515.7780091196995
515.7782836869322
515.7785576788086
515.7788310955588
515.7791039374127
515.7793762046002
515.7796478973511
515.7799190158952
515.7801895604622
515.7804595312813
515.7807289285814
515.7809977525916
515.7812660035407
515.7815336816578
515.7818007871716
515.7820673203104
515.7823332813022
515.7825986703743
515.7828634877538
515.7831277336674
515.7833914083418
515.7836545120043
515.7839170448818
515.784179007201
515.7844403991882
515.784701221069
515.7849614730693
515.7852211554147
515.7854802683306
515.7857388120423
515.785996786774
515.7862541927501
515.7865110301949
515.7867672993328
515.7870230003881
515.7872781335849
515.7875326991474
515.7877866972993
515.788040128264
515.7882929922647
515.7885452895242
515.7887970202652
515.7890481847102
515.7892987830818
515.7895488156026
515.7897982824951
515.7900471839813
515.7902955202836
515.7905432916244
515.7907904982256
515.791037140309
515.7912832180958
515.7915287318073
515.7917736816645
515.7920180678883
515.792261890699
515.7925051503167
515.7927478469609
515.7929899808504
515.7932315522045
515.7934725612419
515.7937130081813
515.7939528932415
515.7941922166411
515.7944309785988
515.7946691793326
515.7949068190595
515.7951438979964
515.7953804163598
515.7956163743662
515.7958517722317
515.7960866101722
515.7963208884033
515.7965546071404
515.7967877665982
515.7970203669914
515.7972524085338
515.7974838914396
515.7977148159224
515.7979451821958
515.7981749904728
515.7984042409665
515.7986329338897
515.7988610694548
515.7990886478741
515.7993156693593
515.7995421341217
515.799768042372
515.79999339432
515.8002181901751
515.8004424301463
515.8006661144422
515.8008892432712
515.8011118168416
515.8013338353616
515.8015552990388
515.8017762080807
515.8019965626944
515.802216363087
515.8024356094655
515.8026543020363
515.8028724410054
515.8030900265788
515.8033070589621
515.8035235383605
515.8037394649792
515.8039548390226
515.804169660695
515.8043839302007
515.8045976477434
515.8048108135266
515.8050234277536
515.8052354906271
515.8054470023498
515.8056579631237
515.8058683731509
515.8060782326328
515.8062875417705
515.8064963007654
515.8067045098186
515.8069121691309
515.8071192789031
515.8073258393355
515.8075318506279
515.8077373129803
515.8079422265927
515.8081465916651
515.8083504083974
515.8085536769892
515.8087563976404
515.8089585705508
515.8091601959189
515.809361273943
515.8095618048209
515.8097617887503
515.8099612259288
515.8101601165534
515.810358460821
515.8105562589279
515.8107535110709
515.8109502174465
515.811146378251
515.8113419936802
515.8115370639297
515.8117315891949
515.8119255696712
515.8121190055537
515.8123118970369
515.8125042443156
515.8126960475844
515.8128873070381
515.8130780228711
515.8132681952776
515.8134578244516
515.8136469105864
515.8138354538751
515.8140234545112
515.8142109126886
515.8143978286009
515.8145842024421
515.8147700344064
515.8149553246883
515.8151400734826
515.8153242809844
515.8155079473893
515.8156910728924
515.815873657689
515.8160557019751
515.8162372059467
515.8164181698
515.8165985937317
515.8167784779378
515.8169578226143
515.8171366279576
515.8173148941639
515.8174926214299
515.8176698099517
515.8178464599257
515.8180225715482
515.8181981450155
515.8183731805241
515.8185476782714
515.8187216384551
515.8188950612728
515.8190679469219
515.8192402956004
515.8194121075064
515.819583382839
515.8197541217976
515.8199243245815
515.8200939913906
515.8202631224251
515.820431717885
515.8205997779708
515.8207673028835
515.8209342928237
515.8211007479924
515.8212666685911
515.8214320548211
515.8215969068845
515.821761224983
515.8219250093186
515.8220882600938
515.8222509775107
515.8224131617724
515.8225748130815
515.8227359316413
515.8228965176556
515.8230565713284
515.8232160928635
515.8233750824654
515.8235335403383
515.8236914666866
515.8238488617149
515.8240057256278
515.8241620586302
515.8243178609266
515.8244731327216
515.8246278742197
515.8247820856261
515.8249357671464
515.8250889189865
515.8252415413529
515.8253936344518
515.8255451984899
515.8256962336743
515.8258467402125
515.8259967183119
515.82614616818
515.8262950900246
515.8264434840537
515.8265913504754
515.8267386894979
515.82688550133
515.8270317861807
515.8271775442583
515.8273227757718
515.8274674809302
515.8276116599429
515.8277553130195
515.8278984403689
515.8280410422005
515.8281831187239
515.8283246701487
515.828465696685
515.828606198543
515.828746175933
515.828885629066
515.8290245581527
515.8291629634041
515.8293008450312
515.8294382032457
515.8295750382592
515.8297113502838
515.8298471395317
515.8299824062153
515.830117150547
515.8302513727397
515.8303850730063
515.8305182515601
515.8306509086144
515.8307830443825
515.8309146590784
515.8310457529162
515.8311763261106
515.8313063788762
515.8314359114283
515.8315649239823
515.8316934167535
515.8318213899574
515.8319488438096
515.8320757785261
515.8322021943231
515.8323280914171
515.8324534700248
515.832578330363
515.832702672649
515.8328264970999
515.8329498039332
515.8330725933663
515.8331948656166
515.8333166209015
515.8334378594388
515.8335585814468
515.8336787871438
515.8337984767484
515.8339176504796
515.8340363085572
515.8341544512004
515.8342720786293
515.8343891910633
515.8345057887223
515.8346218718259
515.8347374405942
515.8348524952473
515.834967036006
515.8350810630907
515.835194576722
515.8353075771206
515.8354200645078
515.8355320391051
515.8356435011342
515.8357544508169
515.8358648883757
515.8359748140331
515.8360842280124
515.8361931305374
515.8363015218322
515.8364094021213
515.836516771629
515.8366236305799
515.8367299791987
515.8368358177106
515.8369411463407
515.837045965314
515.8371502748557
515.8372540751909
515.8373573665449
515.8374601491435
515.8375624232124
515.8376641889774
515.8377654466642
515.8378661964982
515.8379664387053
515.8380661735112
515.8381654011421
515.8382641218247
515.8383623357863
515.8384600432544
515.8385572444565
515.8386539396204
515.8387501289737
515.8388458127449
515.8389409911626
515.8390356644561
515.8391298328545
515.8392234965875
515.8393166558851
515.8394093109775
515.8395014620953
515.8395931094694
515.8396842533318
515.8397748939153
515.839865031453
515.8399546661778
515.840043798323
515.8401324281215
515.8402205558066
515.8403081816118
515.8403953057707
515.8404819285174
515.8405680500862
515.8406536707116
515.8407387906286
515.8408234100723
515.8409075292777
515.84099114848
515.8410742679148
515.8411568878175
515.8412390084238
515.8413206299695
515.8414017526902
515.8414823768223
515.8415625026025
515.8416421302675
515.8417212600543
515.8417998921998
515.841878026941
515.8419556645154
515.84203280516
515.8421094491121
515.8421855966089
515.8422612478878
515.8423364031858
515.84241106274
515.8424852267874
515.8425588955649
515.8426320693093
515.8427047482576
515.842776932647
515.8428486227149
515.8429198186989
515.8429905208368
515.8430607293667
515.8431304445269
515.8431996665558
515.8432683956928
515.8433366321772
515.8434043762486
515.843471628147
515.8435383881124
515.8436046563852
515.8436704332055
515.8437357188138
515.8438005134508
515.8438648173571
515.8439286307739
515.8439919539421
515.8440547871035
515.8441171305001
515.8441789843744
515.8442403489689
515.8443012245264
515.8443616112897
515.8444215095019
515.8444809194054
515.8445398412434
515.8445982752589
515.8446562216952
515.8447136807961
515.8447706528052
515.8448271379664
515.8448831365233
515.84493864872
515.8449936748004
515.8450482150085
515.8451022695886
515.8451558387851
515.8452089228431
515.8452615220074
515.8453136365231
515.8453652666353
515.8454164125892
515.8454670746298
515.8455172530023
515.845566947952
515.8456161597244
515.8456648885654
515.8457131347204
515.8457608984352
515.8458081799556
515.8458549795282
515.8459012973997
515.8459471338167
515.845992489026
515.846037363274
515.8460817568075
515.8461256698733
515.846169102718
515.846212055588
515.84625452873
515.8462965223907
515.8463380368171
515.846379072256
515.8464196289549
515.8464597071609
515.8464993071213
515.8465384290837
515.8465770732957
515.8466152400051
515.8466529294599
515.8466901419083
515.8467268775992
515.8467631367814
515.8467989197045
515.8468342266183
515.8468690577727
515.8469034134175
515.8469372938025
515.8469706991777
515.8470036297938
515.8470360859012
515.8470680677508
515.8470995755936
515.8471306096806
515.8471611702632
515.8471912575933
515.8472208719224
515.8472500135022
515.8472786825839
515.8473068794194
515.8473346042608
515.8473618573605
515.8473886389709
515.8474149493443
515.8474407887336
515.8474661573914
515.8474910555708
515.8475154835246
515.8475394415057
515.8475629297666
515.8475859485604
515.8476084981405
515.8476305787603
515.8476521906734
515.8476733341333
515.8476940093933
515.8477142167069
515.847733956328
515.8477532285112
515.8477720335109
515.8477903715818
515.8478082429785
515.8478256479561
515.84784258677
515.8478590596751
515.8478750669267
515.8478906087798
515.8479056854903
515.8479202973137
515.8479344445059
515.8479481273228
515.8479613460206
515.8479741008559
515.847986392085
515.847998219964
515.8480095847497
515.8480204866989
515.8480309260688
515.8480409031163
515.8480504180986
515.8480594712735
515.8480680628984
515.8480761932312
515.8480838625296
515.8480910710512
515.8480978190535
515.8481041067942
515.8481099345311
515.848115302522
515.8481202110249
515.8481246602973
515.8481286505969
515.8481321821816
515.8481352553094
515.8481378702384
515.8481400272265
515.8481417265318
515.8481429684123
515.8481437531261
515.8481440809321
515.8481439520895
515.8481433668578
515.8481423254973
515.8481408282685
515.8481388754319
515.8481364672487
515.8481336039797
515.8481302858861
515.8481265132289
515.848122286269
515.8481176052676
515.8481124704861
515.8481068821859
515.8481008406286
515.8480943460761
515.8480873987905
515.8480799990341
515.8480721470685
515.8480638431554
515.8480550875568
515.8480458805343
515.8480362223502
515.8480261132665
515.8480155535456
515.8480045434499
515.847993083242
515.8479811731847
515.847968813541
515.8479560045741
515.8479427465477
515.8479290397252
515.8479148843701
515.847900280746
515.8478852291162
515.8478697297439
515.8478537828926
515.8478373888261
515.8478205478082
515.8478032601026
515.8477855259734
515.8477673456844
515.8477487194989
515.8477296476806
515.8477101304932
515.8476901682004
515.8476697610663
515.8476489093548
515.8476276133304
515.8476058732574
515.8475836894006
515.8475610620253
515.8475379913971
515.8475144777815
515.8474905214441
515.8474661226503
515.8474412816656
515.8474159987557
515.847390274186
515.8473641082219
515.8473375011288
515.847310453172
515.8472829646169
515.847255035729
515.8472266667743
515.847197858019
515.8471686097289
515.8471389221702
515.8471087956093
515.8470782303132
515.8470472265492
515.8470157845852
515.8469839046891
515.8469515871284
515.846918832171
515.8468856400848
515.8468520111378
515.8468179455983
515.8467834437342
515.8467485058134
515.8467131321036
515.8466773228724
515.8466410783878
515.8466043989179
515.8465672847308
515.8465297360951
515.8464917532795
515.8464533365525
515.846414486183
515.8463752024397
515.8463354855921
515.8462953359101
515.846254753664
515.8462137391236
515.846172292559
515.8461304142402
515.8460881044373
515.8460453634204
515.84600219146
515.845958588827
515.845914555792
515.8458700926258
515.8458251995994
515.8457798769841
515.8457341250514
515.845687944073
515.8456413343208
515.845594296067
515.845546829584
515.8454989351442
515.8454506130195
515.845401863482
515.8453526868045
515.8453030832595
515.8452530531197
515.8452025966578
515.8451517141473
515.8451004058616
515.8450486720742
515.8449965130587
515.8449439290891
515.8448909204396
515.8448374873849
515.8447836301996
515.8447293491586
515.8446746445368
515.8446195166093
515.8445639656509
515.8445079919361
515.8444515957399
515.8443947773369
515.8443375370023
515.8442798750114
515.8442217916397
515.8441632871634
515.8441043618589
515.8440450160031
515.8439852498732
515.8439250637468
515.8438644579016
515.8438034326152
515.8437419881654
515.8436801248299
515.843617842886
515.8435551426116
515.8434920242848
515.8434284881841
515.8433645345883
515.8433001637766
515.8432353760279
515.8431701716211
515.8431045508353
515.84303851395
515.8429720612448
515.8429051929995
515.8428379094942
515.8427702110087
515.8427020978231
515.8426335702177
515.8425646284725
515.8424952728676
515.8424255036834
515.8423553212003
515.8422847256991
515.8422137174609
515.8421422967674
515.8420704638995
515.8419982191383
515.8419255627648
515.8418524950598
515.8417790163039
515.8417051267782
515.8416308267635
515.8415561165414
515.8414809963926
515.8414054665984
515.8413295274397
515.8412531791976
515.8411764221532
515.841099256588
515.8410216827835
515.8409437010216
515.8408653115844
515.8407865147542
515.8407073108135
515.8406277000447
515.8405476827304
515.8404672591537
515.8403864295979
515.8403051943465
515.840223553683
515.8401415078915
515.8400590572562
515.8399762020613
515.839892942591
515.8398092791297
515.8397252119623
515.8396407413736
515.8395558676486
515.8394705910725
515.8393849119304
515.8392988305075
515.8392123470887
515.8391254619594
515.8390381754045
515.8389504877096
515.83886239916
515.8387739100415
515.83868502064
515.8385957312416
515.8385060421326
515.8384159535992
515.8383254659282
515.8382345794059
515.838143294319
515.8380516109539
515.8379595295971
515.8378670505351
515.8377741740546
515.8376809004424
515.8375872299853
515.8374931629703
515.8373986996842
515.8373038404136
515.8372085854455
515.8371129350667
515.8370168895638
515.8369204492235
515.8368236143331
515.8367263851796
515.8366287620506
515.8365307452339
515.8364323350172
515.836333531689
515.8362343355375
515.8361347468513
515.8360347659188
515.835934393029
515.8358336284707
515.8357324725332
515.8356309255057
515.8355289876779
515.8354266593394
515.83532394078
515.8352208322892
515.8351173341568
515.835013446673
515.8349091701277
515.8348045048115
515.8346994510148
515.8345940090287
515.8344881791447
515.8343819616546
515.8342753568502
515.8341683650235
515.8340609864663
515.8339532214707
515.8338450703288
515.833736533333
515.8336276107759
515.8335183029506
515.8334086101497
515.8332985326658
515.8331880707913
515.8330772248185
515.8329659950393
515.8328543817463
515.8327423852322
515.83263000579
515.8325172437123
515.8324040992927
515.8322905728239
515.8321766645988
515.8320623749103
515.8319477040516
515.831832652316
515.8317172199975
515.8316014073896
515.8314852147862
515.8313686424806
515.8312516907661
515.8311343599357
515.8310166502833
515.8308985621027
515.8307800956875
515.8306612513318
515.8305420293293
515.8304224299741
515.8303024535601
515.8301821003818
515.8300613707336
515.8299402649102
515.8298187832067
515.8296969259188
515.8295746933422
515.8294520857728
515.8293291035068
515.8292057468404
515.8290820160703
515.8289579114928
515.8288334334045
515.8287085821021
515.8285833578827
515.8284577610436
515.8283317918815
515.8282054506928
515.8280787377741
515.8279516534219
515.8278241979326
515.8276963716025
515.8275681747282
515.827439607606
515.8273106705326
515.8271813638046
515.827051687719
515.8269216425729
515.8267912286635
515.8266604462883
515.8265292957446
515.8263977773299
515.8262658913411
515.8261336380749
515.826001017828
515.8258680308975
515.8257346775802
515.8256009581726
515.8254668729714
515.8253324222733
515.8251976063748
515.8250624255727
515.824926880164
515.8247909704455
515.8246546967148
515.8245180592692
515.8243810584061
515.8242436944229
515.8241059676168
515.823967878285
515.8238294267253
515.8236906132352
515.823551438112
515.8234119016531
515.823272004156
515.8231317459183
515.8229911272379
515.8228501484127
515.822708809741
515.8225671115208
515.8224250540507
515.8222826376291
515.8221398625544
515.8219967291254
515.8218532376407
515.8217093883984
515.821565181697
515.8214206178343
515.8212756971081
515.8211304198164
515.8209847862568
515.8208387967272
515.8206924515257
515.8205457509498
515.8203986952974
515.8202512848663
515.8201035199543
515.819955400859
515.8198069278785
515.819658101311
515.8195089214548
515.8193593886083
515.8192095030693
515.8190592651356
515.8189086751049
515.8187577332749
515.8186064399429
515.8184547954058
515.8183027999607
515.8181504539045
515.8179977575344
515.8178447111475
515.8176913150407
515.8175375695116
515.8173834748577
515.8172290313764
515.8170742393647
515.8169190991193
515.8167636109367
515.8166077751134
515.8164515919459
515.8162950617307
515.8161381847642
515.8159809613428
515.8158233917629
515.8156654763211
515.8155072153138
515.8153486090375
515.815189657789
515.8150303618647
515.8148707215619
515.8147107371776
515.8145504090091
515.8143897373536
515.8142287225082
515.8140673647704
515.8139056644379
515.8137436218087
515.8135812371804
515.8134185108509
515.8132554431172
515.8130920342767
515.8129282846264
515.8127641944636
515.8125997640855
515.8124349937891
515.8122698838722
515.8121044346321
515.8119386463666
515.8117725193727
515.8116060539476
515.8114392503885
515.8112721089931
515.8111046300585
515.8109368138819
515.8107686607607
515.8106001709918
515.8104313448723
515.8102621826993
515.8100926847699
515.8099228513815
515.8097526828319
515.8095821794188
515.8094113414406
515.8092401691958
515.8090686629835
515.8088968231023
515.808724649851
515.8085521435287
515.8083793044341
515.808206132866
515.8080326291233
515.8078587935054
515.8076846263114
515.8075101278403
515.8073352983913
515.8071601382637
515.8069846477567
515.8068088271698
515.8066326768023
515.8064561969534
515.8062793879224
515.806102250009
515.8059247835129
515.8057469887333
515.8055688659699
515.8053904155222
515.8052116376896
515.8050325327713
515.8048531010666
515.8046733428741
515.804493258493
515.8043128482225
515.8041321123619
515.8039510512115
515.8037696650715
515.803587954242
515.8034059190229
515.8032235597148
515.8030408766174
515.8028578700307
515.8026745402547
515.8024908875893
515.8023069123349
515.8021226147919
515.8019379952609
515.8017530540426
515.801567791437
515.8013822077444
515.8011963032652
515.8010100783001
515.8008235331497
515.800636668115
515.8004494834972
515.8002619795977
515.8000741567178
515.7998860151583
515.7996975552205
515.7995087772053
515.7993196814139
515.7991302681469
515.7989405377054
515.7987504903911
515.7985601265052
515.7983694463494
515.7981784502254
515.7979871384352
515.7977955112815
515.7976035690667
515.7974113120938
515.7972187406658
515.7970258550861
515.7968326556579
515.7966391426846
515.79644531647
515.7962511773178
515.7960567255318
515.7958619614162
515.7956668852755
515.7954714974142
515.7952757981366
515.7950797877472
515.7948834665506
515.7946868348511
515.7944898929529
515.7942926411604
515.7940950797777
515.793897209109
515.7936990294586
515.7935005411302
515.7933017444273
515.793102639653
515.7929032271109
515.7927035071045
515.7925034799377
515.7923031459143
515.7921025053381
515.7919015585132
515.7917003057439
515.7914987473348
515.7912968835903
515.791094714815
515.7908922413133
515.7906894633895
515.7904863813485
515.7902829954949
515.7900793061333
515.7898753135685
515.7896710181051
515.7894664200478
515.7892615197015
515.7890563173714
515.7888508133626
515.7886450079802
515.7884389015292
515.7882324943146
515.7880257866416
515.7878187788153
515.7876114711407
515.7874038639225
515.7871959574652
515.7869877520736
515.7867792480527
515.7865704457072
515.7863613453417
515.7861519472606
515.7859422517683
515.7857322591692
515.7855219697676
515.785311383868
515.7851005017749
515.7848893237933
515.7846778502285
515.7844660813855
515.78425401757
515.7840416590877
515.7838290062448
515.7836160593474
515.7834028187024
515.7831892846164
515.7829754573961
515.7827613373488
515.7825469247814
515.7823322200011
515.7821172233155
515.781901935032
515.7816863554583
515.7814704849018
515.7812543236698
515.7810378720699
515.7808211304091
515.7806040989951
515.7803867781352
515.7801691681366
515.7799512693066
515.7797330819524
515.7795146063813
515.7792958429009
515.7790767918186
515.7788574534425
515.7786378280803
515.7784179160403
515.7781977176307
515.7779772331594
515.7777564629343
515.7775354072635
515.7773140664544
515.7770924408151
515.7768705306537
515.7766483362791
515.7764258579998
515.7762030961246
515.7759800509623
515.7757567228216
515.7755331120113
515.7753092188398
515.7750850436153
515.7748605866466
515.7746358482427
515.7744108287127
515.7741855283655
515.7739599475101
515.7737340864562
515.7735079455135
515.7732815249917
515.7730548252009
515.7728278464513
515.7726005890531
515.7723730533169
