508.58167699484187
508.5835124881302
508.5853479758204
508.5871834578349
508.58901893409615
508.5908544045264
508.5926898690481
508.594525327584
508.5963607800565
508.59819622638787
508.60003166650057
508.6018671003173
508.60370252776073
508.6055379487538
508.60737336321944
508.60920877108055
508.61104417226005
508.6128795666811
508.61471495426684
508.6165503349402
508.61838570862363
508.62022107523984
508.6220564347115
508.62389178696156
508.6257271319129
508.62756246948874
508.6293977996124
508.6312331222077
508.63306843719823
508.6349037445079
508.6367390440602
508.63857433577886
508.6404096195874
508.6422448954092
508.6440801631674
508.645915422785
508.6477506741846
508.6495859172889
508.65142115202065
508.6532563783025
508.6550915960574
508.65692680520846
508.6587620056793
508.66059719739377
508.6624323802759
508.66426755424953
508.66610271923827
508.6679378751657
508.6697730219552
508.6716081595304
508.67344328781513
508.6752784067332
508.67711351620864
508.6789486161651
508.68078370652614
508.6826187872154
508.6844538581567
508.68628891927364
508.6881239704898
508.6899590117286
508.69179404291316
508.69362906396685
508.6954640748133
508.69729907537607
508.699134065579
508.7009690453462
508.7028040146019
508.7046389732704
508.7064739212762
508.70830885854383
508.71014378499757
508.7119787005617
508.7138136051605
508.7156484987183
508.7174833811593
508.7193182524076
508.72115311238707
508.7229879610215
508.72482279823515
508.72665762395235
508.72849243809736
508.73032724059425
508.7321620313675
508.7339968103417
508.7358315774415
508.7376663325917
508.739501075717
508.7413358067419
508.74317052559076
508.7450052321878
508.7468399264571
508.7486746083229
508.75050927770957
508.75234393454156
508.7541785787434
508.7560132102396
508.7578478289544
508.75968243481196
508.76151702773603
508.76335160765046
508.7651861744793
508.76702072814686
508.7688552685774
508.770689795695
508.77252430942343
508.7743588096866
508.7761932964085
508.77802776951347
508.7798622289253
508.78169667456785
508.78353110636516
508.7853655242413
508.7871999281203
508.7890343179262
508.79086869358315
508.7927030550149
508.7945374021453
508.7963717348982
508.79820605319713
508.800040356966
508.80187464612885
508.8037089206095
508.805543180332
508.80737742522086
508.80921165520084
508.81104587019666
508.8128800701331
508.8147142549348
508.81654842452684
508.8183825788346
508.82021671778347
508.8220508412989
508.82388494930655
508.82571904173227
508.8275531185017
508.82938717954056
508.8312212247742
508.8330552541278
508.8348892675269
508.83672326489653
508.8385572461622
508.84039121124937
508.84222516008384
508.8440590925915
508.8458930086983
508.8477269083298
508.8495607914119
508.85139465787046
508.8532285076314
508.8550623406206
508.85689615676387
508.85872995598714
508.8605637382163
508.86239750337717
508.86423125139544
508.866064982197
508.86789869570765
508.86973239185335
508.87156607056016
508.87339973175443
508.8752333753625
508.87706700131065
508.87890060952503
508.88073419993174
508.8825677724571
508.8844013270272
508.8862348635682
508.8880683820061
508.88990188226734
508.89173536427796
508.8935688279643
508.8954022732525
508.8972357000686
508.899069108339
508.9009024979902
508.9027358689488
508.90456922114134
508.9064025544944
508.90823586893447
508.9100691643882
508.9119024407823
508.9137356980438
508.91556893609976
508.9174021548776
508.9192353543048
508.92106853430886
508.9229016948172
508.9247348357573
508.9265679570569
508.9284010586436
508.9302341404454
508.93206720239044
508.93390024440686
508.9357332664228
508.93756626836665
508.93939925016656
508.9412322117507
508.94306515304714
508.94489807398435
508.9467309744909
508.9485638544954
508.95039671392595
508.9522295527108
508.954062370778
508.9558951680555
508.9577279444713
508.959560699953
508.96139343442854
508.9632261478259
508.9650588400729
508.9668915110978
508.9687241608287
508.97055678919395
508.97238939612197
508.9742219815409
508.97605454537864
508.9778870875629
508.97971960802187
508.9815521066834
508.98338458347547
508.9852170383262
508.98704947116374
508.98888188191626
508.99071427051234
508.9925466368804
508.99437898094874
508.99621130264603
508.9980436019011
508.99987587864274
509.0017081327998
509.00354036430116
509.0053725730756
509.00720475905194
509.0090369221588
509.0108690623246
509.0127011794777
509.0145332735462
509.0163653444585
509.018197392143
509.0200294165283
509.021861417543
509.0236933951159
509.0255253491759
509.02735727965177
509.02918918647237
509.0310210695665
509.03285292886284
509.0346847642899
509.0365165757764
509.0383483632508
509.0401801266418
509.042011865878
509.0438435808882
509.0456752716013
509.0475069379458
509.04933857985037
509.0511701972436
509.0530017900541
509.0548333582107
509.05666490164225
509.0584964202773
509.0603279140443
509.06215938287136
509.0639908266864
509.06582224541756
509.0676536389935
509.06948500734273
509.07131635039417
509.0731476680766
509.0749789603189
509.07681022704963
509.0786414681974
509.0804726836911
509.0823038734597
509.08413503743253
509.0859661755391
509.08779728770895
509.08962837387156
509.09145943395623
509.09329046789225
509.0951214756089
509.09695245703546
509.0987834121012
509.1006143407355
509.10244524286776
509.1042761184278
509.1061069673455
509.10793778955093
509.10976858497423
509.1115993535454
509.1134300951946
509.11526080985226
509.1170914974488
509.1189221579147
509.1207527911801
509.12258339717545
509.1244139758314
509.1262445270783
509.1280750508467
509.1299055470669
509.1317360156697
509.1335664565856
509.1353968697453
509.1372272550797
509.1390576125197
509.14088794199637
509.14271824344104
509.1445485167853
509.1463787619604
509.148208978898
509.1500391675294
509.15186932778596
509.1536994595987
509.15552956289883
509.1573596376176
509.1591896836862
509.1610197010356
509.16284968959707
509.1646796493016
509.1665095800801
509.16833948186326
509.1701693545817
509.1719991981665
509.1738290125492
509.17565879766147
509.1774885534348
509.17931827980095
509.18114797669153
509.18297764403786
509.18480728177127
509.1866368898231
509.18846646812466
509.1902960166073
509.19212553520236
509.19395502384117
509.1957844824548
509.19761391097444
509.1994433093309
509.20127267745505
509.2031020152778
509.20493132273026
509.2067605997435
509.2085898462489
509.210419062178
509.2122482474626
509.2140774020342
509.21590652582444
509.2177356187646
509.21956468078605
509.22139371181987
509.2232227117972
509.2250516806491
509.22688061830667
509.2287095247013
509.23053839976427
509.23236724342695
509.23419605562043
509.23602483627604
509.2378535853251
509.239682302699
509.241510988329
509.2433396421465
509.2451682640828
509.2469968540692
509.2488254120373
509.25065393791846
509.2524824316442
509.2543108931463
509.25613932235655
509.25796771920676
509.2597960836285
509.26162441555306
509.2634527149118
509.26528098163607
509.2671092156572
509.26893741690645
509.27076558531525
509.2725937208151
509.2744218233374
509.2762498928134
509.27807792917446
509.27990593235194
509.28173390227715
509.2835618388812
509.28538974209545
509.28721761185164
509.2890454480816
509.29087325071754
509.29270101969195
509.2945287549375
509.29635645638695
509.2981841239727
509.30001175762726
509.3018393572831
509.30366692287265
509.30549445432865
509.3073219515838
509.30914941457075
509.310976843222
509.3128042374703
509.31463159724825
509.3164589224886
509.31828621312405
509.3201134690875
509.3219406903119
509.3237678767302
509.32559502827525
509.32742214488025
509.32924922647834
509.3310762730029
509.3329032843871
509.3347302605641
509.336557201467
509.33838410702873
509.34021097718227
509.3420378118603
509.34386461099547
509.3456913745203
509.3475181023675
509.3493447944699
509.3511714507603
509.3529980711716
509.3548246556365
509.3566512040874
509.3584777164569
509.3603041926776
509.3621306326824
509.36395703640454
509.36578340377736
509.36760973473446
509.3694360292092
509.37126228713504
509.37308850844505
509.3749146930724
509.3767408409503
509.3785669520118
509.3803930261901
509.38221906341863
509.3840450636305
509.3858710267588
509.3876969527366
509.38952284149667
509.39134869297203
509.39317450709535
509.39500028379956
509.3968260230178
509.39865172468325
509.4004773887288
509.4023030150874
509.4041286036922
509.4059541544763
509.40777966737295
509.40960514231523
509.4114305792363
509.4132559780691
509.41508133874635
509.4169066612007
509.4187319453651
509.42055719117246
509.4223823985557
509.4242075674478
509.42603269778186
509.42785778949127
509.42968284250964
509.43150785677057
509.43333283220744
509.43515776875387
509.4369826663437
509.4388075249107
509.4406323443886
509.44245712471087
509.4442818658112
509.4461065676234
509.4479312300809
509.4497558531172
509.45158043666623
509.453404980662
509.4552294850386
509.4570539497301
509.4588783746705
509.4607027597937
509.4625271050333
509.4643514103229
509.4661756755958
509.46799990078574
509.469824085826
509.4716482306505
509.47347233519275
509.47529639938665
509.47712042316647
509.47894440646627
509.4807683492201
509.4825922513625
509.484416112828
509.4862399335513
509.48806371346717
509.48988745251035
509.49171115061534
509.4935348077169
509.4953584237498
509.4971819986487
509.49900553234846
509.50082902478397
509.50265247589
509.5044758856015
509.50629925385346
509.5081225805806
509.50994586571795
509.51176910920066
509.5135923109637
509.51541547094183
509.51723858907
509.51906166528346
509.5208846995171
509.522707691706
509.524530641785
509.5263535496894
509.5281764153544
509.52999923871556
509.5318220197086
509.5336447582692
509.5354674543332
509.53729010783667
509.5391127187158
509.54093528690663
509.5427578123453
509.54458029496794
509.5464027347104
509.5482251315088
509.550047485299
509.5518697960169
509.5536920635986
509.55551428798
509.5573364690969
509.5591586068853
509.56098070128127
509.5628027522209
509.56462475964025
509.56644672347574
509.5682686436639
509.57009052014104
509.571912352844
509.5737341417095
509.57555588667464
509.5773775876764
509.57919924465176
509.5810208575378
509.5828424262715
509.58466395078966
509.5864854310293
509.58830686692767
509.590128258422
509.59194960544954
509.59377090794754
509.5955921658535
509.59741337910503
509.59923454764015
509.60105567139675
509.602876750313
509.6046977843268
509.6065187733763
509.60833971739993
509.61016061633603
509.6119814701232
509.6138022787006
509.6156230420069
509.61744375998086
509.619264432561
509.621085059686
509.62290564129415
509.6247261773239
509.6265466677136
509.6283671124017
509.6301875113265
509.6320078644266
509.6338281716409
509.63564843290845
509.6374686481685
509.6392888173604
509.6411089404234
509.64292901729704
509.64474904792104
509.6465690322354
509.64838897017984
509.65020886169435
509.65202870671914
509.6538485051944
509.65566825706054
509.65748796225824
509.65930762072793
509.66112723241
509.6629467972452
509.66476631517384
509.66658578613664
509.668405210074
509.67022458692617
509.6720439166331
509.6738631991347
509.675682434371
509.677501622282
509.67932076280766
509.6811398558879
509.6829589014632
509.6847778994742
509.6865968498616
509.6884157525662
509.69023460752913
509.69205341469154
509.69387217399475
509.6956908853803
509.6975095487898
509.69932816416457
509.70114673144593
509.70296525057546
509.70478372149495
509.7066021441462
509.708420518471
509.7102388444111
509.7120571219086
509.7138753509059
509.7156935313455
509.71751166316966
509.7193297463206
509.72114778074064
509.72296576637194
509.72478370315656
509.7266015910363
509.7284194299529
509.7302372198482
509.73205496066424
509.733872652343
509.7356902948267
509.7375078880579
509.7393254319788
509.74114292653184
509.74296037165976
509.74477776730504
509.7465951134099
509.7484124099166
509.7502296567672
509.75204685390344
509.75386400126735
509.7556810988012
509.7574981464472
509.75931514414737
509.76113209184354
509.7629489894775
509.7647658369912
509.766582634327
509.7683993814273
509.77021607823457
509.7720327246913
509.7738493207402
509.775665866324
509.77748236138535
509.779298805867
509.78111519971156
509.78293154286183
509.7847478352607
509.7865640768511
509.788380267576
509.79019640737846
509.7920124962017
509.7938285339889
509.79564452068297
509.79746045622636
509.7992763405618
509.80109217363196
509.8029079553798
509.80472368574823
509.8065393646802
509.80835499211906
509.81017056800846
509.8119860922922
509.8138015649142
509.81561698581794
509.81743235494713
509.81924767224535
509.8210629376562
509.82287815112335
509.82469331259057
509.82650842200195
509.8283234793018
509.83013848443437
509.83195343734377
509.8337683379743
509.83558318626973
509.8373979821742
509.83921272563174
509.84102741658666
509.84284205498324
509.844656640766
509.84647117387925
509.8482856542673
509.85010008187436
509.8519144566448
509.85372877852313
509.85554304745364
509.85735726338083
509.859171426249
509.8609855360025
509.86279959258553
509.86461359594267
509.86642754601866
509.86824144275823
509.87005528610615
509.8718690760074
509.8736828124069
509.8754964952497
509.8773101244805
509.8791237000443
509.88093722188586
509.88275068994966
509.88456410418047
509.88637746452304
509.88819077092234
509.89000402332357
509.89181722167217
509.89363036591357
509.8954434559932
509.8972564918567
509.89906947344974
509.900882400718
509.9026952736071
509.90450809206294
509.9063208560314
509.9081335654584
509.9099462202898
509.9117588204717
509.9135713659502
509.9153838566712
509.9171962925806
509.9190086736243
509.9208209997484
509.922633270899
509.9244454870222
509.9262576480639
509.9280697539702
509.9298818046872
509.9316938001613
509.9335057403386
509.93531762516494
509.937129454586
509.93894122854766
509.9407529469958
509.94256460987634
509.94437621713513
509.9461877687183
509.9479992645717
509.9498107046415
509.95162208887353
509.95343341721394
509.95524468960883
509.95705590600454
509.9588670663472
509.9606781705831
509.96248921865885
509.964300210521
509.96611114611613
509.9679220253908
509.9697328482916
509.97154361476504
509.97335432475774
509.9751649782167
509.97697557508894
509.9787861153215
509.9805965988614
509.98240702565585
509.9842173956519
509.98602770879637
509.9878379650358
509.98964816431675
509.9914583065858
509.9932683917895
509.9950784198747
509.99688839078834
509.9986983044775
510.0005081608892
510.0023179599704
510.0041277016682
510.00593738592937
510.0077470127009
510.00955658192987
510.01136609356325
510.0131755475483
510.0149849438321
510.01679428236133
510.0186035630831
510.02041278594487
510.02222195089433
510.0240310578794
510.0258401068483
510.02764909774936
510.029458030531
510.03126690514154
510.0330757215294
510.03488447964304
510.03669317943053
510.03850182084005
510.0403104038198
510.04211892831785
510.04392739428243
510.0457358016617
510.04754415040355
510.0493524404557
510.05116067176635
510.0529688442836
510.0547769579559
510.0565850127313
510.0583930085583
510.06020094538525
510.06200882316074
510.06381664183317
510.06562440135093
510.06743210166263
510.06923974271666
510.0710473244614
510.0728548468455
510.0746623098175
510.07646971332605
510.0782770573193
510.0800843417457
510.08189156655334
510.0836987316906
510.08550583710615
510.08731288274856
510.08911986856623
510.0909267945073
510.0927336605202
510.0945404665537
510.0963472125565
510.09815389847694
510.09996052426317
510.10176708986336
510.10357359522567
510.10538004029803
510.1071864250284
510.1089927493644
510.1107990132536
510.1126052166432
510.1144113594807
510.1162174417138
510.11802346329017
510.1198294241578
510.121635324265
510.12344116356047
510.12524694199254
510.1270526595096
510.1288583160603
510.1306639115937
510.13246944605856
510.1342749194038
510.1360803315783
510.137885682531
510.1396909722111
510.14149620056736
510.1433013675489
510.1451064731047
510.1469115171839
510.1487164997356
510.15052142070925
510.1523262800544
510.15413107772036
510.15593581365596
510.1577404878098
510.1595451001303
510.1613496505658
510.1631541390647
510.16495856557543
510.16676293004656
510.16856723242694
510.17037147266564
510.17217565071195
510.17397976651495
510.17578382002347
510.1775878111866
510.1793917399536
510.181195606274
510.1829994100976
510.18480315137407
510.18660683005345
510.1884104460857
510.19021399942056
510.1920174900078
510.19382091779715
510.1956242827386
510.19742758478213
510.1992308238777
510.2010339999753
510.20283711302494
510.2046401629763
510.2064431497792
510.2082460733836
510.2100489337394
510.21185173079647
510.2136544645045
510.21545713481277
510.2172597416704
510.2190622850264
510.22086476482986
510.22266718102986
510.2244695335757
510.22627182241666
510.22807404750205
510.22987620878115
510.23167830620326
510.2334803397177
510.23528230927394
510.23708421482155
510.23888605631026
510.24068783368983
510.2424895469098
510.2442911959194
510.2460927806682
510.24789430110553
510.24969575718063
510.25149714884304
510.25329847604206
510.25509973872676
510.25690093684597
510.2587020703483
510.2605031391824
510.26230414329706
510.26410508264115
510.2659059571633
510.26770676681184
510.2695075115352
510.2713081912818
510.2731088059997
510.2749093556369
510.27670984014156
510.2785102594618
510.28031061354585
510.2821109023418
510.28391112579806
510.285711283863
510.2875113764848
510.28931140361186
510.29111136519276
510.29291126117613
510.2947110915106
510.2965108561447
510.2983105550274
510.30011018810745
510.3019097553337
510.3037092566548
510.3055086920194
510.3073080613762
510.3091073646744
510.310906601863
510.3127057728911
510.31450487770775
510.31630391626203
510.31810288850346
510.31990179438134
510.32170063384496
510.32349940684406
510.3252981133282
510.3270967532466
510.32889532654843
510.3306938331827
510.3324922730987
510.3342906462455
510.3360889525724
510.33788719202875
510.339685364564
510.34148347012746
510.3432815086682
510.3450794801353
510.34687738447786
510.3486752216449
510.3504729915855
510.3522706942487
510.3540683295834
510.3558658975384
510.3576633980626
510.35946083110474
510.36125819661373
510.3630554945382
510.3648527248267
510.3666498874281
510.36844698229146
510.3702440093659
510.37204096860063
510.3738378599448
510.3756346833474
510.37743143875736
510.3792281261232
510.38102474539363
510.3828212965174
510.38461777944343
510.3864141941205
510.3882105404975
510.390006818523
510.39180302814583
510.3935991693149
510.395395241979
510.39719124608695
510.39898718158764
510.4007830484297
510.4025788465619
510.4043745759331
510.40617023649196
510.40796582818706
510.409761350967
510.41155680478045
510.41335218957573
510.41514750530126
510.41694275190565
510.4187379293375
510.4205330375457
510.4223280764788
510.42412304608564
510.4259179463151
510.42771277711626
510.42950753843814
510.4313022302301
510.4330968524411
510.4348914050201
510.4366858879161
510.43848030107796
510.44027464445475
510.4420689179955
510.4438631216496
510.44565725536626
510.4474513190948
510.4492453127843
510.45103923638356
510.4528330898415
510.45462687310686
510.4564205861288
510.4582142288568
510.46000780124035
510.46180130322904
510.46359473477236
510.4653880958196
510.46718138631985
510.46897460622216
510.4707677554756
510.4725608340288
510.47435384183035
510.4761467788289
510.477939644973
510.4797324402113
510.4815251644922
510.4833178177641
510.48511039997555
510.48690291107545
510.4886953510126
510.4904877197359
510.4922800171939
510.49407224333544
510.49586439810963
510.4976564814655
510.49944849335196
510.5012404337178
510.5030323025116
510.50482409968225
510.5066158251786
510.5084074789492
510.51019906094297
510.5119905711089
510.51378200939615
510.51557337575395
510.51736467013137
510.5191558924777
510.5209470427423
510.5227381208744
510.52452912682355
510.52632006053926
510.52811092197106
510.5299017110685
510.531692427781
510.53348307205846
510.5352736438503
510.5370641431063
510.538854569776
510.5406449238089
510.54243520515473
510.5442254137633
510.5460155495845
510.5478056125684
510.54959560266497
510.5513855198239
510.5531753639952
510.55496513512884
510.5567548331748
510.5585444580831
510.5603340098036
510.56212348828643
510.5639128934817
510.56570222533986
510.56749148381135
510.5692806688466
510.5710697803958
510.572858818409
510.57464778283605
510.57643667362703
510.5782254907321
510.5800142341015
510.5818029036852
510.5835914994331
510.5853800212955
510.5871684692224
510.58895684316366
510.59074514306934
510.59253336888963
510.59432152057474
510.59610959807486
510.59789760134
510.5996855303201
510.6014733849651
510.60326116522486
510.60504887104906
510.60683650238747
510.6086240591896
510.6104115414052
510.61219894898426
510.61398628187675
510.61577354003265
510.61756072340194
510.61934783193436
510.6211348655797
510.6229218242874
510.62470870800706
510.6264955166882
510.6282822502805
510.63006890873356
510.6318554919971
510.63364200002087
510.63542843275485
510.637214790149
510.6390010721531
510.6407872787167
510.64257340978924
510.6443594653205
510.64614544526006
510.6479313495574
510.649717178162
510.6515029310237
510.65328860809217
510.65507420931743
510.65685973464946
510.65864518403845
510.6604305574344
510.66221585478723
510.66400107604676
510.6657862211627
510.66757129008505
510.66935628276354
510.67114119914817
510.6729260391889
510.6747108028355
510.67649549003767
510.6782801007452
510.68006463490786
510.6818490924756
510.68363347339863
510.68541777762715
510.68720200511115
510.6889861558006
510.69077022964547
510.692554226596
510.69433814660255
510.6961219896154
510.6979057555847
510.6996894444607
510.70147305619406
510.7032565907352
510.7050400480343
510.70682342804156
510.708606730707
510.71038995598036
510.71217310381115
510.7139561741489
510.7157391669429
510.7175220821427
510.7193049196978
510.72108767955746
510.72287036167126
510.7246529659887
510.7264354924593
510.7282179410326
510.73000031165833
510.73178260428625
510.73356481886634
510.7353469553486
510.73712901368293
510.7389109938196
510.7406928957086
510.7424747192999
510.7442564645434
510.7460381313892
510.74781971978695
510.7496012296862
510.75138266103653
510.7531640137876
510.7549452878895
510.7567264832921
510.75850759994563
510.76028863780056
510.76206959680684
510.76385047691423
510.76563127807225
510.76741200023065
510.7691926433387
510.770973207346
510.77275369220223
510.7745340978574
510.7763144242612
510.7780946713635
510.7798748391139
510.78165492746206
510.7834349363572
510.7852148657491
510.78699471558724
510.78877448582097
510.79055417639955
510.7923337872725
510.7941133183892
510.7958927696986
510.7976721411498
510.7994514326917
510.8012306442733
510.8030097758437
510.8047888273515
510.80656779874556
510.8083466899745
510.8101255009869
510.81190423173115
510.81368288215543
510.81546145220767
510.81723994183557
510.81901835098705
510.82079667961005
510.8225749276523
510.82435309506144
510.82613118178523
510.8279091877716
510.82968711296843
510.8314649573237
510.83324272078534
510.83502040330126
510.8367980048196
510.8385755252884
510.84035296465544
510.84213032286897
510.8439075998771
510.84568479562785
510.84746191006883
510.84923894314755
510.8510158948115
510.8527927650079
510.8545695536838
510.85634626078644
510.85812288626306
510.8598994300609
510.86167589212704
510.8634522724082
510.86522857085146
510.8670047874038
510.8687809220125
510.8705569746248
510.87233294518813
510.87410883365004
510.87588463995775
510.8776603640583
510.87943600589864
510.8812115654261
510.8829870425879
510.88476243733106
510.8865377496026
510.88831297934934
510.8900881265178
510.8918631910546
510.89363817290626
510.8954130720194
510.89718788834074
510.89896262181736
510.90073727239604
510.90251184002335
510.90428632464585
510.9060607262099
510.90783504466225
510.90960927994973
510.91138343201914
510.91315750081725
510.91493148629087
510.91670538838656
510.91847920705067
510.9202529422295
510.9220265938695
510.92380016191686
510.9255736463178
510.9273470470184
510.9291203639647
510.9308935971032
510.93266674638033
510.9344398117427
510.9362127931369
510.9379856905095
510.939758503807
510.94153123297605
510.9433038779634
510.94507643871583
510.94684891518017
510.9486213073032
510.9503936150315
510.9521658383116
510.9539379770901
510.95571003131334
510.95748200092766
510.95925388587915
510.96102568611394
510.9627974015779
510.96456903221696
510.9663405779774
510.9681120388058
510.96988341464856
510.9716547054517
510.9734259111614
510.975197031724
510.9769680670856
510.978739017192
510.980509881989
510.9822806614222
510.9840513554372
510.98582196397973
510.9875924869952
510.98936292442926
510.9911332762276
510.9929035423358
510.9946737226996
510.9964438172644
510.99821382597537
510.99998374877777
511.00175358561654
511.0035233364367
511.00529300118313
511.00706257980113
511.00883207223586
511.0106014784323
511.0123707983352
511.0141400318891
511.0159091790385
511.0176782397277
511.0194472139012
511.0212161015033
511.0229849024781
511.0247536167694
511.02652224432103
511.0282907850769
511.0300592389805
511.0318276059756
511.0335958860057
511.0353640790144
511.0371321849456
511.0389002037429
511.0406681353497
511.0424359797093
511.0442037367654
511.0459714064613
511.0477389887407
511.0495064835472
511.0512738908241
511.0530412105149
511.0548084425631
511.0565755869122
511.0583426435057
511.0601096122875
511.0618764932014
511.0636432861913
511.06540999120097
511.06717660817407
511.0689431370544
511.07070957778586
511.072475930312
511.07424219457624
511.07600837052195
511.0777744580923
511.07954045723017
511.08130636787877
511.08307218998124
511.08483792348096
511.0866035683211
511.08836912444457
511.0901345917941
511.09189997031257
511.09366525994295
511.0954304606284
511.0971955723118
511.09896059493616
511.10072552844434
511.1024903727795
511.10425512788487
511.1060197937035
511.1077843701789
511.1095488572543
511.111313254873
511.11307756297805
511.11484178151267
511.11660591041976
511.1183699496425
511.1201338991238
511.1218977588066
511.1236615286338
511.12542520854817
511.12718879849234
511.1289522984088
511.1307157082401
511.1324790279288
511.13424225741795
511.13600539665043
511.1377684455692
511.1395314041171
511.14129427223696
511.1430570498712
511.14481973696223
511.14658233345284
511.14834483928524
511.1501072544017
511.1518695787444
511.1536318122559
511.15539395487843
511.157156006554
511.15891796722434
511.1606798368311
511.1624416153158
511.16420330262
511.16596489868533
511.16772640345306
511.16948781686455
511.1712491388609
511.17301036938323
511.17477150837243
511.1765325557696
511.17829351151585
511.18005437555206
511.1818151478191
511.1835758282577
511.1853364168084
511.18709691341195
511.18885731800896
511.1906176305401
511.192377850946
511.1941379791671
511.19589801514365
511.1976579588158
511.19941781012375
511.2011775690077
511.20293723540766
511.20469680926357
511.20645629051563
511.20821567910383
511.2099749749679
511.2117341780476
511.21349328828245
511.21525230561195
511.2170112299754
511.21877006131234
511.2205287995625
511.2222874446656
511.2240459965612
511.22580445518855
511.22756282048675
511.2293210923951
511.23107927085283
511.2328373557995
511.23459534717466
511.2363532449178
511.2381110489684
511.239868759266
511.24162637574995
511.24338389835924
511.24514132703297
511.2468986617104
511.24865590233065
511.2504130488325
511.2521701011544
511.2539270592344
511.25568392301074
511.25744069242177
511.2591973674059
511.26095394790144
511.2627104338471
511.2644668251814
511.266223121843
511.2679793237705
511.2697354309025
511.2714914431778
511.27324736053555
511.27500318291476
511.2767589102545
511.2785145424936
511.2802700795707
511.2820255214246
511.28378086799415
511.2855361192182
511.28729127503533
511.28904633538417
511.2908013002033
511.2925561694312
511.29431094300566
511.29606562086445
511.2978202029455
511.29957468918695
511.30132907952697
511.3030833739037
511.30483757225505
511.306591674519
511.3083456806334
511.31009959053625
511.31185340416545
511.3136071214589
511.3153607423548
511.3171142667913
511.3188676947063
511.32062102603794
511.3223742607242
511.32412739870296
511.32588043991194
511.3276333842886
511.32938623177046
511.33113898229493
511.3328916357995
511.3346441922219
511.33639665149957
511.33814901357
511.33990127837063
511.341653445839
511.34340551591225
511.3451574885277
511.3469093636224
511.34866114113305
511.3504128209965
511.3521644031493
511.353915887528
511.3556672740694
511.35741856271005
511.35916975338654
511.3609208460354
511.36267184059324
511.3644227369966
511.366173535182
511.3679242350858
511.36967483664415
511.3714253397931
511.3731757444688
511.3749260506076
511.376676258146
511.3784263670206
511.38017637716797
511.3819262885244
511.3836761010261
511.3854258146086
511.3871754292076
511.3889249447588
511.3906743611978
511.39242367846026
511.39417289648185
511.3959220151982
511.3976710345452
511.3994199544588
511.40116877487475
511.4029174957288
511.40466611695655
511.40641463849323
511.4081630602738
511.409911382233
511.4116596043056
511.4134077264261
511.41515574852923
511.4169036705495
511.4186514924215
511.42039921407985
511.42214683545916
511.4238943564939
511.4256417771184
511.42738909726694
511.4291363168738
511.4308834358732
511.43263045419957
511.43437737178687
511.4361241885692
511.43787090448035
511.4396175194542
511.4413640334246
511.4431104463253
511.4448567580902
511.44660296865317
511.44834907794797
511.4500950859087
511.45184099246916
511.4535867975632
511.4553325011247
511.4570781030872
511.45882360338436
511.46056900194975
511.46231429871676
511.4640594936188
511.4658045865892
511.46754957756133
511.46929446646885
511.47103925324535
511.47278393782443
511.4745285201399
511.4762730001257
511.4780173777153
511.4797616528421
511.48150582543934
511.4832498954399
511.48499386277666
511.4867377273826
511.48848148919063
511.4902251481337
511.49196870414465
511.49371215715627
511.4954555071012
511.49719875391196
511.49894189752075
511.5006849378596
511.50242787486053
511.50417070845555
511.50591343857667
511.50765606515614
511.5093985881262
511.5111410074191
511.51288332296707
511.51462553470213
511.5163676425561
511.5181096464607
511.5198515463473
511.521593342147
511.5233350337907
511.5250766212095
511.5268181043345
511.52855948309656
511.5303007574266
511.5320419272552
511.53378299251284
511.53552395313017
511.5372648090378
511.5390055601667
511.54074620644764
511.5424867478113
511.5442271841882
511.5459675155086
511.54770774170305
511.54944786270215
511.55118787843656
511.55292778883717
511.55466759383484
511.55640729336045
511.5581468873449
511.5598863757188
511.5616257584126
511.56336503535675
511.5651042064814
511.5668432717168
511.56858223099306
511.57032108424045
511.57205983138914
511.57379847236933
511.575537007111
511.57727543554387
511.5790137575977
511.580751973202
511.58249008228603
511.5842280847791
511.5859659806105
511.58770376970955
511.58944145200525
511.59117902742645
511.592916495902
511.59465385736047
511.59639111173027
511.59812825893977
511.5998652989171
511.60160223159045
511.60333905688816
511.6050757747386
511.6068123850702
511.6085488878113
511.6102852828905
511.6120215702362
511.61375774977654
511.61549382143943
511.61722978515303
511.6189656408455
511.62070138844496
511.62243702787913
511.6241725590755
511.62590798196146
511.62764329646456
511.6293785025122
511.63111360003194
511.63284858895116
511.63458346919714
511.6363182406971
511.6380529033781
511.63978745716685
511.6415219019902
511.6432562377749
511.64499046444774
511.6467245819353
511.6484585901641
511.65019248906077
511.65192627855134
511.6536599585622
511.65539352901936
511.657126989849
511.65886034097724
511.66059358233014
511.6623267138336
511.6640597354132
511.6657926469945
511.66752544850254
511.6692581398624
511.670990720999
511.67272319183706
511.67445555230114
511.6761878023157
511.6779199418051
511.67965197069356
511.68138388890515
511.6831156963639
511.68484739299396
511.6865789787193
511.68831045346377
511.690041817151
511.6917730697043
511.6935042110469
511.6952352411021
511.69696615979313
511.69869696704285
511.70042766277396
511.70215824690894
511.70388871937047
511.70561908008125
511.70734932896397
511.70907946594133
511.71080949093556
511.7125394038687
511.7142692046629
511.7159988932403
511.71772846952257
511.7194579334311
511.72118728488675
511.7229165238104
511.72464565012245
511.72637466374334
511.7281035645935
511.72983235259306
511.73156102766205
511.7332895897202
511.7350180386872
511.7367463744826
511.7384745970257
511.7402027062355
511.7419307020311
511.7436585843315
511.74538635305584
511.7471140081229
511.74884154945124
511.7505689769593
511.75229629056565
511.7540234901887
511.75575057574673
511.757477547158
511.7592044043403
511.7609311472117
511.7626577756898
511.76438428969203
511.7661106891359
511.7678369739387
511.76956314401735
511.7712891992887
511.7730151396692
511.7747409650753
511.7764666754235
511.77819227062986
511.77991775061054
511.78164311528116
511.78336836455736
511.78509349835434
511.7868185165873
511.78854341917116
511.7902682060207
511.79199287705063
511.79371743217547
511.7954418713095
511.79716619436675
511.7988904012613
511.8006144919072
511.80233846621803
511.80406232410763
511.8057860654898
511.8075096902782
511.8092331983864
511.8109565897277
511.8126798642151
511.8144030217613
511.8161260622791
511.81784898568134
511.81957179188015
511.82129448078734
511.82301705231447
511.8247395063731
511.8264618428747
511.8281840617307
511.8299061628524
511.8316281461511
511.83335001153813
511.8350717589246
511.83679338822134
511.83851489933926
511.84023629218945
511.84195756668277
511.84367872272986
511.84539976024115
511.8471206791268
511.84884147929705
511.85056216066204
511.85228272313196
511.8540031666168
511.85572349102625
511.85744369626985
511.8591637822571
511.8608837488975
511.86260359610054
511.8643233237753
511.8660429318308
511.8677624201759
511.86948178871916
511.8712010373692
511.8729201660346
511.87463917462395
511.8763580630454
511.8780768312069
511.8797954790161
511.8815140063804
511.8832324132074
511.8849506994042
511.8866688648779
511.8883869095354
511.89010483328406
511.8918226360308
511.8935403176826
511.8952578781463
511.89697531732867
511.89869263513646
511.9004098314762
511.90212690625407
511.9038438593763
511.9055606907495
511.90727740027995
511.90899398787354
511.9107104534357
511.912426796872
511.91414301808794
511.91585911698866
511.91757509347934
511.9192909474652
511.92100667885137
511.9227222875431
511.9244377734453
511.9261531364629
511.92786837650095
511.9295834934639
511.93129848725624
511.9330133577823
511.93472810494603
511.9364427286511
511.93815722880066
511.9398716052976
511.9415858580448
511.9432999869452
511.9450139919015
511.94672787281587
511.9484416295906
511.9501552621279
511.9518687703298
511.9535821540982
511.955295413335
511.9570085479417
511.95872155781984
511.96043444287096
511.9621472029964
511.9638598380972
511.9655723480743
511.96728473282855
511.96899699226054
511.9707091262707
511.97242113475926
511.97413301762634
511.97584477477216
511.9775564060969
511.9792679115005
511.9809792908829
511.9826905441443
511.9844016711847
511.986112671904
511.9878235462017
511.98953429397733
511.99124491513015
511.9929554095592
511.9946657771631
511.99637601783996
511.9980861314879
511.9997961180051
512.0015059772894
512.0032157092384
512.0049253137496
512.0066347907206
512.0083441400485
512.0100533616306
512.011762455364
512.0134714211453
512.015180258871
512.0168889684377
512.0185975497412
512.0203060026778
512.022014327143
512.023722523032
512.0254305902396
512.0271385286604
512.0288463381893
512.0305540187206
512.032261570149
512.0339689923688
512.0356762852745
512.0373834487601
512.0390904827201
512.0407973870484
512.0425041616389
512.0442108063854
512.0459173211815
512.0476237059205
512.0493299604956
512.0510360847999
512.0527420787265
512.0544479421686
512.0561536750191
512.0578592771709
512.0595647485167
512.0612700889493
512.0629752983615
512.0646803766457
512.0663853236944
512.0680901393997
512.0697948236535
512.0714993763476
512.0732037973734
512.0749080866223
512.0766122439851
512.0783162693525
512.0800201626147
512.0817239236613
512.083427552382
512.0851310486661
512.0868344124027
512.0885376434807
512.0902407417883
512.091943707214
512.0936465396461
512.0953492389725
512.0970518050807
512.0987542378581
512.1004565371919
512.1021587029692
512.1038607350764
512.1055626334002
512.107264397827
512.1089660282433
512.1106675245354
512.112368886589
512.1140701142898
512.1157712075229
512.1174721661736
512.1191729901267
512.1208736792668
512.1225742334781
512.1242746526444
512.1259749366494
512.1276750853764
512.1293750987082
512.1310749765274
512.1327747187162
512.1344743251565
512.1361737957299
512.1378731303176
512.1395723288009
512.1412713910603
512.1429703169764
512.1446691064294
512.1463677592993
512.1480662754658
512.1497646548088
512.151462897208
512.153161002543
512.1548589706928
512.1565568015359
512.1582544949507
512.1599520508154
512.161649469008
512.1633467494063
512.1650438918879
512.1667408963302
512.1684377626108
512.1701344906065
512.1718310801942
512.1735275312507
512.1752238436524
512.1769200172758
512.1786160519977
512.1803119476943
512.1820077042422
512.1837033215176
512.1853987993967
512.1870941377559
512.1887893364714
512.1904843954186
512.1921793144733
512.1938740935105
512.1955687324051
512.197263231032
512.1989575892661
512.2006518069821
512.2023458840541
512.2040398203561
512.2057336157617
512.2074272701442
512.2091207833765
512.2108141553311
512.21250738588
512.2142004748947
512.2158934222465
512.2175862278062
512.2192788914448
512.2209714130325
512.2226637924397
512.2243560295361
512.2260481241916
512.2277400762754
512.2294318856569
512.2311235522055
512.2328150757902
512.2345064562795
512.2361976935416
512.2378887874446
512.2395797378559
512.2412705446426
512.2429612076711
512.2446517268078
512.2463421019187
512.2480323328697
512.2497224195266
512.2514123617551
512.2531021594206
512.2547918123881
512.256481320523
512.2581706836899
512.2598599017534
512.261548974578
512.2632379020275
512.2649266839661
512.2666153202578
512.2683038107667
512.269992155357
512.2716803538927
512.2733684062374
512.2750563122544
512.2767440718065
512.2784316847566
512.2801191509669
512.2818064702998
512.2834936426171
512.2851806677808
512.286867545652
512.2885542760922
512.2902408589626
512.2919272941243
512.2936135814379
512.2952997207639
512.2969857119625
512.2986715548935
512.3003572494159
512.3020427953885
512.3037281926696
512.3054134411174
512.3070985405892
512.3087834909426
512.3104682920344
512.3121529437216
512.3138374458605
512.3155217983075
512.3172060009189
512.318890053551
512.3205739560598
512.322257708301
512.3239413101302
512.3256247614028
512.3273080619739
512.3289912116983
512.3306742104306
512.3323570580254
512.3340397543371
512.3357222992203
512.337404692529
512.3390869341173
512.3407690238381
512.3424509615446
512.3441327470895
512.3458143803254
512.3474958611042
512.3491771892778
512.350858364698
512.3525393872161
512.3542202566833
512.3559009729505
512.3575815358685
512.359261945288
512.3609422010601
512.3626223030352
512.3643022510636
512.3659820449951
512.3676616846793
512.369341169965
512.3710205007009
512.372699676736
512.3743786979193
512.3760575640989
512.3777362751233
512.3794148308403
512.3810932310979
512.3827714757434
512.3844495646239
512.386127497586
512.3878052744766
512.3894828951419
512.3911603594282
512.3928376671814
512.3945148182466
512.396191812469
512.3978686496934
512.3995453297638
512.4012218525241
512.4028982178182
512.4045744254894
512.406250475381
512.4079263673356
512.4096021011952
512.4112776768017
512.4129530939964
512.4146283526208
512.416303452516
512.4179783935232
512.419653175483
512.4213277982359
512.4230022616222
512.4246765654815
512.4263507096533
512.4280246939767
512.4296985182904
512.4313721824325
512.4330456862407
512.434719029552
512.436392212203
512.4380652340307
512.4397380948716
512.4414107945621
512.4430833329378
512.4447557098339
512.4464279250855
512.4480999785272
512.4497718699935
512.4514435993184
512.4531151663363
512.4547865708811
512.4564578127864
512.4581288918858
512.4597998080122
512.4614705609982
512.4631411506765
512.4648115768797
512.4664818394402
512.4681519381903
512.4698218729617
512.4714916435856
512.4731612498932
512.4748306917153
512.4764999688824
512.4781690812252
512.4798380285737
512.4815068107577
512.4831754276071
512.4848438789519
512.4865121646218
512.4881802844465
512.4898482382551
512.4915160258766
512.4931836471393
512.4948511018714
512.4965183899011
512.4981855110562
512.499852465164
512.5015192520517
512.5031858715457
512.5048523234724
512.5065186076575
512.5081847239265
512.5098506721046
512.511516452017
512.5131820634894
512.5148475063469
512.5165127804142
512.5181778855157
512.519842821475
512.5215075881155
512.5231721852605
512.5248366127329
512.5265008703549
512.528164957948
512.529828875333
512.5314926223303
512.5331561987604
512.5348196044432
512.5364828391988
512.5381459028466
512.5398087952057
512.5414715160945
512.5431340653314
512.5447964427348
512.5464586481224
512.5481206813118
512.5497825421199
512.5514442303632
512.5531057458578
512.5547670884195
512.556428257864
512.5580892540075
512.5597500766656
512.5614107256537
512.5630712007866
512.5647315018788
512.5663916287441
512.5680515811958
512.5697113590469
512.5713709621099
512.5730303901972
512.5746896431216
512.5763487206954
512.5780076227308
512.5796663490395
512.5813248994326
512.5829832737207
512.5846414717142
512.586299493223
512.5879573380565
512.589615006024
512.5912724969347
512.5929298105974
512.5945869468202
512.5962439054109
512.5979006861775
512.5995572889273
512.601213713467
512.602869959603
512.6045260271411
512.6061819158864
512.6078376256436
512.6094931562169
512.6111485074106
512.6128036790288
512.6144586708755
512.6161134827533
512.6177681144651
512.6194225658127
512.6210768365976
512.6227309266206
512.6243848356827
512.6260385635841
512.6276921101249
512.6293454751052
512.6309986583243
512.6326516595817
512.6343044786769
512.6359571154088
512.6376095695765
512.6392618409785
512.6409139294127
512.6425658346767
512.6442175565677
512.6458690948824
512.6475204494176
512.6491716199697
512.650822606335
512.6524734083094
512.6541240256882
512.6557744582664
512.6574247058378
512.6590747681961
512.6607246451341
512.662374336444
512.6640238419176
512.6656731613467
512.6673222945229
512.668971241237
512.6706200012799
512.672268574442
512.6739169605138
512.6755651592852
512.6772131705455
512.678860994084
512.6805086296894
512.6821560771504
512.6838033362552
512.685450406792
512.6870972885484
512.6887439813112
512.6903904848667
512.6920367990011
512.6936829235
512.6953288581486
512.6969746027324
512.6986201570364
512.7002655208455
512.7019106939449
512.7035556761195
512.7052004671546
512.7068450668351
512.7084894749462
512.7101336912733
512.7117777156018
512.713421547717
512.7150651874042
512.7167086344491
512.7183518886375
512.7199949497556
512.7216378175901
512.7232804919279
512.7249229725555
512.7265652592603
512.7282073518293
512.7298492500493
512.731490953707
512.7331324625891
512.7347737764826
512.7364148951747
512.7380558184525
512.7396965461032
512.7413370779143
512.7429774136729
512.7446175531661
512.7462574961812
512.7478972425051
512.7495367919248
512.7511761442272
512.7528152991993
512.7544542566279
512.7560930163002
512.7577315780024
512.7593699415213
512.7610081066434
512.7626460731556
512.7642838408444
512.7659214094967
512.7675587788992
512.7691959488386
512.7708329191016
512.772469689475
512.7741062597458
512.7757426297017
512.7773787991298
512.7790147678177
512.7806505355527
512.782286102122
512.7839214673129
512.7855566309129
512.7871915927094
512.7888263524901
512.7904609100422
512.7920952651532
512.7937294176106
512.7953633672016
512.7969971137138
512.7986306569353
512.8002639966542
512.8018971326587
512.8035300647373
512.8051627926782
512.8067953162697
512.8084276353002
512.8100597495581
512.8116916588322
512.8133233629108
512.8149548615822
512.8165861546347
512.8182172418562
512.819848123035
512.8214787979589
512.8231092664162
512.8247395281951
512.8263695830835
512.8279994308689
512.8296290713386
512.8312585042797
512.8328877294791
512.8345167467235
512.8361455557995
512.8377741564934
512.8394025485916
512.8410307318807
512.8426587061474
512.844286471179
512.8459140267623
512.8475413726844
512.8491685087322
512.8507954346928
512.8524221503537
512.8540486555023
512.855674949926
512.8573010334123
512.8589269057493
512.8605525667247
512.8621780161259
512.8638032537408
512.8654282793575
512.8670530927645
512.8686776937504
512.8703020821033
512.8719262576112
512.8735502200627
512.8751739692464
512.8767975049507
512.878420826964
512.8800439350746
512.8816668290713
512.8832895087423
512.8849119738766
512.8865342242627
512.8881562596894
512.889778079945
512.891399684818
512.8930210740966
512.8946422475694
512.8962632050245
512.8978839462495
512.8995044710321
512.9011247791602
512.9027448704221
512.9043647446053
512.9059844014978
512.9076038408875
512.9092230625627
512.910842066312
512.9124608519242
512.9140794191878
512.9156977678911
512.9173158978222
512.9189338087692
512.9205515005203
512.9221689728636
512.923786225587
512.9254032584788
512.9270200713265
512.9286366639178
512.9302530360403
512.9318691874814
512.9334851180286
512.9351008274693
512.9367163155914
512.9383315821824
512.9399466270299
512.9415614499219
512.9431760506463
512.9447904289912
512.9464045847444
512.9480185176944
512.9496322276298
512.9512457143389
512.9528589776107
512.9544720172337
512.9560848329959
512.9576974246854
512.9593097920906
512.9609219349998
512.9625338532012
512.9641455464837
512.9657570146362
512.9673682574478
512.9689792747074
512.9705900662041
512.9722006317268
512.973810971065
512.9754210840085
512.9770309703474
512.9786406298715
512.9802500623712
512.9818592676372
512.9834682454605
512.985076995632
512.9866855179432
512.9882938121852
512.9899018781491
512.9915097156256
512.9931173244058
512.9947247042803
512.9963318550401
512.9979387764763
512.9995454683801
513.0011519305426
513.0027581627546
513.0043641648072
513.0059699364908
513.0075754775964
513.009180787915
513.0107858672377
513.0123907153559
513.0139953320611
513.0155997171448
513.0172038703984
513.0188077916134
513.0204114805817
513.022014937095
513.0236181609453
513.0252211519241
513.0268239098234
513.0284264344343
513.0300287255484
513.0316307829571
513.033232606452
513.0348341958245
513.0364355508661
513.0380366713684
513.0396375571227
513.0412382079205
513.0428386235537
513.0444388038143
513.0460387484943
513.047638457386
513.0492379302821
513.0508371669748
513.0524361672567
513.0540349309201
513.0556334577575
513.0572317475614
513.0588298001246
513.0604276152396
513.0620251926991
513.063622532296
513.0652196338235
513.066816497075
513.0684131218438
513.070009507923
513.0716056551057
513.073201563185
513.0747972319537
513.0763926612046
513.077987850731
513.0795828003259
513.0811775097825
513.0827719788945
513.0843662074556
513.0859601952595
513.0875539421006
513.0891474477733
513.0907407120721
513.092333734792
513.0939265157274
513.0955190546733
513.0971113514249
513.0987034057773
513.1002952175256
513.1018867864652
513.1034781123915
513.1050691950998
513.1066600343854
513.1082506300438
513.1098409818699
513.1114310896589
513.1130209532066
513.114610572308
513.1161999467581
513.1177890763522
513.1193779608855
513.120966600153
513.1225549939502
513.1241431420722
513.1257310443141
513.127318700471
513.128906110338
513.13049327371
513.1320801903828
513.1336668601521
513.1352532828137
513.1368394581634
513.1384253859969
513.1400110661098
513.1415964982978
513.1431816823565
513.1447666180816
513.1463513052686
513.1479357437127
513.1495199332091
513.1511038735537
513.1526875645422
513.1542710059714
513.1558541976374
513.1574371393365
513.1590198308647
513.1606022720182
513.1621844625927
513.163766402384
513.165348091188
513.1669295288004
513.1685107150172
513.1700916496341
513.1716723324473
513.1732527632532
513.1748329418481
513.1764128680281
513.1779925415897
513.179571962329
513.1811511300425
513.1827300445268
513.1843087055784
513.1858871129937
513.187465266569
513.1890431661006
513.1906208113853
513.1921982022197
513.1937753384011
513.1953522197266
513.1969288459936
513.1985052169996
513.2000813325419
513.201657192418
513.2032327964253
513.2048081443611
513.2063832360232
513.2079580712093
513.2095326497181
513.211106971348
513.212681035898
513.2142548431664
513.2158283929518
513.2174016850529
513.2189747192679
513.2205474953951
513.2221200132328
513.2236922725797
513.2252642732344
513.226836014996
513.228407497663
513.2299787210343
513.2315496849089
513.2331203890865
513.2346908333664
513.236261017548
513.2378309414314
513.2394006048164
513.2409700075034
513.2425391492925
513.2441080299839
513.2456766493774
513.2472450072728
513.2488131034695
513.250380937767
513.2519485099649
513.2535158198627
513.2550828672595
513.2566496519541
513.258216173746
513.2597824324341
513.2613484278181
513.2629141596976
513.2644796278726
513.2660448321433
513.2676097723104
513.2691744481751
513.2707388595388
513.2723030062027
513.2738668879681
513.2754305046358
513.2769938560066
513.2785569418816
513.2801197620618
513.2816823163482
513.2832446045422
513.2848066264448
513.2863683818573
513.2879298705809
513.2894910924172
513.2910520471678
513.2926127346348
513.29417315462
513.2957333069255
513.297293191353
513.2988528077042
513.3004121557804
513.3019712353828
513.3035300463127
513.3050885883715
513.3066468613604
513.3082048650806
513.3097625993337
513.3113200639211
513.3128772586449
513.314434183307
513.3159908377097
513.3175472216556
513.3191033349474
513.3206591773885
513.322214748782
513.323770048931
513.3253250776386
513.3268798347078
513.3284343199416
513.3299885331433
513.3315424741163
513.3330961426645
513.334649538592
513.336202661703
513.3377555118025
513.3393080886947
513.3408603921844
513.342412422076
513.343964178174
513.3455156602829
513.3470668682071
513.3486178017513
513.3501684607202
513.3517188449184
513.3532689541503
513.3548187882202
513.3563683469329
513.357917630093
513.3594666375054
513.3610153689754
513.3625638243082
513.364112003309
513.3656599057829
513.3672075315346
513.3687548803696
513.3703019520929
513.3718487465096
513.373395263425
513.3749415026441
513.3764874639721
513.3780331472144
513.379578552177
513.3811236786667
513.3826685264903
513.3842130954549
513.3857573853672
513.3873013960338
513.3888451272608
513.3903885788545
513.3919317506218
513.3934746423695
513.3950172539053
513.396559585037
513.3981016355731
513.3996434053222
513.4011848940929
513.4027261016936
513.4042670279323
513.4058076726169
513.4073480355555
513.408888116556
513.4104279154265
513.4119674319752
513.4135066660101
513.415045617339
513.4165842857701
513.4181226711114
513.419660773171
513.421198591757
513.4227361266778
513.4242733777417
513.4258103447573
513.4273470275336
513.4288834258793
513.4304195396032
513.4319553685139
513.4334909124198
513.43502617113
513.4365611444534
513.4380958321992
513.4396302341763
513.4411643501942
513.442698180062
513.4442317235892
513.4457649805845
513.4472979508573
513.4488306342166
513.4503630304712
513.45189513943
513.4534269609023
513.4549584946974
513.4564897406242
513.4580206984915
513.4595513681086
513.4610817492844
513.4626118418284
513.4641416455504
513.4656711602604
513.4672003857684
513.4687293218847
513.4702579684192
513.4717863251815
513.4733143919811
513.4748421686279
513.4763696549314
513.4778968507019
513.4794237557496
513.480950369885
513.4824766929185
513.4840027246603
513.4855284649209
513.4870539135109
513.4885790702408
513.4901039349218
513.4916285073648
513.4931527873812
513.4946767747817
513.4962004693778
513.4977238709805
513.4992469794013
513.5007697944513
513.502292315942
513.5038145436847
513.505336477491
513.5068581171724
513.50837946254
513.509900513405
513.5114212695782
513.5129417308706
513.5144618970928
513.5159817680562
513.5175013435721
513.519020623452
513.5205396075073
513.5220582955501
513.5235766873923
513.525094782846
513.5266125817236
513.5281300838371
513.5296472889991
513.5311641970218
513.5326808077177
513.5341971208993
513.5357131363787
513.5372288539681
513.5387442734798
513.5402593947258
513.5417742175184
513.5432887416703
513.544802966994
513.5463168933022
513.5478305204078
513.5493438481237
513.5508568762627
513.5523696046378
513.5538820330619
513.5553941613487
513.5569059893116
513.5584175167644
513.5599287435209
513.5614396693952
513.5629502942015
513.5644606177541
513.5659706398674
513.5674803603556
513.5689897790332
513.5704988957152
513.5720077102167
513.5735162223525
513.5750244319377
513.576532338787
513.5780399427156
513.5795472435386
513.5810542410716
513.58256093513
513.5840673255295
513.5855734120858
513.587079194614
513.58858467293
513.590089846849
513.5915947161864
513.5930992807575
513.5946035403779
513.5961074948625
513.5976111440268
513.5991144876864
513.6006175256568
513.6021202577538
513.6036226837925
513.6051248035885
513.6066266169576
513.6081281237155
513.6096293236781
513.611130216661
513.6126308024802
513.6141310809519
513.615631051892
513.6171307151169
513.6186300704428
513.620129117686
513.6216278566628
513.6231262871897
513.6246244090833
513.6261222221599
513.6276197262366
513.6291169211302
513.6306138066573
513.6321103826351
513.6336066488809
513.6351026052118
513.6365982514451
513.6380935873979
513.6395886128876
513.6410833277316
513.6425777317475
513.6440718247522
513.645565606563
513.6470590769966
513.64855223587
513.6500450830001
513.6515376182037
513.6530298412979
513.6545217520995
513.6560133504256
513.6575046360933
513.6589956089199
513.6604862687229
513.6619766153206
513.6634666485309
513.6649563681719
513.6664457740621
513.6679348660202
513.6694236438652
513.6709121074161
513.6724002564922
513.6738880909131
513.6753756104993
513.6768628150708
513.6783497044482
513.6798362784525
513.6813225369049
513.6828084796268
513.6842941064403
513.6857794171681
513.6872644116322
513.6887490896547
513.6902334510576
513.6917174956632
513.693201223294
513.6946846337726
513.6961677269219
513.6976505025646
513.6991329605235
513.7006151006215
513.7020969226817
513.703578426527
513.70505961198
513.7065404788639
513.7080210270017
513.7095012562165
513.7109811663317
513.7124607571707
513.7139400285571
513.715418980315
513.7168976122682
513.718375924241
513.7198539160579
513.7213315875435
513.7228089385228
513.724285968821
513.7257626782637
513.7272390666758
513.7287151338824
513.7301908797085
513.7316663039794
513.73314140652
513.7346161871556
513.7360906457118
513.7375647820143
513.739038595889
513.7405120871624
513.7419852556607
513.7434581012101
513.744930623637
513.7464028227675
513.747874698428
513.749346250444
513.7508174786419
513.7522883828483
513.7537589628901
513.7552292185942
513.7566991497879
513.7581687562981
513.7596380379518
513.761106994576
513.7625756259979
513.7640439320446
513.7655119125436
513.7669795673223
513.7684468962079
513.7699138990276
513.7713805756086
513.7728469257784
513.7743129493645
513.7757786461941
513.7772440160945
513.7787090588929
513.7801737744164
513.7816381624921
513.7831022229473
513.7845659556092
513.7860293603051
513.7874924368618
513.7889551851065
513.7904176048662
513.7918796959682
513.7933414582396
513.7948028915082
513.7962639956017
513.7977247703489
513.7991852155781
513.8006453311182
513.8021051167982
513.8035645724472
513.8050236978936
513.8064824929661
513.8079409574934
513.8093990913046
513.8108568942289
513.8123143660957
513.8137715067344
513.8152283159743
513.8166847936452
513.818140939577
513.8195967535996
513.8210522355432
513.8225073852384
513.823962202516
513.8254166872068
513.8268708391422
513.828324658153
513.8297781440699
513.8312312967244
513.8326841159476
513.8341366015704
513.835588753424
513.8370405713392
513.8384920551478
513.839943204681
513.8413940197709
513.8428445002489
513.844294645947
513.8457444566968
513.8471939323299
513.8486430726778
513.8500918775719
513.8515403468439
513.8529884803252
513.8544362778478
513.8558837392441
513.857330864347
513.8587776529891
513.8602241050032
513.8616702202219
513.8631159984777
513.8645614396034
513.8660065434317
513.8674513097951
513.8688957385266
513.870339829459
513.8717835824255
513.8732269972593
513.874670073794
513.8761128118638
513.8775552113027
513.8789972719455
513.880438993627
513.8818803761817
513.8833214194449
513.8847621232519
513.8862024874381
513.8876425118394
513.8890821962912
513.8905215406287
513.8919605446877
513.8933992083032
513.8948375313107
513.896275513546
513.8977131548452
513.8991504550443
513.9005874139793
513.9020240314865
513.9034603074012
513.9048962415595
513.9063318337969
513.907767083949
513.909201991851
513.9106365573377
513.9120707802444
513.9135046604069
513.9149381976611
513.9163713918426
513.9178042427877
513.9192367503322
513.9206689143118
513.922100734563
513.9235322109218
513.9249633432246
513.9263941313072
513.9278245750058
513.9292546741563
513.9306844285945
513.9321138381567
513.9335429026789
513.9349716219979
513.9363999959503
513.937828024373
513.9392557071026
513.9406830439759
513.9421100348293
513.9435366794994
513.944962977823
513.9463889296369
513.9478145347778
513.9492397930824
513.9506647043879
513.9520892685321
513.9535134853529
513.954937354689
513.9563608763794
513.9577840502632
513.9592068761795
513.9606293539675
513.9620514834671
513.9634732645177
513.9648946969589
513.9663157806308
513.9677365153736
513.9691569010283
513.9705769374357
513.9719966244368
513.9734159618731
513.974834949586
513.976253587417
513.9776718752075
513.979089812799
513.9805074000326
513.9819246367499
513.9833415227929
513.9847580580038
513.9861742422252
513.9875900752997
513.9890055570702
513.9904206873787
513.9918354660679
513.9932498929804
513.994663967959
513.9960776908467
513.9974910614872
513.9989040797243
514.0003167454022
514.0017290583648
514.0031410184565
514.0045526255212
514.005963879403
514.0073747799461
514.0087853269949
514.0101955203943
514.0116053599888
514.0130148456233
514.0144239771428
514.0158327543929
514.0172411772189
514.0186492454661
514.0200569589795
514.0214643176041
514.0228713211852
514.0242779695684
514.0256842625988
514.0270902001218
514.0284957819833
514.0299010080296
514.0313058781073
514.0327103920636
514.0341145497453
514.0355183509989
514.0369217956711
514.0383248836085
514.0397276146584
514.0411299886682
514.0425320054853
514.0439336649572
514.0453349669313
514.0467359112552
514.048136497777
514.049536726345
514.0509365968071
514.052336109012
514.0537352628082
514.0551340580446
514.0565324945703
514.0579305722349
514.0593282908883
514.0607256503806
514.0621226505616
514.0635192912812
514.0649155723895
514.0663114937365
514.0677070551726
514.0691022565481
514.0704970977138
514.0718915785203
514.0732856988193
514.0746794584627
514.0760728573023
514.0774658951898
514.0788585719772
514.080250887517
514.0816428416617
514.0830344342642
514.0844256651769
514.0858165342531
514.0872070413459
514.0885971863086
514.0899869689945
514.091376389257
514.092765446949
514.0941541419236
514.0955424740341
514.0969304431339
514.0983180490769
514.0997052917166
514.1010921709071
514.1024786865021
514.1038648383555
514.1052506263213
514.1066360502537
514.1080211100068
514.1094058054348
514.1107901363916
514.1121741027318
514.1135577043103
514.114940940982
514.1163238126021
514.117706319026
514.1190884601094
514.1204702357084
514.1218516456786
514.1232326898764
514.1246133681582
514.1259936803801
514.1273736263986
514.1287532060699
514.1301324192507
514.1315112657978
514.132889745568
514.1342678584181
514.1356456042047
514.1370229827846
514.1383999940147
514.1397766377515
514.141152913852
514.1425288221728
514.1439043625708
514.1452795349021
514.1466543390231
514.1480287747906
514.1494028420618
514.1507765406936
514.1521498705431
514.1535228314674
514.1548954233238
514.1562676459691
514.1576394992605
514.1590109830547
514.1603820972086
514.1617528415793
514.1631232160239
514.1644932204001
514.1658628545658
514.1672321183789
514.1686010116971
514.1699695343784
514.171337686281
514.1727054672635
514.1740728771845
514.1754399159024
514.176806583276
514.1781728791636
514.1795388034241
514.1809043559158
514.182269536497
514.1836343450261
514.1849987813619
514.1863628453627
514.1877265368871
514.1890898557933
514.1904528019395
514.1918153751838
514.193177575384
514.1945394023978
514.1959008560832
514.197261936298
514.1986226429003
514.1999829757485
514.2013429347019
514.2027025196196
514.2040617303617
514.205420566788
514.2067790287588
514.2081371161346
514.2094948287761
514.2108521665439
514.2122091292983
514.2135657168999
514.2149219292087
514.2162777660853
514.2176332273907
514.2189883129854
514.2203430227303
514.221697356486
514.2230513141133
514.2244048954728
514.2257581004258
514.2271109288329
514.228463380555
514.2298154554528
514.2311671533873
514.2325184742199
514.2338694178122
514.2352199840259
514.2365701727222
514.2379199837626
514.2392694170087
514.240618472322
514.2419671495643
514.2433154485977
514.2446633692846
514.246010911487
514.2473580750673
514.2487048598875
514.2500512658103
514.2513972926981
514.252742940414
514.2540882088208
514.2554330977816
514.2567776071596
514.2581217368181
514.2594654866202
514.2608088564295
514.2621518461099
514.263494455525
514.2648366845387
514.2661785330149
514.2675200008175
514.2688610878108
514.2702017938593
514.2715421188277
514.272882062581
514.2742216249842
514.2755608059026
514.2768996052016
514.278238022747
514.2795760584047
514.2809137120407
514.2822509835212
514.2835878727121
514.2849243794797
514.2862605036901
514.2875962452097
514.2889316039048
514.2902665796416
514.2916011722862
514.2929353817044
514.2942692077629
514.2956026503284
514.2969357092679
514.2982683844484
514.2996006757367
514.3009325829994
514.3022641061032
514.3035952449143
514.304925999299
514.3062563691244
514.3075863542576
514.3089159545661
514.3102451699172
514.3115740001779
514.3129024452153
514.3142305048966
514.3155581790895
514.3168854676621
514.3182123704826
514.3195388874194
514.3208650183417
514.3221907631182
514.3235161216182
514.324841093711
514.3261656792661
514.3274898781531
514.3288136902418
514.3301371154018
514.3314601535028
514.3327828044141
514.3341050680051
514.3354269441445
514.3367484327014
514.3380695335447
514.3393902465443
514.3407105715698
514.342030508491
514.3433500571775
514.3446692174996
514.3459879893278
514.3473063725328
514.3486243669856
514.3499419725579
514.351259189121
514.3525760165462
514.3538924547045
514.3552085034667
514.3565241627036
514.3578394322867
514.3591543120872
514.3604688019766
514.3617829018267
514.3630966115093
514.364409930896
514.3657228598593
514.3670353982709
514.3683475460027
514.3696593029267
514.3709706689153
514.372281643841
514.3735922275766
514.3749024199954
514.37621222097
514.3775216303736
514.378830648079
514.3801392739592
514.3814475078875
514.3827553497374
514.3840627993827
514.3853698566973
514.386676521555
514.3879827938301
514.3892886733968
514.390594160129
514.3918992539009
514.3932039545862
514.3945082620592
514.3958121761941
514.3971156968653
514.3984188239467
514.3997215573127
514.4010238968374
514.4023258423952
514.4036273938607
514.4049285511089
514.406229314015
514.4075296824544
514.4088296563025
514.4101292354344
514.4114284197256
514.4127272090514
514.4140256032877
514.4153236023105
514.4166212059961
514.4179184142206
514.4192152268604
514.4205116437918
514.421807664891
514.4231032900345
514.4243985190985
514.4256933519594
514.4269877884929
514.4282818285753
514.4295754720827
514.4308687188907
514.4321615688752
514.433454021912
514.4347460778768
514.436037736645
514.4373289980922
514.4386198620944
514.4399103285273
514.441200397267
514.44249006819
514.4437793411728
514.4450682160925
514.4463566928259
514.4476447712495
514.4489324512404
514.4502197326754
514.451506615432
514.4527930993881
514.4540791844217
514.4553648704104
514.4566501572322
514.4579350447648
514.4592195328867
514.4605036214759
514.461787310411
514.4630705995703
514.4643534888326
514.4656359780768
514.4669180671822
514.4681997560285
514.4694810444955
514.4707619324629
514.4720424198106
514.4733225064181
514.4746021921653
514.4758814769323
514.4771603605993
514.4784388430471
514.4797169241563
514.4809946038079
514.482271881883
514.4835487582625
514.4848252328272
514.4861013054581
514.4873769760359
514.4886522444415
514.4899271105558
514.4912015742595
514.4924756354337
514.4937492939596
514.4950225497187
514.4962954025928
514.4975678524638
514.4988398992139
514.5001115427251
514.5013827828802
514.5026536195621
514.5039240526537
514.5051940820381
514.5064637075982
514.5077329292169
514.5090017467769
514.5102701601606
514.5115381692506
514.5128057739296
514.5140729740804
514.5153397695856
514.5166061603281
514.5178721461912
514.5191377270583
514.520402902813
514.5216676733389
514.5229320385199
514.5241959982395
514.5254595523813
514.5267227008292
514.5279854434666
514.5292477801777
514.530509710846
514.5317712353556
514.5330323535907
514.5342930654358
514.5355533707755
514.5368132694944
514.5380727614775
514.5393318466101
514.540590524778
514.5418487958666
514.5431066597612
514.5443641163477
514.5456211655121
514.5468778071404
514.5481340411181
514.5493898673305
514.5506452856625
514.5519002959995
514.5531548982269
514.5544090922306
514.5556628778966
514.556916255111
514.5581692237595
514.5594217837277
514.5606739349007
514.5619256771636
514.5631770104012
514.5644279344988
514.5656784493415
514.5669285548149
514.5681782508052
514.5694275371982
514.5706764138793
514.5719248807338
514.5731729376473
514.5744205845051
514.5756678211931
514.5769146475973
514.5781610636036
514.5794070690979
514.5806526639665
514.5818978480957
514.5831426213717
514.584386983681
514.5856309349099
514.5868744749448
514.5881176036726
514.58936032098
514.5906026267535
514.5918445208797
514.5930860032452
514.5943270737364
514.5955677322397
514.5968079786419
514.5980478128297
514.5992872346899
514.600526244109
514.6017648409738
514.6030030251711
514.6042407965876
514.6054781551104
514.6067151006266
514.6079516330237
514.6091877521892
514.6104234580105
514.6116587503755
514.6128936291723
514.6141280942891
514.6153621456144
514.6165957830369
514.6178290064456
514.61906181573
514.62029421078
514.6215261914856
514.6227577577365
514.6239889094225
514.6252196464332
514.6264499686583
514.6276798759882
514.6289093683129
514.6301384455228
514.6313671075084
514.6325953541602
514.633823185369
514.6350506010253
514.6362776010199
514.6375041852434
514.6387303535873
514.6399561059427
514.6411814422006
514.6424063622524
514.6436308659893
514.6448549533027
514.6460786240843
514.647301878226
514.6485247156197
514.6497471361574
514.6509691397312
514.6521907262329
514.6534118955549
514.6546326475898
514.6558529822303
514.657072899369
514.6582923988985
514.6595114807114
514.6607301447009
514.6619483907602
514.6631662187831
514.6643836286628
514.6656006202934
514.6668171935692
514.6680333483844
514.6692490846333
514.6704644022104
514.6716793010103
514.6728937809269
514.6741078418543
514.6753214836867
514.6765347063185
514.6777475096437
514.6789598935568
514.680171857952
514.6813834027241
514.6825945277676
514.683805232977
514.6850155182467
514.6862253834715
514.6874348285462
514.6886438533659
514.689852457826
514.6910606418221
514.6922684052504
514.6934757480069
514.694682669988
514.6958891710899
514.697095251209
514.6983009102416
514.6995061480845
514.7007109646349
514.7019153597905
514.703119333449
514.704322885508
514.7055260158652
514.7067287244181
514.7079310110641
514.7091328757006
514.7103343182241
514.7115353385313
514.7127359365188
514.7139361120833
514.7151358651215
514.7163351955303
514.7175341032064
514.7187325880468
514.7199306499485
514.721128288809
514.7223255045258
514.723522296996
514.7247186661173
514.7259146117879
514.7271101339063
514.7283052323714
514.7294999070821
514.7306941579375
514.7318879848372
514.7330813876808
514.7342743663683
514.7354669207991
514.7366590508732
514.7378507564897
514.7390420375477
514.7402328939461
514.7414233255838
514.74261333236
514.7438029141733
514.7449920709225
514.7461808025062
514.7473691088228
514.7485569897706
514.7497444452479
514.750931475153
514.7521180793844
514.7533042578407
514.7544900104199
514.7556753370202
514.7568602375397
514.7580447118767
514.7592287599293
514.7604123815961
514.7615955767756
514.7627783453659
514.7639606872649
514.7651426023701
514.7663240905792
514.7675051517901
514.768685785901
514.7698659928099
514.7710457724147
514.7722251246137
514.7734040493044
514.7745825463849
514.7757606157531
514.7769382573072
514.7781154709448
514.7792922565638
514.7804686140623
514.7816445433384
514.7828200442905
514.7839951168173
514.7851697608176
514.7863439761898
514.787517762833
514.7886911206463
514.7898640495289
514.7910365493801
514.7922086200995
514.7933802615864
514.7945514737405
514.7957222564612
514.7968926096485
514.7980625332025
514.7992320270234
514.800401091012
514.8015697250687
514.8027379290945
514.8039057029903
514.8050730466568
514.8062399599949
514.807406442905
514.8085724952878
514.8097381170446
514.8109033080771
514.8120680682866
514.8132323975749
514.8143962958436
514.8155597629948
514.8167227989306
514.8178854035534
514.8190475767653
514.8202093184689
514.8213706285667
514.8225315069615
514.8236919535561
514.824851968254
514.8260115509586
514.8271707015731
514.828329420001
514.8294877061455
514.8306455599102
514.8318029811987
514.8329599699155
514.8341165259646
514.8352726492506
514.8364283396779
514.8375835971517
514.8387384215769
514.8398928128586
514.8410467709025
514.8422002956142
514.8433533868995
514.8445060446641
514.8456582688143
514.8468100592565
514.8479614158971
514.8491123386425
514.8502628273993
514.8514128820741
514.8525625025732
514.8537116888031
514.8548604406703
514.8560087580815
514.857156640943
514.858304089161
514.859451102642
514.8605976812921
514.8617438250174
514.8628895337235
514.8640348073166
514.8651796457023
514.8663240487867
514.8674680164761
514.8686115486764
514.8697546452938
514.8708973062346
514.8720395314051
514.8731813207116
514.8743226740605
514.8754635913581
514.8766040725109
514.8777441174259
514.8788837260106
514.8800228981729
514.8811616338212
514.8822999328643
514.8834377952116
514.8845752207728
514.8857122094571
514.8868487611742
514.887984875834
514.8891205533471
514.8902557936237
514.8913905965749
514.8925249621113
514.893658890144
514.8947923805836
514.8959254333406
514.8970580483262
514.898190225452
514.8993219646297
514.9004532657709
514.9015841287874
514.9027145535908
514.9038445400934
514.9049740882069
514.9061031978438
514.9072318689161
514.908360101336
514.9094878950152
514.9106152498655
514.9117421657986
514.9128686427266
514.9139946805619
514.9151202792168
514.9162454386039
514.9173701586358
514.9184944392248
514.9196182802837
514.9207416817251
514.9218646434617
514.9229871654068
514.9241092474738
514.9252308895764
514.9263520916281
514.9274728535427
514.928593175234
514.9297130566167
514.930832497605
514.931951498113
514.9330700580547
514.9341881773446
514.9353058558975
514.9364230936283
514.9375398904524
514.9386562462853
514.9397721610424
514.940887634639
514.9420026669907
514.9431172580123
514.9442314076189
514.9453451157253
514.9464583822466
514.9475712070978
514.9486835901942
514.9497955314516
514.9509070307863
514.9520180881148
514.9531287033535
514.9542388764189
514.955348607227
514.9564578956945
514.9575667417378
514.9586751452739
514.9597831062194
514.960890624491
514.961997700005
514.9631043326783
514.964210522428
514.9653162691709
514.9664215728242
514.9675264333048
514.96863085053
514.969734824417
514.9708383548834
514.9719414418473
514.9730440852265
514.9741462849393
514.975248040904
514.9763493530397
514.9774502212656
514.978550645501
514.979650625665
514.9807501616774
514.9818492534575
514.9829479009252
514.9840461039998
514.9851438626013
514.9862411766492
514.9873380460638
514.988434470765
514.9895304506731
514.9906259857082
514.9917210757906
514.9928157208403
514.9939099207777
514.9950036755233
514.9960969849974
514.9971898491206
514.9982822678132
514.9993742409963
515.0004657685906
515.0015568505175
515.0026474866988
515.0037376770567
515.0048274215139
515.0059167199936
515.0070055724184
515.008093978711
515.0091819387947
515.0102694525924
515.0113565200279
515.0124431410247
515.0135293155065
515.0146150433975
515.015700324622
515.0167851591043
515.0178695467691
515.0189534875415
515.0200369813467
515.0211200281103
515.0222026277572
515.0232847802126
515.0243664854017
515.0254477432497
515.026528553682
515.0276089166239
515.0286888320009
515.0297682997384
515.0308473197622
515.0319258919978
515.0330040163713
515.0340816928085
515.0351589212357
515.036235701579
515.0373120337649
515.03838791772
515.0394633533713
515.0405383406458
515.0416128794702
515.0426869697717
515.0437606114772
515.0448338045139
515.0459065488096
515.0469788442922
515.0480506908896
515.0491220885294
515.0501930371399
515.0512635366492
515.0523335869859
515.0534031880788
515.054472339857
515.0555410422501
515.0566092951879
515.0576770986008
515.0587444524199
515.0598113565763
515.0608778110015
515.0619438156275
515.0630093703869
515.0640744752129
515.0651391300391
515.0662033347996
515.0672670894285
515.0683303938597
515.0693932480274
515.0704556518658
515.0715176053095
515.0725791082934
515.0736401607528
515.0747007626228
515.0757609138388
515.0768206143366
515.077879864052
515.0789386629206
515.0799970108785
515.0810549078622
515.0821123538074
515.08316934865
515.0842258923265
515.0852819847732
515.0863376259274
515.0873928157259
515.0884475541061
515.0895018410054
515.0905556763612
515.0916090601111
515.0926619921927
515.093714472544
515.0947665011029
515.0958180778077
515.0968692025974
515.097919875411
515.0989700961877
515.1000198648674
515.1010691813899
515.1021180456955
515.1031664577242
515.1042144174164
515.1052619247123
515.1063089795521
515.1073555818759
515.1084017316241
515.1094474287372
515.1104926731557
515.11153746482
515.1125818036705
515.1136256896482
515.1146691226938
515.1157121027479
515.1167546297509
515.1177967036431
515.118838324365
515.1198794918573
515.1209202060606
515.1219604669154
515.1230002743621
515.124039628341
515.1250785287928
515.1261169756576
515.1271549688761
515.1281925083888
515.1292295941364
515.1302662260598
515.1313024041003
515.1323381281998
515.1333733983004
515.1344082143441
515.1354425762736
515.1364764840312
515.1375099375598
515.1385429368024
515.1395754817024
515.1406075722036
515.1416392082497
515.1426703897844
515.1437011167511
515.1447313890933
515.1457612067543
515.1467905696775
515.1478194778063
515.148847931084
515.1498759294543
515.150903472861
515.1519305612485
515.1529571945614
515.1539833727443
515.1550090957419
515.1560343634994
515.1570591759623
515.1580835330763
515.1591074347868
515.1601308810402
515.1611538717821
515.1621764069585
515.1631984865155
515.1642201103994
515.1652412785563
515.1662619909332
515.1672822474766
515.1683020481332
515.16932139285
515.1703402815735
515.1713587142515
515.1723766908312
515.1733942112603
515.1744112754866
515.1754278834585
515.1764440351246
515.1774597304332
515.1784749693325
515.1794897517709
515.1805040776974
515.1815179470611
515.1825313598113
515.1835443158968
515.1845568152669
515.1855688578703
515.1865804436559
515.1875915725727
515.1886022445701
515.1896124595974
515.1906222176037
515.1916315185388
515.192640362352
515.1936487489929
515.1946566784115
515.1956641505578
515.196671165382
515.1976777228344
515.1986838228656
515.199689465426
515.200694650466
515.2016993779355
515.2027036477846
515.2037074599632
515.2047108144213
515.205713711109
515.2067161499758
515.2077181309714
515.2087196540454
515.2097207191471
515.2107213262266
515.2117214752343
515.2127211661207
515.2137203988364
515.2147191733322
515.2157174895592
515.2167153474679
515.217712747009
515.2187096881332
515.2197061707911
515.2207021949337
515.2216977605117
515.2226928674766
515.2236875157796
515.2246817053726
515.2256754362077
515.226668708237
515.2276615214125
515.2286538756864
515.2296457710111
515.2306372073388
515.2316281846222
515.2326187028141
515.2336087618671
515.2345983617338
515.2355875023666
515.236576183718
515.2375644057399
515.2385521683848
515.2395394716045
515.2405263153512
515.2415126995768
515.2424986242338
515.243484089275
515.2444690946531
515.2454536403213
515.2464377262327
515.2474213523408
515.248404518599
515.2493872249609
515.2503694713798
515.2513512578096
515.2523325842037
515.2533134505159
515.2542938566996
515.2552738027089
515.2562532884974
515.2572323140196
515.2582108792299
515.259188984083
515.2601666285336
515.2611438125357
515.2621205360438
515.2630967990124
515.264072601396
515.2650479431497
515.2660228242287
515.2669972445881
515.2679712041834
515.26894470297
515.2699177409033
515.2708903179389
515.2718624340321
515.2728340891388
515.2738052832151
515.2747760162174
515.275746288102
515.2767160988253
515.2776854483438
515.2786543366144
515.2796227635938
515.2805907292388
515.2815582335063
515.282525276353
515.2834918577362
515.2844579776133
515.2854236359419
515.2863888326794
515.2873535677834
515.2883178412114
515.2892816529213
515.290245002871
515.2912078910183
515.292170317321
515.2931322817371
515.2940937842247
515.295054824742
515.2960154032473
515.2969755196993
515.2979351740569
515.2988943662792
515.2998530963257
515.3008113641556
515.3017691697285
515.302726513004
515.3036833939425
515.3046398125043
515.3055957686506
515.3065512623427
515.307506293542
515.3084608622094
515.3094149683052
515.31036861179
515.3113217926245
515.3122745107696
515.3132267661861
515.3141785588352
515.3151298886789
515.316080755679
515.3170311597971
515.3179811009954
515.3189305792362
515.3198795944816
515.3208281466937
515.3217762358347
515.3227238618667
515.3236710247518
515.3246177244523
515.3255639609313
515.3265097341521
515.3274550440781
515.3283998906727
515.3293442738993
515.3302881937213
515.3312316501022
515.3321746430054
515.3331171723946
515.334059238234
515.3350008404875
515.3359419791198
515.3368826540957
515.3378228653803
515.338762612939
515.3397018967373
515.3406407167406
515.3415790729148
515.3425169652257
515.3434543936394
515.3443913581218
515.3453278586392
515.346263895158
515.3471994676449
515.3481345760665
515.3490692203891
515.3500034005795
515.3509371166047
515.3518703684317
515.3528031560274
515.3537354793582
515.3546673383905
515.3555987330913
515.3565296634272
515.3574601293653
515.3583901308732
515.359319667918
515.3602487404676
515.3611773484895
515.3621054919515
515.3630331708216
515.3639603850679
515.3648871346584
515.3658134195609
515.3667392397435
515.3676645951743
515.3685894858218
515.3695139116542
515.37043787264
515.3713613687476
515.3722843999456
515.3732069662026
515.3741290674877
515.3750507037703
515.3759718750196
515.3768925812046
515.3778128222948
515.3787325982594
515.3796519090679
515.3805707546896
515.3814891350937
515.3824070502494
515.3833245001263
515.3842414846938
515.3851580039216
515.3860740577791
515.3869896462359
515.3879047692619
515.3888194268277
515.3897336189041
515.3906473454622
515.3915606064734
515.392473401909
515.3933857317404
515.394297595939
515.3952089944762
515.3961199273238
515.3970303944529
515.3979403958356
515.3988499314435
515.399759001248
515.4006676052204
515.4015757433324
515.4024834155555
515.4033906218613
515.4042973622211
515.4052036366065
515.4061094449892
515.4070147873406
515.4079196636326
515.408824073837
515.4097280179255
515.4106314958701
515.4115345076425
515.4124370532147
515.4133391325588
515.4142407456472
515.4151418924523
515.4160425729465
515.4169427871025
515.417842534893
515.4187418162908
515.419640631269
515.4205389798005
515.4214368618586
515.4223342774169
515.4232312264489
515.4241277089284
515.4250237248286
515.4259192741235
515.4268143567872
515.4277089727937
515.4286031221172
515.4294968047323
515.430390020613
515.431282769734
515.4321750520699
515.433066867595
515.433958216284
515.4348490981115
515.4357395130523
515.4366294610816
515.4375189421739
515.4384079563044
515.4392965034481
515.4401845835803
515.4410721966765
515.4419593427119
515.442846021662
515.443732233502
515.4446179782069
515.4455032557519
515.4463880661126
515.447272409265
515.4481562851852
515.4490396938493
515.4499226352334
515.4508051093137
515.4516871160665
515.4525686554682
515.4534497274951
515.4543303321236
515.4552104693303
515.4560901390923
515.4569693413873
515.4578480761932
515.458726343488
515.4596041432499
515.4604814754566
515.461358340086
515.462234737116
515.4631106665245
515.4639861282892
515.4648611223884
515.4657356487999
515.4666097075017
515.4674832984717
515.4683564216882
515.4692290771293
515.4701012647727
515.4709729845965
515.471844236579
515.4727150206984
515.4735853369332
515.4744551852621
515.4753245656636
515.4761934781166
515.4770619225994
515.4779298990914
515.4787974075709
515.4796644480168
515.4805310204076
515.481397124722
515.4822627609385
515.4831279290354
515.483992628991
515.4848568607838
515.4857206243926
515.4865839197964
515.4874467469749
515.4883091059075
515.4891709965739
515.4900324189532
515.4908933730248
515.4917538587679
515.4926138761614
515.4934734251842
515.4943325058155
515.4951911180344
515.4960492618209
515.4969069371548
515.4977641440162
515.4986208823855
515.4994771522429
515.5003329535691
515.5011882863448
515.5020431505507
515.5028975461676
515.5037514731766
515.504604931559
515.5054579212958
515.5063104423684
515.5071624947584
515.5080140784473
515.5088651934168
515.5097158396484
515.5105660171241
515.5114157258263
515.5122649657376
515.5131137368408
515.5139620391185
515.5148098725538
515.5156572371295
515.5165041328289
515.5173505596351
515.5181965175318
515.5190420065026
515.5198870265308
515.5207315775999
515.5215756596933
515.5224192727944
515.5232624168868
515.5241050919547
515.5249472979826
515.5257890349551
515.5266303028566
515.5274711016718
515.5283114313859
515.5291512919837
515.5299906834503
515.5308296057708
515.5316680589303
515.5325060429141
515.533343557707
515.5341806032941
515.5350171796606
515.5358532867917
515.536688924673
515.5375240932897
515.5383587926274
515.5391930226715
515.5400267834073
515.5408600748201
515.5416928968955
515.5425252496186
515.5433571329752
515.5441885469506
515.5450194915304
515.5458499666997
515.5466799724434
515.5475095087461
515.5483385755927
515.549167172968
515.5499953008573
515.5508229592458
515.5516501481193
515.5524768674638
515.5533031172658
515.5541288975121
515.5549542081897
515.5557790492858
515.556603420788
515.5574273226837
515.5582507549605
515.5590737176062
515.5598962106094
515.5607182339584
515.5615397876415
515.5623608716476
515.5631814859653
515.564001630584
515.5648213054931
515.5656405106818
515.5664592461401
515.5672775118583
515.5680953078261
515.5689126340333
515.5697294904694
515.5705458771238
515.5713617939857
515.5721772410445
515.5729922182893
515.5738067257096
515.5746207632949
515.5754343310348
515.5762474289186
515.5770600569363
515.5778722150778
515.5786839033337
515.5794951216947
515.580305870151
515.5811161486929
515.5819259573102
515.582735295993
515.5835441647312
515.584352563515
515.5851604923348
515.5859679511809
515.5867749400438
515.5875814589142
515.5883875077827
515.5891930866401
515.5899981954765
515.5908028342824
515.5916070030482
515.592410701765
515.5932139304234
515.5940166890146
515.5948189775293
515.5956207959582
515.5964221442921
515.5972230225218
515.5980234306387
515.5988233686337
515.5996228364975
515.6004218342207
515.601220361794
515.6020184192082
515.6028160064538
515.6036131235217
515.6044097704023
515.6052059470862
515.6060016535641
515.6067968898267
515.6075916558648
515.6083859516693
515.6091797772315
515.6099731325428
515.6107660175949
515.6115584323791
515.6123503768865
515.6131418511084
515.6139328550357
515.61472338866
515.6155134519727
515.6163030449654
515.6170921676301
515.6178808199581
515.6186690019413
515.6194567135715
515.6202439548408
515.6210307257413
515.6218170262653
515.6226028564049
515.6233882161525
515.6241731055006
515.6249575244417
515.6257414729685
515.6265249510741
515.627307958752
515.6280904959956
515.6288725627983
515.6296541591539
515.6304352850568
515.6312159405011
515.631996125481
515.6327758399916
515.6335550840279
515.6343338575848
515.6351121606574
515.6358899932409
515.6366673553305
515.6374442469216
515.6382206680098
515.6389966185905
515.639772098659
515.6405471082114
515.6413216472436
515.6420957157516
515.6428693137316
515.6436424411802
515.6444150980942
515.6451872844702
515.6459590003053
515.6467302455965
515.647501020341
515.6482713245362
515.6490411581792
515.6498105212679
515.6505794138
515.6513478357731
515.652115787185
515.6528832680335
515.653650278317
515.6544168180337
515.6551828871827
515.655948485763
515.656713613774
515.6574782712148
515.6582424580849
515.6590061743839
515.6597694201116
515.6605321952682
515.6612944998533
515.6620563338663
515.6628176973068
515.6635785901747
515.6643390124702
515.6650989641935
515.6658584453446
515.6666174559234
515.6673759959292
515.6681340653613
515.6688916642195
515.6696487925035
515.6704054502131
515.671161637348
515.6719173539075
515.6726725998917
515.6734273753007
515.6741816801341
515.674935514392
515.6756888780747
515.6764417711825
515.6771941937156
515.677946145674
515.6786976270575
515.6794486378665
515.6801991781006
515.6809492477598
515.681698846844
515.6824479753525
515.683196633285
515.6839448206417
515.6846925374232
515.6854397836303
515.6861865592643
515.6869328643268
515.6876786988191
515.6884240627433
515.689168956101
515.6899133788945
515.6906573311262
515.6914008127983
515.6921438239135
515.6928863644746
515.6936284344845
515.6943700339464
515.6951111628634
515.6958518212386
515.696592009075
515.6973317263753
515.6980709731426
515.6988097493797
515.6995480550893
515.7002858902736
515.7010232549349
515.7017601490754
515.7024965726971
515.7032325258017
515.7039680083915
515.704703020469
515.7054375620371
515.7061716330991
515.7069052336585
515.7076383637188
515.7083710232835
515.7091032123558
515.7098349309395
515.7105661790381
515.7112969566551
515.712027263794
515.7127571004582
515.7134864666516
515.7142153623781
515.7149437876421
515.7156717424477
515.716399226799
515.7171262406998
515.717852784154
515.7185788571658
515.7193044597393
515.720029591879
515.7207542535896
515.7214784448756
515.7222021657419
515.7229254161937
515.7236481962366
515.7243705058765
515.725092345119
515.7258137139695
515.7265346124329
515.7272550405144
515.7279749982183
515.7286944855498
515.7294135025138
515.7301320491154
515.7308501253597
515.731567731252
515.7322848667975
515.7330015320019
515.733717726871
515.7344334514103
515.7351487056255
515.7358634895227
515.7365778031076
515.737291646386
515.738005019364
515.7387179220482
515.739430354445
515.7401423165604
515.7408538084007
515.7415648299723
515.7422753812818
515.7429854623367
515.7436950731442
515.7444042137115
515.7451128840464
515.7458210841564
515.746528814049
515.7472360737322
515.7479428632139
515.748649182502
515.7493550316051
515.7500604105317
515.7507653192902
515.751469757889
515.7521737263362
515.7528772246399
515.7535802528084
515.7542828108501
515.754984898773
515.7556865165852
515.7563876642946
515.7570883419091
515.757788549437
515.7584882868866
515.7591875542669
515.7598863515868
515.7605846788554
515.7612825360816
515.7619799232746
515.7626768404436
515.7633732875981
515.7640692647476
515.7647647719016
515.7654598090694
515.7661543762604
515.7668484734836
515.7675421007482
515.7682352580634
515.7689279454385
515.7696201628826
515.7703119104056
515.771003188017
515.7716939957263
515.7723843335432
515.7730742014776
515.7737635995393
515.7744525277378
515.7751409860825
515.7758289745827
515.7765164932473
515.7772035420851
515.7778901211052
515.7785762303172
515.779261869731
515.7799470393568
515.7806317392044
515.7813159692839
515.7819997296053
515.7826830201786
515.7833658410143
515.7840481921228
515.7847300735145
515.7854114852003
515.7860924271909
515.7867728994972
515.7874529021303
515.7881324351013
515.7888114984214
515.7894900921021
515.7901682161548
515.7908458705908
515.7915230554217
515.7921997706594
515.7928760163156
515.7935517924022
515.7942270989311
515.7949019359137
515.7955763033619
515.7962502012881
515.7969236297047
515.7975965886249
515.7982690780616
515.7989410980281
515.7996126485375
515.800283729603
515.8009543412384
515.8016244834571
515.8022941562729
515.8029633596996
515.803632093751
515.8043003584414
515.8049681537848
515.8056354797952
515.8063023364866
515.8069687238728
515.8076346419678
515.8083000907852
515.8089650703389
515.8096295806429
515.8102936217113
515.8109571935584
515.8116202961983
515.8122829296453
515.8129450939134
515.8136067890166
515.8142680149692
515.8149287717858
515.815589059481
515.8162488780692
515.8169082275654
515.8175671079841
515.8182255193408
515.8188834616508
515.8195409349298
515.8201979391938
515.8208544744582
515.8215105407387
515.822166138051
515.822821266411
515.8234759258341
515.8241301163359
515.8247838379318
515.8254370906373
515.8260898744682
515.8267421894404
515.82739403557
515.8280454128728
515.8286963213648
515.8293467610622
515.8299967319815
515.8306462341391
515.8312952675512
515.8319438322344
515.8325919282051
515.8332395554801
515.8338867140758
515.8345334040089
515.835179625296
515.8358253779536
515.8364706619982
515.8371154774461
515.8377598243139
515.838403702619
515.8390471123782
515.839690053609
515.8403325263289
515.8409745305553
515.8416160663057
515.842257133598
515.8428977324497
515.843537862879
515.8441775249039
515.8448167185427
515.8454554438138
515.8460937007355
515.8467314893267
515.8473688096058
515.8480056615917
515.8486420453034
515.8492779607602
515.8499134079814
515.850548386986
515.8511828977937
515.8518169404242
515.8524505148973
515.8530836212328
515.8537162594507
515.854348429571
515.8549801316137
515.8556113655989
515.8562421315464
515.8568724294767
515.8575022594093
515.8581316213642
515.8587605153609
515.859388941419
515.8600168995579
515.8606443897972
515.8612714121571
515.8618979666574
515.8625240533183
515.8631496721603
515.8637748232034
515.8643995064679
515.8650237219738
515.8656474697411
515.8662707497899
515.8668935621406
515.8675159068139
515.8681377838302
515.86875919321
515.8693801349734
515.8700006091406
515.8706206157317
515.8712401547671
515.8718592262669
515.8724778302515
515.8730959667407
515.8737136357547
515.8743308373134
515.8749475714374
515.875563838147
515.8761796374631
515.8767949694068
515.8774098339989
515.8780242312598
515.8786381612101
515.8792516238707
515.8798646192624
515.8804771474067
515.881089208325
515.8817008020385
515.8823119285685
515.8829225879365
515.8835327801642
515.8841425052735
515.8847517632869
515.885360554227
515.8859688781165
515.8865767349787
515.8871841248367
515.8877910477138
515.8883975036338
515.8890034926203
515.889609014697
515.8902140698876
515.890818658216
515.8914227797061
515.8920264343826
515.8926296222705
515.8932323433949
515.8938345977808
515.8944363854537
515.8950377064391
515.8956385607632
515.8962389484523
515.8968388695323
515.89743832403
515.8980373119716
515.8986358333839
515.8992338882933
515.8998314767266
515.9004285987105
515.9010252542723
515.9016214434398
515.9022171662411
515.9028124227045
515.9034072128586
515.9040015367325
515.9045953943557
515.9051887857584
515.9057817109706
515.9063741700227
515.9069661629453
515.9075576897696
515.9081487505271
515.9087393452489
515.9093294739669
515.9099191367127
515.9105083335187
515.9110970644169
515.9116853294402
515.9122731286209
515.9128604619916
515.9134473295849
515.9140337314334
515.9146196675699
515.9152051380272
515.9157901428382
515.9163746820361
515.9169587556542
515.9175423637257
515.9181255062847
515.9187081833654
515.9192903950025
515.9198721412306
515.9204534220846
515.9210342375993
515.9216145878092
515.922194472749
515.9227738924528
515.9233528469551
515.9239313362907
515.9245093604943
515.925086919601
515.9256640136457
515.926240642664
515.9268168066912
515.927392505763
515.9279677399147
515.9285425091823
515.9291168136017
515.9296906532093
515.9302640280416
515.9308369381358
515.931409383529
515.931981364258
515.9325528803608
515.9331239318756
515.9336945188404
515.9342646412936
515.9348342992735
515.935403492819
515.935972221969
515.9365404867624
515.9371082872383
515.937675623436
515.9382424953953
515.9388089031563
515.9393748467594
515.9399403262453
515.9405053416551
515.9410698930303
515.9416339804122
515.9421976038429
515.9427607633647
515.9433234590201
515.9438856908516
515.9444474589018
515.9450087632131
515.9455696038283
515.9461299807906
515.9466898941437
515.9472493439316
515.9478083301985
515.9483668529886
515.948924912346
515.9494825083154
515.9500396409414
515.950596310269
515.9511525163437
515.9517082592108
515.9522635389164
515.9528183555067
515.9533727090277
515.9539265995256
515.9544800270467
515.9550329916369
515.9555854933428
515.9561375322105
515.9566891082866
515.9572402216179
515.9577908722515
515.9583410602349
515.9588907856157
515.9594400484414
515.9599888487589
515.9605371866157
515.9610850620588
515.9616324751355
515.9621794258935
515.9627259143808
515.9632719406457
515.9638175047367
515.9643626067029
515.9649072465938
515.9654514244587
515.9659951403466
515.9665383943066
515.9670811863878
515.9676235166401
515.9681653851133
515.9687067918574
515.9692477369224
515.9697882203584
515.9703282422154
515.9708678025438
515.9714069013942
515.971945538817
515.9724837148631
515.9730214295835
515.9735586830293
515.9740954752519
515.974631806303
515.9751676762346
515.9757030850988
515.9762380329478
515.9767725198337
515.9773065458082
515.9778401109231
515.97837321523
515.9789058587803
515.9794380416254
515.9799697638168
515.9805010254067
515.981031826447
515.9815621669893
515.9820920470859
515.9826214667887
515.9831504261504
515.9836789252233
515.9842069640606
515.9847345427154
515.9852616612413
515.9857883196926
515.9863145181232
515.9868402565876
515.98736553514
515.9878903538349
515.9884147127268
515.9889386118705
515.9894620513207
515.9899850311326
515.9905075513614
515.9910296120622
515.9915512132904
515.9920723551011
515.9925930375496
515.9931132606914
515.9936330245821
515.9941523292775
515.9946711748337
515.9951895613065
515.9957074887518
515.9962249572254
515.996741966783
515.9972585174808
515.9977746093743
515.9982902425197
515.9988054169733
515.9993201327916
515.9998343900318
516.0003481887513
516.0008615290078
516.0013744108585
516.0018868343607
516.0023987995721
516.002910306551
516.0034213553556
516.0039319460443
516.0044420786758
516.0049517533087
516.0054609700021
516.005969728815
516.0064780298064
516.006985873036
516.007493258564
516.008000186451
516.0085066567574
516.0090126695434
516.0095182248695
516.0100233227965
516.010527963386
516.0110321466993
516.0115358727974
516.0120391417413
516.0125419535925
516.013044308412
516.0135462062608
516.0140476472004
516.0145486312927
516.0150491585998
516.015549229184
516.0160488431077
516.0165480004337
516.0170467012247
516.0175449455435
516.0180427334526
516.0185400650148
516.0190369402926
516.0195333593485
516.0200293222454
516.0205248290456
516.0210198798125
516.0215144746091
516.0220086134991
516.0225022965456
516.0229955238121
516.0234882953628
516.0239806112613
516.0244724715715
516.0249638763576
516.0254548256844
516.025945319617
516.0264353582206
516.0269249415612
516.027414069705
516.0279027427184
516.0283909606685
516.0288787236218
516.0293660316449
516.0298528848045
516.0303392831677
516.0308252268017
516.0313107157738
516.0317957501518
516.0322803300032
516.0327644553956
516.0332481263965
516.0337313430734
516.0342141054941
516.0346964137268
516.0351782678397
516.0356596679012
516.0361406139798
516.0366211061439
516.0371011444624
516.0375807290045
516.0380598598392
516.0385385370362
516.0390167606654
516.0394945307969
516.0399718475012
516.0404487108488
516.0409251209101
516.0414010777556
516.0418765814559
516.0423516320811
516.0428262297016
516.0433003743876
516.0437740662098
516.0442473052392
516.0447200915469
516.045192425204
516.0456643062819
516.046135734852
516.0466067109862
516.0470772347567
516.0475473062354
516.0480169254945
516.0484860926063
516.0489548076432
516.0494230706784
516.0498908817847
516.0503582410354
516.0508251485037
516.0512916042633
516.0517576083876
516.0522231609502
516.0526882620254
516.0531529116872
516.05361711001
516.0540808570684
516.0545441529368
516.0550069976898
516.0554693914021
516.0559313341489
516.056392826006
516.0568538670491
516.0573144573543
516.0577745969979
516.0582342860562
516.0586935246058
516.0591523127232
516.0596106504843
516.0600685379652
516.0605259752426
516.0609829623934
516.0614394994946
516.0618955866232
516.0623512238569
516.0628064112732
516.0632611489498
516.0637154369642
516.0641692753941
516.0646226643169
516.0650756038101
516.0655280939511
516.0659801348174
516.0664317264868
516.066882869037
516.0673335625463
516.0677838070931
516.0682336027555
516.0686829496119
516.0691318477409
516.0695802972216
516.0700282981329
516.070475850554
516.0709229545644
516.0713696102441
516.071815817673
516.0722615769312
516.072706888099
516.0731517512575
516.073596166488
516.0740401338724
516.074483653493
516.0749267254319
516.0753693497711
516.0758115265928
516.0762532559795
516.0766945380137
516.077135372778
516.0775757603549
516.0780157008273
516.0784551942786
516.0788942407919
516.0793328404504
516.0797709933379
516.0802086995382
516.0806459591356
516.0810827722148
516.0815191388604
516.081955059157
516.0823905331902
516.0828255610454
516.083260142809
516.083694278567
516.0841279684062
516.0845612124133
516.0849940106748
516.0854263632771
516.0858582703061
516.0862897318477
516.0867207479882
516.0871513188138
516.0875814444107
516.0880111248653
516.088440360264
516.0888691506937
516.089297496241
516.0897253969931
516.0901528530374
516.090579864461
516.0910064313518
516.0914325537979
516.0918582318875
516.0922834657092
516.0927082553515
516.0931326009024
516.0935565024502
516.0939799600826
516.0944029738878
516.0948255439539
516.0952476703694
516.0956693532228
516.0960905926022
516.0965113885961
516.0969317412935
516.0973516507834
516.0977711171552
516.0981901404984
516.0986087209033
516.0990268584596
516.0994445532581
516.0998618053893
516.100278614944
516.100694982013
516.1011109066872
516.1015263890581
516.1019414292175
516.102356027257
516.1027701832684
516.1031838973436
516.1035971695744
516.1040100000534
516.1044223888732
516.1048343361265
516.1052458419058
516.1056569063032
516.1060675294113
516.1064777113227
516.10688745213
516.107296751926
516.1077056108038
516.1081140288568
516.1085220061784
516.1089295428626
516.1093366390035
516.1097432946956
516.1101495100338
516.1105552851129
516.1109606200278
516.1113655148736
516.1117699697459
516.1121739847406
516.1125775599542
516.1129806954832
516.1133833914246
516.1137856478751
516.1141874649318
516.1145888426911
516.11498978125
516.115390280705
516.1157903411529
516.1161899626902
516.1165891454134
516.1169878894193
516.117386194805
516.1177840616679
516.1181814901054
516.1185784802151
516.1189750320948
516.119371145842
516.1197668215543
516.1201620593295
516.1205568592657
516.1209512214618
516.1213451460169
516.1217386330302
516.1221316826015
516.122524294831
516.1229164698188
516.1233082076653
516.123699508471
516.1240903723367
516.1244807993637
516.1248707896532
516.1252603433068
516.1256494604261
516.126038141113
516.1264263854694
516.1268141935973
516.1272015655989
516.1275885015764
516.1279750016322
516.1283610658686
516.1287466943879
516.1291318872925
516.1295166446848
516.1299009666675
516.130284853343
516.130668304814
516.1310513211827
516.1314339025514
516.131816049023
516.1321977607001
516.1325790376859
516.1329598800833
516.1333402879952
516.1337202615246
516.134099800774
516.1344789058464
516.1348575768445
516.1352358138713
516.13561361703
516.1359909864241
516.1363679221568
516.1367444243308
516.1371204930495
516.1374961284157
516.1378713305323
516.1382460995023
516.1386204354287
516.1389943384145
516.1393678085631
516.1397408459782
516.1401134507639
516.1404856230249
516.1408573628662
516.1412286703928
516.1415995457098
516.1419699889227
516.1423400001368
516.1427095794575
516.1430787269906
516.1434474428422
516.1438157271184
516.1441835799253
516.1445510013689
516.1449179915548
516.1452845505889
516.1456506785769
516.1460163756244
516.1463816418377
516.1467464773232
516.1471108821872
516.1474748565363
516.147838400477
516.148201514116
516.1485641975601
516.148926450916
516.14928827429
516.1496496677887
516.1500106315186
516.1503711655869
516.1507312701003
516.1510909451661
516.1514501908912
516.151809007383
516.1521673947491
516.152525353097
516.152882882534
516.1532399831676
516.1535966551057
516.1539528984558
516.1543087133255
516.1546640998226
516.1550190580556
516.1553735881328
516.1557276901633
516.1560813642566
516.1564346105222
516.1567874290697
516.1571398200088
516.1574917834489
516.1578433195007
516.1581944282743
516.1585451098806
516.1588953644302
516.1592451920342
516.1595945928034
516.1599435668484
516.1602921142796
516.1606402352079
516.1609879297441
516.161335197999
516.1616820400839
516.16202845611
516.1623744461888
516.1627200104322
516.1630651489522
516.163409861861
516.1637541492707
516.1640980112936
516.1644414480425
516.1647844596303
516.1651270461705
516.165469207777
516.1658109445641
516.1661522566458
516.1664931441362
516.1668336071496
516.1671736458
516.1675132602018
516.1678524504698
516.1681912167187
516.168529559063
516.168867477618
516.1692049724991
516.1695420438216
516.1698786917011
516.1702149162534
516.1705507175943
516.1708860958399
516.1712210511059
516.1715555835083
516.1718896931627
516.1722233801852
516.1725566446919
516.1728894867992
516.1732219066239
516.1735539042825
516.1738854798916
516.1742166335682
516.1745473654291
516.1748776755915
516.1752075641728
516.1755370312906
516.1758660770624
516.1761947016064
516.1765229050404
516.1768506874826
516.177178049051
516.1775049898642
516.1778315100412
516.1781576097012
516.1784832889641
516.1788085479498
516.179133386778
516.1794578055681
516.1797818044395
516.1801053835115
516.1804285429037
516.1807512827354
516.1810736031264
516.1813955041964
516.1817169860658
516.182038048855
516.1823586926846
516.182678917675
516.1829987239469
516.1833181116208
516.1836370808176
516.1839556316579
516.184273764263
516.1845914787543
516.1849087752532
516.1852256538812
516.1855421147595
516.18585815801
516.1861737837542
516.1864889921137
516.1868037832103
516.1871181571653
516.1874321141006
516.1877456541376
516.1880587773974
516.1883714840005
516.1886837740683
516.1889956477223
516.1893071050843
516.189618146276
516.1899287714198
516.190238980638
516.190548774053
516.1908581517871
516.1911671139626
516.1914756607018
516.1917837921274
516.1920915083622
516.1923988095293
516.1927056957518
516.1930121671528
516.1933182238561
516.1936238659855
516.1939290936655
516.1942339070204
516.1945383061745
516.1948422912526
516.1951458623796
516.1954490196811
516.1957517632829
516.196054093311
516.1963560098905
516.1966575131466
516.1969586032046
516.1972592801897
516.197559544227
516.1978593954427
516.1981588339627
516.1984578599129
516.1987564734193
516.1990546746081
516.1993524636059
516.1996498405395
516.1999468055358
516.2002433587224
516.200539500227
516.2008352301771
516.2011305487001
516.2014254559238
516.2017199519753
516.2020140369821
516.2023077110719
516.2026009743729
516.2028938270139
516.2031862691235
516.2034783008305
516.2037699222637
516.2040611335517
516.2043519348229
516.2046423262057
516.2049323078284
516.2052218798192
516.2055110423064
516.2057997954184
516.2060881392838
516.2063760740309
516.2066635997885
516.2069507166855
516.2072374248507
516.2075237244135
516.2078096155026
516.2080950982474
516.2083801727772
516.2086648392212
516.2089490977089
516.2092329483701
516.2095163913345
516.2097994267322
516.2100820546925
516.2103642753455
516.210646088821
516.2109274952488
516.2112084947587
516.2114890874802
516.2117692735433
516.2120490530776
516.2123284262136
516.2126073930815
516.2128859538118
516.213164108535
516.2134418573817
516.2137192004823
516.2139961379673
516.2142726699676
516.214548796614
516.2148245180381
516.2150998343709
516.2153747457439
516.2156492522888
516.215923354137
516.2161970514196
516.2164703442679
516.2167432328135
516.2170157171881
516.2172877975233
516.2175594739508
516.2178307466024
516.2181016156103
516.2183720811065
516.2186421432232
516.2189118020926
516.2191810578477
516.2194499106213
516.2197183605465
516.2199864077568
516.2202540523856
516.2205212945667
516.2207881344339
516.2210545721211
516.2213206077627
516.221586241493
516.221851473447
516.22211630376
516.222380732567
516.2226447600037
516.2229083862062
516.2231716113099
516.2234344354508
516.2236968587652
516.2239588813889
516.2242205034579
516.2244817251087
516.2247425464782
516.2250029677032
516.2252629889206
516.2255226102677
516.2257818318822
516.2260406539019
516.226299076465
516.226557099709
516.2268147237712
516.2270719487894
516.2273287749015
516.2275852022451
516.2278412309586
516.2280968611801
516.228352093048
516.2286069267
516.2288613622743
516.2291153999092
516.229369039743
516.2296222819143
516.2298751265623
516.2301275738262
516.230379623845
516.2306312767578
516.2308825327034
516.2311333918208
516.2313838542489
516.2316339201263
516.2318835895917
516.2321328627829
516.232381739838
516.2326302208955
516.2328783060941
516.2331259955727
516.2333732894706
516.2336201879277
516.2338666910834
516.2341127990774
516.2343585120486
516.2346038301364
516.2348487534798
516.235093282218
516.2353374164898
516.2355811564339
516.2358245021892
516.2360674538943
516.2363100116881
516.2365521757097
516.236793946098
516.2370353229919
516.2372763065302
516.2375168968517
516.2377570940951
516.2379968983992
516.238236309903
516.2384753287454
516.2387139550658
516.2389521890034
516.2391900306975
516.2394274802871
516.239664537911
516.2399012037085
516.2401374778185
516.2403733603799
516.2406088515315
516.2408439514124
516.2410786601617
516.241312977919
516.2415469048242
516.2417804410172
516.242013586638
516.2422463418266
516.2424787067232
516.2427106814687
516.2429422662037
516.2431734610691
516.2434042662055
516.2436346817542
516.2438647078563
516.2440943446529
516.2443235922849
516.2445524508933
516.244780920619
516.2450090016027
516.2452366939854
516.2454639979078
516.245690913511
516.2459174409357
516.2461435803227
516.2463693318125
516.2465946955456
516.2468196716627
516.2470442603046
516.2472684616123
516.2474922757269
516.2477157027895
516.2479387429407
516.2481613963216
516.2483836630734
516.2486055433374
516.2488270372553
516.2490481449693
516.2492688666216
516.2494892023549
516.2497091523117
516.2499287166345
516.2501478954662
516.25036668895
516.2505850972291
516.2508031204468
516.2510207587466
516.2512380122719
516.2514548811662
516.251671365573
516.2518874656355
516.2521031814972
516.2523185133016
516.2525334611921
516.252748025312
516.2529622058048
516.2531760028139
516.2533894164828
516.2536024469553
516.2538150943749
516.2540273588854
516.2542392406306
516.254450739754
516.2546618563995
516.2548725907106
516.2550829428312
516.2552929129049
516.2555025010754
516.2557117074869
516.2559205322834
516.2561289756093
516.256337037609
516.2565447184272
516.2567520182085
516.2569589370976
516.2571654752394
516.257371632779
516.2575774098611
516.2577828066305
516.257987823232
516.2581924598105
516.2583967165106
516.2586005934768
516.258804090854
516.2590072087876
516.259209947423
516.2594123069055
516.2596142873806
516.2598158889939
516.2600171118904
516.260217956215
516.2604184221129
516.26061850973
516.2608182192118
516.2610175507045
516.2612165043538
516.2614150803054
516.2616132787048
516.2618110996975
516.2620085434294
516.2622056100465
516.2624022996949
516.2625986125206
516.2627945486693
516.2629901082867
516.2631852915183
516.2633800985097
516.2635745294065
516.263768584354
516.2639622634979
516.2641555669838
516.2643484949579
516.2645410475664
516.2647332249558
516.2649250272727
516.2651164546639
516.265307507276
516.2654981852559
516.2656884887508
516.265878417908
516.2660679728747
516.2662571537987
516.2664459608279
516.26663439411
516.2668224537936
516.267010140027
516.2671974529592
516.2673843927394
516.2675709595169
516.2677571534412
516.2679429746615
516.2681284233279
516.2683134995898
516.2684982035971
516.2686825354995
516.2688664954469
516.2690500835895
516.2692333000771
516.2694161450597
516.2695986186873
516.2697807211098
516.2699624524771
516.2701438129391
516.2703248026457
516.2705054217474
516.2706856703944
516.2708655487368
516.271045056925
516.2712241951097
516.2714029634408
516.2715813620682
516.2717593911418
516.2719370508112
516.2721143412261
516.272291262537
516.2724678148943
516.2726439984488
516.2728198133511
516.2729952597522
516.2731703378029
516.2733450476542
516.2735193894575
516.2736933633646
516.2738669695275
516.2740402080988
516.274213079231
516.2743855830765
516.2745577197875
516.2747294895164
516.2749008924159
516.2750719286387
516.2752425983374
516.2754129016646
516.2755828387733
516.2757524098163
516.2759216149461
516.2760904543154
516.2762589280769
516.2764270363834
516.276594779388
516.2767621572443
516.2769291701059
516.2770958181261
516.2772621014581
516.2774280202555
516.277593574672
516.2777587648618
516.2779235909791
516.2780880531784
516.2782521516142
516.278415886441
516.278579257814
516.2787422658882
516.2789049108192
516.2790671927626
516.2792291118744
516.2793906683112
516.2795518622295
516.279712693786
516.2798731631372
516.2800332704398
516.280193015851
516.2803523995274
516.2805114216262
516.2806700823046
516.2808283817199
516.2809863200293
516.2811438973906
516.281301113961
516.2814579698977
516.2816144653577
516.2817706004985
516.2819263754775
516.2820817904521
516.2822368455802
516.2823915410195
516.2825458769278
516.2826998534631
516.2828534707837
516.2830067290477
516.2831596284134
516.2833121690398
516.2834643510862
516.2836161747116
516.2837676400757
516.283918747338
516.2840694966578
516.2842198881942
516.2843699221064
516.2845195985537
516.2846689176959
516.2848178796926
516.2849664847042
516.2851147328913
516.2852626244141
516.2854101594332
516.2855573381091
516.2857041606026
516.2858506270748
516.2859967376867
516.2861424925998
516.2862878919752
516.2864329359743
516.2865776247579
516.2867219584871
516.2868659373228
516.2870095614257
516.2871528309568
516.2872957460768
516.287438306947
516.2875805137285
516.2877223665826
516.2878638656707
516.2880050111542
516.2881458031945
516.2882862419535
516.288426327593
516.2885660602753
516.2887054401633
516.2888444674197
516.2889831422074
516.2891214646891
516.2892594350274
516.2893970533846
516.2895343199239
516.2896712348081
516.2898077982002
516.2899440102631
516.2900798711598
516.2902153810535
516.290350540107
516.2904853484836
516.2906198063458
516.2907539138566
516.2908876711783
516.2910210784732
516.2911541359035
516.2912868436313
516.2914192018186
516.2915512106279
516.2916828702216
516.2918141807625
516.2919451424129
516.2920757553356
516.2922060196929
516.2923359356475
516.2924655033623
516.2925947230003
516.2927235947243
516.2928521186973
516.2929802950821
516.2931081240415
516.2932356057379
516.2933627403336
516.2934895279911
516.2936159688732
516.2937420631426
516.2938678109629
516.2939932124973
516.2941182679099
516.2942429773648
516.2943673410259
516.294491359057
516.2946150316218
516.2947383588839
516.2948613410074
516.2949839781561
516.295106270494
516.2952282181852
516.295349821394
516.2954710802846
516.2955919950216
516.2957125657692
516.295832792692
516.2959526759544
516.2960722157211
516.2961914121568
516.2963102654257
516.2964287756929
516.2965469431228
516.2966647678809
516.2967822501321
516.2968993900411
516.2970161877727
516.297132643492
516.2972487573645
516.2973645295558
516.2974799602314
516.2975950495572
516.2977097976993
516.2978242048237
516.2979382710962
516.2980519966832
516.2981653817512
516.298278426467
516.2983911309973
516.2985034955084
516.2986155201663
516.2987272051366
516.2988385505848
516.2989495566765
516.299060223577
516.2991705514521
516.2992805404676
516.2993901907896
516.2994995025838
516.2996084760159
516.2997171112518
516.2998254084571
516.2999333677976
516.3000409894387
516.3001482735456
516.3002552202831
516.3003618298162
516.3004681023101
516.3005740379301
516.3006796368418
516.3007848992106
516.3008898252021
516.3009944149819
516.3010986687157
516.3012025865689
516.3013061687077
516.3014094152979
516.3015123265061
516.3016149024988
516.301717143443
516.3018190495061
516.3019206208548
516.3020218576564
516.3021227600782
516.3022233282875
516.3023235624519
516.3024234627385
516.3025230293142
516.3026222623457
516.3027211619999
516.3028197284439
516.3029179618445
516.3030158623685
516.3031134301827
516.3032106654537
516.3033075683479
516.303404139032
516.303500377672
516.3035962844344
516.3036918594858
516.3037871029926
516.3038820151216
516.3039765960398
516.3040708459141
516.304164764912
516.304258353201
516.3043516109492
516.3044445383246
516.3045371354954
516.3046294026301
516.3047213398975
516.3048129474662
516.304904225505
516.3049951741825
516.3050857936676
516.305176084129
516.3052660457356
516.305355678656
516.305444983059
516.3055339591131
516.3056226069864
516.3057109268473
516.3057989188637
516.3058865832036
516.3059739200346
516.3060609295246
516.3061476118417
516.3062339671533
516.3063199956271
516.3064056974306
516.3064910727312
516.3065761216969
516.3066608444958
516.3067452412959
516.3068293122653
516.3069130575725
516.3069964773856
516.3070795718727
516.3071623412015
516.3072447855402
516.3073269050567
516.3074086999193
516.3074901702964
516.3075713163564
516.3076521382679
516.3077326361997
516.3078128103205
516.3078926607991
516.3079721878046
516.3080513915058
516.3081302720716
516.3082088296703
516.308287064471
516.3083649766427
516.3084425663549
516.3085198337774
516.3085967790801
516.3086734024328
516.3087497040053
516.3088256839678
516.3089013424899
516.3089766797414
516.3090516958925
516.3091263911135
516.3092007655744
516.3092748194454
516.3093485528968
516.3094219660991
516.3094950592224
516.3095678324373
516.3096402859144
516.3097124198243
516.3097842343379
516.309855729626
516.3099269058594
516.3099977632096
516.3100683018477
516.3101385219445
516.3102084236712
516.3102780071988
516.3103472726987
516.3104162203422
516.3104848503006
516.3105531627455
516.3106211578486
516.3106888357815
516.310756196716
516.3108232408238
516.3108899682766
516.3109563792459
516.3110224739032
516.31108825242
516.3111537149675
516.3112188617172
516.3112836928406
516.3113482085091
516.3114124088941
516.311476294167
516.3115398644998
516.3116031200636
516.3116660610301
516.3117286875706
516.3117909998564
516.3118529980586
516.3119146823485
516.3119760528975
516.3120371098773
516.3120978534598
516.3121582838173
516.312218401122
516.3122782055461
516.3123376972624
516.3123968764435
516.3124557432627
516.3125142978934
516.3125725405089
516.3126304712828
516.3126880903885
516.3127453979994
516.3128023942884
516.3128590794283
516.3129154535925
516.3129715169541
516.3130272696865
516.3130827119633
516.3131378439577
516.3131926658436
516.3132471777947
516.3133013799843
516.313355272586
516.3134088557733
516.3134621297199
516.3135150945998
516.313567750587
516.3136200978563
516.313672136582
516.3137238669383
516.3137752890991
516.3138264032386
516.313877209531
516.3139277081502
516.3139778992697
516.314027783063
516.3140773597031
516.314126629363
516.3141755922159
516.3142242484344
516.3142725981913
516.3143206416594
516.3143683790108
516.314415810418
516.3144629360536
516.3145097560903
516.3145562707009
516.3146024800583
516.3146483843348
516.3146939837029
516.3147392783355
516.314784268405
516.3148289540839
516.3148733355445
516.3149174129592
516.3149611864999
516.3150046563385
516.3150478226464
516.3150906855951
516.315133245356
516.3151755021001
516.3152174559984
516.3152591072219
516.3153004559415
516.3153415023282
516.3153822465531
516.3154226887868
516.3154628292007
516.3155026679658
516.3155422052532
516.3155814412335
516.315620376077
516.3156590099545
516.3156973430364
516.3157353754934
516.3157731074964
516.315810539216
516.3158476708234
516.3158845024891
516.3159210343836
516.3159572666771
516.3159931995399
516.3160288331421
516.3160641676534
516.3160992032435
516.3161339400824
516.3161683783399
516.3162025181857
516.3162363597901
516.316269903323
516.3163031489541
516.3163360968535
516.3163687471915
516.3164011001384
516.3164331558644
516.3164649145399
516.3164963763352
516.3165275414206
516.3165584099661
516.3165889821419
516.316619258118
516.3166492380649
516.316678922153
516.3167083105523
516.3167374034329
516.3167662009653
516.31679470332
516.3168229106675
516.3168508231781
516.3168784410225
516.3169057643713
516.3169327933954
516.3169595282654
516.3169859691518
516.3170121162245
516.3170379696542
516.3170635296112
516.3170887962667
516.3171137697916
516.3171384503573
516.3171628381351
516.3171869332964
516.3172107360126
516.3172342464552
516.3172574647954
516.3172803912043
516.3173030258529
516.3173253689117
516.3173474205521
516.317369180945
516.3173906502616
516.3174118286731
516.3174327163506
516.3174533134647
516.3174736201861
516.317493636685
516.3175133631314
516.3175327996958
516.3175519465483
516.3175708038591
516.3175893717982
516.3176076505356
516.3176256402414
516.3176433410858
516.3176607532384
516.3176778768689
516.3176947121469
516.3177112592425
516.3177275183255
516.3177434895654
516.3177591731321
516.3177745691958
516.3177896779259
516.3178044994922
516.3178190340639
516.3178332818104
516.3178472429013
516.3178609175059
516.3178743057936
516.3178874079338
516.3179002240959
516.317912754449
516.3179249991624
516.317936958405
516.317948632345
516.3179600211508
516.3179711249907
516.3179819440322
516.3179924784429
516.31800272839
516.3180126940408
516.3180223755628
516.3180317731228
516.318040886888
516.3180497170254
516.3180582637019
516.318066527084
516.318074507338
516.31808220463
516.3180896191261
516.3180967509927
516.3181036003955
516.3181101674998
516.3181164524713
516.318122455476
516.3181281766799
516.3181336162488
516.3181387743482
516.3181436511438
516.318148246801
516.3181525614852
516.3181565953616
516.3181603485953
516.3181638213512
516.3181670137944
516.3181699260901
516.3181725584034
516.318174910899
516.3181769837413
516.318178777095
516.3181802911245
516.3181815259941
516.3181824818682
516.3181831589116
516.3181835572889
516.3181836771648
516.318183518704
516.3181830820711
516.3181823674302
516.3181813749454
516.3181801047808
516.3181785571
516.3181767320664
516.3181746298428
516.3181722505922
516.318169594477
516.3181666616599
516.3181634523035
516.3181599665704
516.3181562046234
516.3181521666249
516.3181478527379
516.3181432631252
516.3181383979495
516.3181332573733
516.3181278415591
516.3181221506695
516.3181161848677
516.3181099443166
516.3181034291792
516.3180966396183
516.3180895757962
516.3180822378756
516.3180746260191
516.3180667403892
516.3180585811481
516.3180501484578
516.3180414424805
516.3180324633784
516.3180232113132
516.3180136864466
516.3180038889404
516.3179938189562
516.3179834766559
516.317972862201
516.3179619757532
516.3179508174737
516.3179393875243
516.3179276860672
516.3179157132638
516.3179034692755
516.3178909542632
516.317878168388
516.3178651118108
516.3178517846925
516.317838187194
516.3178243194754
516.3178101816973
516.3177957740197
516.3177810966031
516.3177661496075
516.3177509331929
516.3177354475195
516.317719692747
516.3177036690352
516.3176873765435
516.3176708154317
516.3176539858589
516.3176368879842
516.3176195219669
516.317601887966
516.3175839861408
516.3175658166504
516.3175473796539
516.3175286753103
516.3175097037783
516.3174904652167
516.3174709597836
516.3174511876371
516.3174311489349
516.3174108438345
516.3173902724932
516.3173694350683
516.3173483317171
516.317326962597
516.3173053278654
516.3172834276788
516.317261262194
516.3172388315679
516.3172161359571
516.3171931755182
516.317169950408
516.3171464607831
516.3171227067999
516.317098688615
516.3170744063852
516.3170498602674
516.3170250504184
516.316999976995
516.3169746401543
516.3169490400535
516.3169231768495
516.316897050699
516.3168706617587
516.3168440101852
516.3168170961351
516.3167899197649
516.3167624812304
516.316734780687
516.3167068182902
516.3166785941951
