521.3371153315268
521.334784996556
521.3324546200913
521.3301242023729
521.327793743641
521.3254632441356
521.3231327040965
521.3208021237635
521.3184715033765
521.3161408431749
521.3138101433985
521.3114794042874
521.3091486260814
521.3068178090205
521.3044869533444
521.3021560592931
521.2998251271063
521.2974941570233
521.2951631492836
521.2928321041263
521.2905010217908
521.2881699025163
521.2858387465419
521.2835075541068
521.2811763254501
521.2788450608111
521.2765137604295
521.2741824245447
521.2718510533966
521.2695196472248
521.2671882062684
521.2648567307665
521.262525220958
521.2601936770823
521.2578620993788
521.2555304880873
521.2531988434473
521.2508671656988
521.248535455082
521.2462037118378
521.2438719362069
521.2415401284304
521.2392082887491
521.2368764174041
521.2345445146368
521.2322125806884
521.2298806158001
521.2275486202132
521.2252165941695
521.2228845379111
521.2205524516796
521.2182203357168
521.2158881902644
521.2135560155646
521.2112238118586
521.2088915793881
521.2065593183945
521.2042270291195
521.2018947118042
521.1995623666905
521.1972299940201
521.1948975940343
521.1925651669742
521.1902327130804
521.1879002325938
521.1855677257556
521.1832351928067
521.1809026339877
521.1785700495391
521.1762374397015
521.1739048047159
521.1715721448234
521.1692394602649
521.1669067512814
521.1645740181141
521.1622412610038
521.1599084801919
521.1575756759196
521.1552428484279
521.1529099979577
521.1505771247503
521.1482442290469
521.1459113110889
521.1435783711179
521.1412454093752
521.1389124261016
521.1365794215383
521.1342463959268
521.1319133495083
521.1295802825241
521.1272471952152
521.1249140878228
521.1225809605883
521.1202478137527
521.1179146475574
521.1155814622437
521.1132482580529
521.110915035227
521.1085817940082
521.1062485346386
521.1039152573603
521.1015819624154
521.0992486500456
521.0969153204933
521.0945819740009
521.0922486108113
521.089915231167
521.0875818353104
521.0852484234845
521.082914995932
521.0805815528954
521.0782480946166
521.0759146213375
521.0735811333004
521.0712476307478
521.0689141139221
521.0665805830654
521.0642470384198
521.0619134802275
521.0595799087307
521.0572463241713
521.0549127267911
521.0525791168322
521.0502454945365
521.0479118601454
521.0455782139009
521.0432445560448
521.0409108868191
521.0385772064658
521.0362435152263
521.033909813342
521.0315761010545
521.0292423786047
521.0269086462333
521.0245749041808
521.0222411526879
521.0199073919955
521.0175736223439
521.0152398439734
521.0129060571246
521.0105722620383
521.0082384589557
521.0059046481178
521.0035708297657
521.0012370041402
520.9989031714824
520.9965693320335
520.9942354860345
520.9919016337269
520.9895677753518
520.9872339111505
520.9849000413644
520.9825661662351
520.9802322860039
520.9778984009124
520.9755645112018
520.9732306171134
520.9708967188883
520.9685628167676
520.9662289109924
520.9638950018034
520.9615610894409
520.9592271741451
520.9568932561563
520.9545593357145
520.95222541306
520.9498914884327
520.9475575620734
520.945223634222
520.9428897051187
520.9405557750038
520.9382218441176
520.9358879127005
520.9335539809929
520.931220049235
520.9288861176669
520.9265521865289
520.9242182560602
520.9218843265005
520.9195503980898
520.9172164710678
520.9148825456741
520.912548622148
520.9102147007286
520.9078807816547
520.9055468651657
520.9032129515006
520.9008790408986
520.8985451335991
520.8962112298409
520.8938773298626
520.8915434339028
520.8892095422007
520.8868756549948
520.884541772524
520.8822078950266
520.8798740227408
520.8775401559046
520.875206294756
520.8728724395332
520.8705385904746
520.8682047478185
520.8658709118035
520.8635370826685
520.8612032606518
520.858869445992
520.8565356389277
520.8542018396972
520.8518680485392
520.8495342656922
520.8472004913947
520.8448667258851
520.8425329694021
520.8401992221841
520.8378654844694
520.8355317564963
520.8331980385033
520.8308643307284
520.8285306334099
520.8261969467851
520.8238632710916
520.8215296065666
520.8191959534474
520.8168623119711
520.8145286823749
520.8121950648956
520.8098614597702
520.8075278672356
520.8051942875288
520.8028607208867
520.8005271675463
520.7981936277456
520.7958601017228
520.7935265897161
520.7911930919631
520.7888596087016
520.7865261401691
520.7841926866035
520.7818592482427
520.7795258253243
520.7771924180863
520.7748590267663
520.7725256516017
520.7701922928295
520.767858950687
520.7655256254113
520.76319231724
520.760859026411
520.7585257531623
520.756192497732
520.7538592603582
520.7515260412795
520.7491928407339
520.7468596589595
520.7445264961939
520.7421933526755
520.7398602286428
520.7375271243343
520.7351940399888
520.7328609758449
520.7305279321415
520.7281949091173
520.7258619070114
520.7235289260634
520.7211959665126
520.7188630285984
520.7165301125601
520.7141972186371
520.7118643470687
520.7095314980945
520.7071986719541
520.704865868887
520.7025330891331
520.7002003329319
520.6978676005226
520.6955348921447
520.6932022080375
520.6908695484403
520.6885369135925
520.6862043037338
520.6838717191035
520.6815391599414
520.679206626487
520.6768741189799
520.6745416376596
520.6722091827658
520.6698767545381
520.6675443532163
520.6652119790399
520.6628796322484
520.660547313081
520.6582150217769
520.655882758575
520.6535505237143
520.6512183174339
520.648886139973
520.6465539915712
520.6442218724676
520.6418897829014
520.6395577231115
520.6372256933366
520.6348936938159
520.6325617247883
520.6302297864925
520.6278978791674
520.6255660030522
520.6232341583857
520.6209023454069
520.6185705643545
520.6162388154671
520.6139070989827
520.6115754151394
520.6092437641753
520.6069121463281
520.604580561836
520.6022490109369
520.5999174938686
520.5975860108686
520.5952545621742
520.5929231480229
520.5905917686518
520.5882604242979
520.5859291151978
520.5835978415882
520.5812666037057
520.5789354017863
520.5766042360665
520.5742731067824
520.5719420141704
520.5696109584671
520.5672799399092
520.5649489587333
520.562618015176
520.5602871094736
520.5579562418632
520.5556254125815
520.5532946218652
520.5509638699507
520.5486331570744
520.5463024834728
520.5439718493824
520.5416412550396
520.539310700681
520.5369801865429
520.5346497128614
520.5323192798726
520.5299888878126
520.5276585369177
520.5253282274241
520.5229979595681
520.5206677335862
520.5183375497143
520.5160074081884
520.5136773092445
520.5113472531182
520.5090172400451
520.5066872702607
520.5043573440005
520.5020274614997
520.4996976229934
520.4973678287167
520.4950380789046
520.4927083737919
520.4903787136134
520.4880490986045
520.4857195290003
520.4833900050355
520.4810605269447
520.4787310949625
520.4764017093241
520.474072370265
520.4717430780211
520.4694138328277
520.4670846349206
520.4647554845353
520.4624263819071
520.4600973272716
520.4577683208643
520.4554393629203
520.4531104536748
520.4507815933628
520.448452782219
520.446124020478
520.443795308375
520.4414666461448
520.4391380340223
520.4368094722424
520.43448096104
520.4321525006501
520.4298240913074
520.4274957332466
520.4251674267023
520.4228391719093
520.4205109691029
520.4181828185178
520.4158547203895
520.4135266749531
520.4111986824446
520.4088707430999
520.406542857155
520.4042150248463
520.4018872464096
520.3995595220815
520.3972318520985
520.3949042366969
520.3925766761133
520.3902491705842
520.387921720346
520.3855943256351
520.3832669866881
520.3809397037412
520.3786124770306
520.3762853067924
520.3739581932625
520.3716311366768
520.369304137271
520.3669771952807
520.3646503109414
520.3623234844888
520.3599967161583
520.3576700061856
520.3553433548061
520.353016762255
520.3506902287672
520.3483637545773
520.3460373399205
520.3437109850313
520.3413846901447
520.3390584554952
520.3367322813176
520.3344061678465
520.3320801153161
520.3297541239604
520.3274281940132
520.3251023257087
520.3227765192808
520.3204507749631
520.3181250929895
520.3157994735936
520.3134739170091
520.3111484234698
520.3088229932098
520.3064976264632
520.304172323464
520.3018470844461
520.2995219096435
520.2971967992905
520.2948717536212
520.2925467728699
520.2902218572704
520.2878970070569
520.2855722224638
520.2832475037251
520.2809228510748
520.2785982647472
520.2762737449768
520.2739492919989
520.2716249060484
520.2693005873609
520.2669763361716
520.2646521527156
520.2623280372279
520.2600039899432
520.2576800110962
520.2553561009213
520.2530322596526
520.2507084875247
520.2483847847714
520.2460611516265
520.2437375883239
520.2414140950978
520.2390906721823
520.2367673198123
520.2344440382219
520.2321208276455
520.2297976883178
520.2274746204737
520.225151624348
520.2228287001756
520.2205058481909
520.2181830686284
520.2158603617227
520.2135377277084
520.2112151668205
520.2088926792937
520.2065702653633
520.2042479252646
520.2019256592328
520.1996034675028
520.1972813503096
520.1949593078882
520.1926373404738
520.1903154483018
520.1879936316077
520.1856718906267
520.1833502255943
520.1810286367459
520.1787071243173
520.1763856885439
520.1740643296607
520.1717430479027
520.1694218435046
520.1671007167013
520.1647796677278
520.1624586968187
520.1601378042085
520.1578169901316
520.1554962548219
520.1531755985131
520.1508550214394
520.1485345238345
520.1462141059326
520.1438937679675
520.141573510173
520.1392533327828
520.1369332360307
520.13461322015
520.1322932853739
520.1299734319359
520.1276536600697
520.1253339700086
520.1230143619862
520.1206948362358
520.1183753929906
520.1160560324838
520.1137367549484
520.1114175606174
520.1090984497243
520.1067794225025
520.1044604791848
520.102141620004
520.0998228451929
520.0975041549839
520.0951855496091
520.0928670293008
520.090548594291
520.0882302448119
520.0859119810955
520.0835938033731
520.0812757118763
520.0789577068363
520.0766397884838
520.0743219570497
520.0720042127643
520.069686555858
520.0673689865614
520.0650515051054
520.0627341117208
520.0604168066382
520.0580995900884
520.0557824623022
520.05346542351
520.0511484739422
520.0488316138292
520.0465148434016
520.0441981628903
520.0418815725259
520.0395650725384
520.0372486631579
520.0349323446142
520.0326161171367
520.0302999809553
520.0279839363
520.0256679834004
520.0233521224859
520.021036353786
520.0187206775302
520.0164050939477
520.0140896032678
520.01177420572
520.0094589015337
520.0071436909382
520.0048285741634
520.0025135514395
520.0001986229961
519.9978837890633
519.9955690498712
519.9932544056499
519.9909398566294
519.98862540304
519.9863110451117
519.9839967830746
519.9816826171589
519.9793685475945
519.9770545746117
519.9747406984404
519.9724269193109
519.9701132374532
519.9677996530975
519.9654861664737
519.9631727778126
519.9608594873448
519.9585462953014
519.9562332019134
519.9539202074113
519.9516073120255
519.9492945159861
519.9469818195232
519.9446692228664
519.9423567262456
519.940044329891
519.9377320340329
519.9354198389019
519.9331077447284
519.9307957517428
519.928483860175
519.926172070255
519.9238603822134
519.9215487962808
519.9192373126878
519.916925931665
519.9146146534433
519.9123034782535
519.9099924063264
519.907681437893
519.9053705731837
519.9030598124293
519.9007491558607
519.8984386037089
519.8961281562049
519.8938178135795
519.8915075760628
519.8891974438845
519.8868874172742
519.8845774964614
519.8822676816749
519.8799579731437
519.8776483710967
519.8753388757625
519.8730294873701
519.8707202061485
519.8684110323268
519.866101966134
519.8637930077994
519.8614841575525
519.8591754156225
519.8568667822387
519.8545582576301
519.8522498420252
519.8499415356528
519.8476333387409
519.8453252515183
519.8430172742133
519.8407094070542
519.8384016502694
519.8360940040873
519.8337864687362
519.8314790444444
519.8291717314403
519.8268645299524
519.8245574402092
519.8222504624389
519.8199435968697
519.81763684373
519.8153302032481
519.8130236756522
519.8107172611701
519.8084109600297
519.8061047724589
519.8037986986851
519.8014927389356
519.7991868934375
519.796881162418
519.7945755461039
519.7922700447223
519.7899646584999
519.7876593876638
519.7853542324408
519.7830491930579
519.7807442697424
519.7784394627217
519.7761347722233
519.7738301984743
519.7715257417019
519.7692214021329
519.7669171799939
519.7646130755118
519.7623090889128
519.7600052204239
519.7577014702713
519.7553978386816
519.7530943258812
519.7507909320966
519.7484876575543
519.7461845024804
519.7438814671009
519.7415785516416
519.7392757563291
519.7369730813896
519.734670527049
519.7323680935335
519.7300657810688
519.7277635898809
519.7254615201957
519.723159572239
519.7208577462363
519.7185560424139
519.7162544609973
519.7139530022125
519.7116516662852
519.7093504534412
519.7070493639058
519.7047483979043
519.7024475556623
519.7001468374053
519.6978462433588
519.6955457737479
519.6932454287983
519.6909452087355
519.688645113785
519.6863451441725
519.6840453001234
519.6817455818632
519.6794459896169
519.67714652361
519.6748471840683
519.6725479712175
519.6702488852834
519.6679499264924
519.6656510950704
519.6633523912435
519.6610538152379
519.6587553672796
519.6564570475941
519.6541588564071
519.651860793944
519.6495628604305
519.647265056092
519.6449673811542
519.6426698358428
519.6403724203835
519.6380751350023
519.6357779799248
519.6334809553771
519.6311840615856
519.6288872987768
519.6265906671772
519.6242941670132
519.6219977985108
519.6197015618961
519.6174054573946
519.6151094852316
519.6128136456321
519.6105179388207
519.6082223650219
519.6059269244595
519.6036316173575
519.6013364439398
519.5990414044306
519.5967464990542
519.5944517280343
519.5921570915946
519.5898625899588
519.5875682233502
519.5852739919919
519.5829798961074
519.5806859359202
519.5783921116538
519.5760984235314
519.5738048717769
519.571511456614
519.5692181782663
519.5669250369576
519.5646320329117
519.5623391663523
519.5600464375032
519.557753846588
519.5554613938305
519.5531690794544
519.5508769036835
519.5485848667411
519.5462929688504
519.5440012102342
519.5417095911159
519.5394181117183
519.5371267722644
519.5348355729773
519.53254451408
519.5302535957958
519.5279628183482
519.5256721819605
519.523381686856
519.5210913332583
519.5188011213902
519.5165110514747
519.5142211237344
519.5119313383921
519.5096416956706
519.5073521957927
519.5050628389811
519.5027736254583
519.500484555447
519.4981956291697
519.4959068468493
519.4936182087083
519.4913297149694
519.4890413658552
519.4867531615882
519.4844651023911
519.4821771884863
519.4798894200956
519.4776017974407
519.4753143207431
519.4730269902243
519.4707398061055
519.4684527686079
519.466165877953
519.4638791343621
519.461592538056
519.459306089256
519.4570197881833
519.454733635059
519.4524476301042
519.45016177354
519.4478760655879
519.4455905064694
519.443305096406
519.441019835619
519.4387347243303
519.4364497627614
519.4341649511346
519.4318802896719
519.4295957785957
519.4273114181285
519.4250272084926
519.42274314991
519.4204592426029
519.4181754867927
519.4158918827013
519.4136084305508
519.4113251305632
519.4090419829606
519.4067589879646
519.4044761457972
519.4021934566802
519.399910920835
519.3976285384829
519.3953463098444
519.3930642351402
519.3907823145908
519.3885005484169
519.3862189368394
519.3839374800789
519.3816561783556
519.3793750318903
519.3770940409038
519.3748132056169
519.3725325262506
519.3702520030258
519.3679716361635
519.3656914258843
519.363411372409
519.3611314759582
519.3588517367523
519.3565721550115
519.3542927309561
519.3520134648061
519.3497343567813
519.3474554071013
519.3451766159858
519.3428979836547
519.3406195103282
519.3383411962266
519.3360630415698
519.3337850465784
519.3315072114733
519.3292295364749
519.3269520218041
519.3246746676816
519.3223974743282
519.3201204419645
519.3178435708107
519.3155668610875
519.3132903130154
519.3110139268147
519.3087377027059
519.3064616409094
519.3041857416456
519.3019100051347
519.2996344315968
519.2973590212516
519.2950837743185
519.292808691017
519.2905337715663
519.288259016186
519.2859844250954
519.2837099985143
519.2814357366622
519.2791616397585
519.2768877080225
519.2746139416731
519.2723403409293
519.2700669060098
519.2677936371331
519.2655205345179
519.2632475983835
519.260974828949
519.2587022264336
519.256429791056
519.2541575230346
519.2518854225875
519.2496134899332
519.2473417252897
519.2450701288751
519.2427987009071
519.240527441604
519.2382563511835
519.2359854298636
519.233714677862
519.2314440953965
519.2291736826844
519.226903439943
519.2246333673891
519.2223634652394
519.2200937337109
519.2178241730203
519.215554783384
519.2132855650186
519.21101651814
519.208747642964
519.2064789397066
519.2042104085838
519.2019420498116
519.1996738636055
519.1974058501808
519.1951380097521
519.192870342534
519.1906028487408
519.188335528587
519.186068382287
519.1838014100551
519.1815346121059
519.1792679886537
519.1770015399131
519.1747352660989
519.1724691674253
519.1702032441065
519.167937496356
519.1656719243881
519.1634065284172
519.1611413086578
519.1588762653239
519.1566113986303
519.1543467087915
519.1520821960223
519.1498178605368
519.1475537025492
519.1452897222737
519.1430259199244
519.1407622957156
519.138498849861
519.1362355825738
519.1339724940678
519.1317095845563
519.1294468542524
519.127184303369
519.1249219321192
519.1226597407162
519.1203977293737
519.1181358983051
519.1158742477242
519.1136127778448
519.1113514888807
519.1090903810457
519.1068294545532
519.1045687096168
519.1023081464498
519.1000477652658
519.0977875662784
519.0955275497004
519.093267715745
519.0910080646261
519.0887485965568
519.0864893117503
519.0842302104193
519.0819712927764
519.0797125590341
519.0774540094046
519.0751956441006
519.0729374633349
519.0706794673204
519.06842165627
519.0661640303967
519.0639065899143
519.0616493350356
519.0593922659737
519.0571353829416
519.0548786861525
519.0526221758194
519.0503658521554
519.048109715374
519.0458537656884
519.0435980033121
519.0413424284586
519.039087041341
519.0368318421727
519.034576831167
519.0323220085372
519.0300673744966
519.0278129292583
519.0255586730352
519.0233046060405
519.0210507284871
519.0187970405887
519.0165435425586
519.0142902346106
519.0120371169585
519.0097841898157
519.0075314533958
519.005278907912
519.0030265535777
519.0007743906058
518.9985224192089
518.9962706395993
518.994019051989
518.9917676565901
518.9895164536149
518.9872654432756
518.9850146257843
518.9827640013525
518.980513570192
518.978263332514
518.9760132885297
518.9737634384499
518.9715137824855
518.9692643208475
518.9670150537465
518.9647659813932
518.9625171039977
518.9602684217703
518.9580199349209
518.95577164366
518.9535235481981
518.9512756487459
518.949027945514
518.9467804387127
518.9445331285522
518.9422860152426
518.9400390989942
518.9377923800168
518.9355458585203
518.9332995347145
518.9310534088092
518.9288074810147
518.9265617515407
518.9243162205973
518.9220708883943
518.9198257551409
518.9175808210464
518.9153360863197
518.91309155117
518.9108472158064
518.9086030804381
518.9063591452748
518.904115410526
518.9018718764007
518.8996285431083
518.8973854108576
518.8951424798577
518.8928997503172
518.8906572224448
518.8884148964491
518.8861727725382
518.8839308509203
518.8816891318036
518.8794476153964
518.8772063019071
518.8749651915439
518.872724284515
518.8704835810283
518.8682430812917
518.8660027855124
518.8637626938978
518.8615228066553
518.8592831239919
518.8570436461143
518.8548043732296
518.8525653055444
518.8503264432652
518.8480877865989
518.8458493357523
518.8436110909327
518.8413730523469
518.8391352202018
518.8368975947044
518.8346601760613
518.8324229644793
518.8301859601654
518.8279491633268
518.8257125741711
518.8234761929059
518.8212400197385
518.8190040548764
518.8167682985263
518.8145327508951
518.8122974121891
518.8100622826146
518.8078273623776
518.8055926516834
518.8033581507368
518.801123859743
518.7988897789071
518.7966559084336
518.7944222485271
518.7921887993919
518.7899555612328
518.787722534255
518.7854897186637
518.7832571146646
518.7810247224631
518.7787925422647
518.7765605742741
518.7743288186964
518.7720972757375
518.769865945603
518.7676348284988
518.7654039246306
518.763173234204
518.7609427574246
518.7587124944973
518.7564824456272
518.754252611019
518.7520229908775
518.7497935854076
518.7475643948135
518.7453354192996
518.7431066590702
518.7408781143292
518.7386497852806
518.7364216721278
518.7341937750748
518.7319660943258
518.729738630085
518.7275113825563
518.7252843519434
518.7230575384501
518.7208309422801
518.7186045636374
518.7163784027259
518.7141524597496
518.7119267349124
518.7097012284182
518.7074759404707
518.7052508712734
518.7030260210302
518.7008013899451
518.6985769782225
518.696352786066
518.6941288136791
518.6919050612651
518.6896815290272
518.6874582171683
518.6852351258906
518.6830122553963
518.6807896058876
518.678567177567
518.6763449706361
518.6741229852973
518.6719012217525
518.6696796802032
518.6674583608512
518.6652372638985
518.6630163895463
518.6607957379961
518.6585753094489
518.6563551041056
518.654135122167
518.6519153638335
518.6496958293058
518.6474765187843
518.6452574324696
518.6430385705621
518.6408199332616
518.6386015207675
518.6363833332791
518.6341653709962
518.631947634118
518.6297301228435
518.627512837372
518.6252957779027
518.6230789446347
518.6208623377672
518.6186459574997
518.6164298040314
518.614213877562
518.6119981782906
518.6097827064166
518.6075674621386
518.6053524456552
518.6031376571646
518.6009230968646
518.598708764953
518.5964946616275
518.5942807870854
518.5920671415242
518.5898537251417
518.5876405381352
518.5854275807021
518.5832148530396
518.5810023553449
518.5787900878149
518.576578050646
518.5743662440348
518.5721546681777
518.5699433232714
518.5677322095121
518.5655213270961
518.56331067622
518.5611002570802
518.5588900698733
518.5566801147957
518.554470392043
518.5522609018108
518.5500516442946
518.5478426196898
518.5456338281915
518.5434252699949
518.541216945295
518.5390088542865
518.5368009971648
518.5345933741255
518.532385985364
518.5301788310755
518.5279719114549
518.5257652266969
518.5235587769964
518.5213525625484
518.5191465835476
518.5169408401891
518.5147353326684
518.5125300611805
518.5103250259206
518.5081202270833
518.5059156648633
518.5037113394555
518.5015072510544
518.4993033998539
518.4970997860485
518.4948964098319
518.4926932713979
518.4904903709405
518.4882877086536
518.4860852847312
518.4838830993674
518.4816811527564
518.4794794450925
518.4772779765697
518.4750767473822
518.4728757577236
518.4706750077873
518.4684744977669
518.4662742278558
518.4640741982475
518.4618744091356
518.4596748607134
518.4574755531746
518.4552764867124
518.4530776615202
518.4508790777911
518.4486807357182
518.4464826354945
518.4442847773128
518.4420871613656
518.4398897878457
518.4376926569455
518.4354957688577
518.4332991237748
518.4311027218894
518.4289065633941
518.4267106484815
518.424514977344
518.422319550174
518.4201243671644
518.4179294285073
518.4157347343953
518.4135402850209
518.4113460805768
518.4091521212556
518.4069584072502
518.4047649387533
518.4025717159575
518.4003787390554
518.3981860082397
518.3959935237028
518.3938012856374
518.3916092942361
518.3894175496914
518.3872260521957
518.3850348019412
518.3828437991197
518.3806530439231
518.3784625365436
518.3762722771733
518.3740822660045
518.3718925032294
518.3697029890402
518.3675137236289
518.3653247071882
518.3631359399108
518.3609474219897
518.3587591536182
518.3565711349888
518.3543833662943
518.3521958477274
518.3500085794806
518.3478215617461
518.345634794716
518.3434482785826
518.341262013538
518.3390759997744
518.3368902374843
518.3347047268596
518.3325194680922
518.3303344613739
518.3281497068967
518.3259652048525
518.3237809554332
518.3215969588307
518.3194132152373
518.317229724845
518.3150464878458
518.312863504432
518.3106807747961
518.3084982991304
518.3063160776271
518.3041341104788
518.301952397878
518.2997709400172
518.2975897370886
518.2954087892851
518.2932280967998
518.2910476598256
518.2888674785556
518.2866875531829
518.2845078839002
518.2823284709007
518.280149314377
518.2779704145221
518.2757917715285
518.273613385589
518.2714352568962
518.2692573856427
518.2670797720211
518.264902416224
518.2627253184439
518.2605484788735
518.258371897705
518.256195575131
518.2540195113436
518.2518437065353
518.2496681608984
518.2474928746253
518.2453178479086
518.2431430809404
518.2409685739126
518.2387943270169
518.2366203404454
518.23444661439
518.2322731490424
518.2300999445936
518.2279270012348
518.2257543191574
518.223581898553
518.2214097396129
518.2192378425282
518.2170662074896
518.214894834688
518.2127237243142
518.210552876558
518.2083822916095
518.2062119696579
518.2040419108928
518.2018721155034
518.1997025836793
518.1975333156099
518.195364311485
518.1931955714942
518.1910270958269
518.1888588846725
518.1866909382209
518.1845232566618
518.1823558401852
518.1801886889809
518.1780218032388
518.175855183149
518.1736888289013
518.1715227406851
518.1693569186896
518.1671913631037
518.1650260741164
518.1628610519167
518.160696296693
518.1585318086338
518.1563675879272
518.154203634761
518.1520399493227
518.1498765317995
518.1477133823785
518.1455505012466
518.1433878885907
518.1412255445978
518.1390634694544
518.1369016633473
518.1347401264632
518.1325788589884
518.1304178611094
518.1282571330125
518.1260966748839
518.12393648691
518.121776569277
518.1196169221707
518.1174575457769
518.1152984402813
518.1131396058697
518.1109810427276
518.1088227510409
518.1066647309951
518.1045069827762
518.1023495065692
518.100192302559
518.0980353709301
518.0958787118673
518.0937223255548
518.0915662121768
518.0894103719172
518.0872548049599
518.0850995114886
518.0829444916869
518.0807897457387
518.0786352738276
518.0764810761373
518.0743271528515
518.0721735041539
518.0700201302277
518.067867031257
518.0657142074258
518.0635616589175
518.0614093859156
518.0592573886036
518.0571056671647
518.0549542217825
518.0528030526405
518.0506521599223
518.0485015438119
518.0463512044935
518.0442011421515
518.0420513569702
518.0399018491337
518.0377526188263
518.0356036662322
518.0334549915353
518.0313065949192
518.0291584765671
518.0270106366618
518.0248630753858
518.0227157929221
518.0205687894534
518.0184220651624
518.0162756202321
518.0141294548453
518.0119835691846
518.0098379634333
518.007692637774
518.0055475923893
518.003402827462
518.0012583431746
517.9991141397104
517.9969702172516
517.9948265759806
517.9926832160797
517.9905401377307
517.9883973411149
517.9862548264134
517.9841125938071
517.9819706434771
517.979828975604
517.9776875903683
517.9755464879502
517.97340566853
517.9712651322877
517.9691248794036
517.9669849100576
517.9648452244298
517.9627058227006
517.9605667050503
517.9584278716591
517.9562893227073
517.9541510583756
517.9520130788444
517.9498753842943
517.9477379749057
517.9456008508591
517.9434640123347
517.9413274595129
517.9391911925732
517.937055211695
517.9349195170576
517.9327841088402
517.9306489872226
517.9285141523844
517.926379604505
517.9242453437635
517.9221113703395
517.9199776844127
517.9178442861628
517.9157111757688
517.91357835341
517.9114458192655
517.909313573514
517.9071816163337
517.905049947902
517.9029185683964
517.900787477995
517.8986566768751
517.896526165214
517.8943959431888
517.8922660109768
517.8901363687557
517.8880070167036
517.8858779549978
517.883749183816
517.8816207033358
517.8794925137347
517.8773646151903
517.8752370078801
517.8731096919812
517.8709826676716
517.868855935129
517.8667294945312
517.8646033460561
517.862477489881
517.8603519261831
517.8582266551396
517.8561016769279
517.8539769917254
517.8518525997094
517.8497285010574
517.8476046959463
517.8454811845534
517.8433579670552
517.8412350436286
517.8391124144498
517.8369900796949
517.83486803954
517.8327462941609
517.8306248437336
517.8285036884338
517.8263828284369
517.8242622639184
517.8221419950535
517.8200220220172
517.8179023449841
517.8157829641289
517.8136638796261
517.8115450916507
517.8094266003775
517.8073084059808
517.8051905086347
517.8030729085128
517.8009556057891
517.7988386006375
517.796721893232
517.7946054837464
517.7924893723546
517.7903735592301
517.7882580445469
517.7861428284784
517.7840279111986
517.7819132928805
517.7797989736976
517.7776849538234
517.7755712334317
517.7734578126963
517.7713446917908
517.7692318708889
517.767119350164
517.7650071297887
517.762895209936
517.7607835907784
517.758672272488
517.7565612552364
517.7544505391954
517.7523401245369
517.7502300114327
517.7481202000547
517.7460106905748
517.7439014831643
517.7417925779944
517.7396839752364
517.7375756750619
517.7354676776417
517.733359983147
517.7312525917487
517.7291455036177
517.7270387189249
517.7249322378404
517.7228260605345
517.7207201871768
517.7186146179363
517.7165093529818
517.714404392482
517.7122997366057
517.710195385522
517.7080913394
517.7059875984089
517.7038841627179
517.7017810324962
517.6996782079125
517.697575689135
517.6954734763319
517.6933715696716
517.6912699693228
517.6891686754541
517.6870676882338
517.6849670078298
517.6828666344095
517.6807665681406
517.6786668091902
517.6765673577247
517.6744682139104
517.6723693779134
517.6702708498997
517.6681726300353
517.6660747184862
517.6639771154184
517.6618798209975
517.659782835389
517.6576861587589
517.6555897912726
517.6534937330957
517.6513979843937
517.6493025453319
517.6472074160758
517.645112596791
517.643018087643
517.640923888797
517.6388300004185
517.6367364226724
517.6346431557238
517.6325501997378
517.6304575548797
517.6283652213149
517.6262731992088
517.6241814887264
517.622090090033
517.6199990032935
517.6179082286733
517.6158177663378
517.6137276164529
517.6116377791843
517.6095482546973
517.6074590431574
517.6053701447304
517.603281559582
517.601193287878
517.5991053297842
517.597017685466
517.594930355089
517.5928433388187
517.5907566368207
517.5886702492603
517.5865841763027
517.5844984181131
517.582412974856
517.5803278466963
517.5782430337986
517.5761585363277
517.5740743544486
517.5719904883256
517.5699069381233
517.5678237040063
517.565740786139
517.5636581846854
517.5615758998094
517.559493931675
517.5574122804458
517.5553309462857
517.5532499293588
517.5511692298287
517.5490888478589
517.5470087836129
517.5449290372542
517.5428496089462
517.5407704988522
517.5386917071351
517.5366132339575
517.5345350794823
517.5324572438724
517.5303797272902
517.5283025298982
517.5262256518579
517.5241490933311
517.5220728544793
517.5199969354642
517.517921336447
517.5158460575894
517.5137710990532
517.5116964609997
517.5096221435904
517.5075481469867
517.50547447135
517.503401116842
517.5013280836245
517.4992553718587
517.4971829817057
517.4951109133265
517.493039166882
517.490967742533
517.4888966404403
517.4868258607644
517.4847554036653
517.4826852693029
517.4806154578371
517.4785459694274
517.476476804233
517.4744079624131
517.4723394441269
517.4702712495334
517.4682033787919
517.4661358320616
517.4640686095013
517.46200171127
517.4599351375266
517.4578688884296
517.4558029641373
517.4537373648077
517.4516720905985
517.4496071416677
517.4475425181729
517.445478220272
517.443414248123
517.4413506018839
517.4392872817125
517.4372242877669
517.435161620205
517.433099279185
517.4310372648645
517.4289755774014
517.426914216954
517.4248531836809
517.4227924777404
517.4207320992907
517.4186720484902
517.4166123254975
517.4145529304708
517.4124938635689
517.41043512495
517.4083767147724
517.4063186331939
517.4042608803722
517.4022034564648
517.4001463616289
517.3980895960217
517.3960331597998
517.3939770531199
517.3919212761384
517.389865829012
517.3878107118974
517.3857559249511
517.3837014683302
517.3816473421914
517.3795935466912
517.3775400819861
517.3754869482325
517.3734341455863
517.3713816742036
517.3693295342405
517.3672777258528
517.3652262491962
517.3631751044265
517.3611242916993
517.35907381117
517.3570236629942
517.3549738473275
517.3529243643259
517.3508752141447
517.3488263969396
517.3467779128657
517.3447297620785
517.3426819447329
517.3406344609841
517.3385873109871
517.336540494897
517.3344940128691
517.3324478650586
517.3304020516209
517.3283565727113
517.3263114284848
517.3242666190965
517.3222221447015
517.3201780054549
517.3181342015116
517.3160907330264
517.3140476001536
517.3120048030478
517.3099623418636
517.3079202167553
517.3058784278767
517.3038369753815
517.301795859423
517.2997550801545
517.2977146377295
517.2956745323015
517.2936347640236
517.2915953330491
517.2895562395313
517.2875174836233
517.2854790654785
517.2834409852501
517.2814032430913
517.2793658391554
517.2773287735956
517.2752920465655
517.2732556582184
517.271219608708
517.2691838981875
517.2671485268108
517.2651134947316
517.2630788021036
517.2610444490806
517.2590104358167
517.2569767624655
517.2549434291807
517.2529104361158
517.2508777834241
517.2488454712588
517.2468134997735
517.2447818691214
517.2427505794565
517.2407196309321
517.238689023701
517.2366587579161
517.2346288337301
517.232599251296
517.230570010767
517.2285411122957
517.226512556035
517.2244843421374
517.222456470756
517.2204289420438
517.2184017561533
517.2163749132371
517.2143484134479
517.2123222569383
517.2102964438611
517.2082709743695
517.2062458486168
517.2042210667562
517.2021966289406
517.200172535323
517.1981487860567
517.1961253812949
517.1941023211909
517.1920796058978
517.1900572355687
517.1880352103574
517.1860135304175
517.1839921959029
517.1819712069671
517.1799505637639
517.1779302664474
517.1759103151717
517.1738907100903
517.171871451357
517.1698525391255
517.167833973549
517.1658157547806
517.1637978829733
517.1617803582801
517.1597631808538
517.1577463508472
517.1557298684129
517.153713733703
517.1516979468695
517.1496825080649
517.1476674174412
517.1456526751506
517.1436382813449
517.1416242361763
517.1396105397966
517.1375971923574
517.1355841940097
517.133571544905
517.1315592451945
517.1295472950296
517.1275356945619
517.1255244439424
517.1235135433221
517.1215029928524
517.1194927926842
517.1174829429692
517.115473443859
517.1134642955051
517.1114554980591
517.1094470516725
517.1074389564967
517.1054312126828
517.1034238203817
517.1014167797446
517.0994100909224
517.0974037540666
517.0953977693287
517.0933921368603
517.091386856813
517.0893819293376
517.0873773545848
517.0853731327045
517.0833692638471
517.0813657481626
517.0793625858007
517.077359776911
517.0753573216425
517.0733552201443
517.0713534725658
517.0693520790562
517.0673510397648
517.0653503548408
517.0633500244328
517.0613500486891
517.0593504277579
517.0573511617877
517.0553522509265
517.0533536953224
517.0513554951231
517.0493576504766
517.0473601615311
517.0453630284344
517.0433662513344
517.0413698303789
517.0393737657157
517.0373780574926
517.0353827058573
517.0333877109572
517.0313930729396
517.0293987919524
517.0274048681433
517.0254113016601
517.0234180926502
517.0214252412604
517.0194327476372
517.0174406119272
517.0154488342771
517.0134574148337
517.011466353744
517.0094756511548
517.0074853072131
517.0054953220654
517.0035056958586
517.0015164287399
516.9995275208564
516.997538972355
516.9955507833827
516.9935629540867
516.991575484614
516.9895883751117
516.9876016257267
516.9856152366058
516.9836292078955
516.9816435397431
516.9796582322958
516.9776732857006
516.9756887001047
516.973704475656
516.9717206125019
516.9697371107902
516.9677539706681
516.9657711922825
516.9637887757801
516.9618067213073
516.9598250290107
516.9578436990371
516.9558627315328
516.9538821266444
516.9519018845187
516.9499220053019
516.9479424891406
516.9459633361814
516.9439845465708
516.9420061204546
516.9400280579782
516.9380503592868
516.9360730245255
516.9340960538395
516.9321194473739
516.9301432052737
516.9281673276842
516.9261918147506
516.9242166666183
516.9222418834324
516.9202674653382
516.9182934124808
516.9163197250057
516.9143464030578
516.9123734467823
516.9104008563238
516.9084286318268
516.9064567734363
516.9044852812965
516.9025141555519
516.9005433963468
516.8985730038257
516.8966029781329
516.8946333194124
516.892664027808
516.8906951034639
516.8887265465244
516.8867583571332
516.8847905354346
516.8828230815727
516.8808559956917
516.8788892779355
516.876922928448
516.8749569473732
516.8729913348548
516.8710260910368
516.8690612160633
516.8670967100782
516.8651325732255
516.8631688056496
516.8612054074945
516.8592423789044
516.8572797200234
516.8553174309957
516.8533555119654
516.8513939630766
516.8494327844726
516.8474719762969
516.845511538693
516.8435514718042
516.8415917757736
516.8396324507446
516.8376734968604
516.8357149142639
516.8337567030987
516.8317988635079
516.8298413956345
516.8278842996217
516.8259275756127
516.8239712237507
516.8220152441793
516.8200596370414
516.81810440248
516.8161495406382
516.814195051659
516.8122409356854
516.8102871928606
516.8083338233275
516.8063808272288
516.8044282047074
516.802475955906
516.8005240809678
516.7985725800356
516.7966214532521
516.7946707007598
516.7927203227014
516.7907703192195
516.7888206904568
516.7868714365552
516.784922557657
516.7829740539039
516.7810259254377
516.7790781724
516.7771307949326
516.7751837931773
516.7732371672757
516.7712909173695
516.7693450435997
516.7673995461075
516.7654544250338
516.7635096805195
516.7615653127052
516.7596213217314
516.7576777077381
516.755734470865
516.7537916112515
516.7518491290368
516.74990702436
516.74796529736
516.7460239481754
516.744082976945
516.7421423838073
516.7402021689004
516.7382623323626
516.7363228743322
516.7343837949472
516.7324450943461
516.730506772667
516.7285688300483
516.7266312666281
516.7246940825448
516.7227572779364
516.7208208529405
516.7188848076951
516.7169491423379
516.7150138570064
516.7130789518383
516.7111444269703
516.7092102825395
516.7072765186824
516.7053431355357
516.703410133236
516.7014775119198
516.6995452717233
516.6976134127824
516.6956819352333
516.6937508392123
516.6918201248554
516.6898897922986
516.6879598416772
516.686030273127
516.6841010867838
516.6821722827833
516.6802438612615
516.6783158223545
516.6763881661986
516.67446089293
516.6725340026849
516.6706074955989
516.6686813718081
516.6667556314485
516.664830274656
516.6629053015661
516.6609807123143
516.6590565070358
516.6571326858652
516.6552092489376
516.6532861963872
516.6513635283484
516.6494412449554
516.6475193463418
516.6455978326412
516.6436767039868
516.6417559605118
516.6398356023492
516.6379156296318
516.6359960424923
516.6340768410632
516.6321580254776
516.630239595868
516.6283215523674
516.6264038951088
516.6244866242253
516.6225697398502
516.6206532421168
516.6187371311587
516.6168214071095
516.6149060701025
516.6129911202713
516.6110765577496
516.6091623826708
516.6072485951681
516.6053351953749
516.6034221834241
516.6015095594487
516.599597323582
516.5976854759572
516.5957740167075
516.5938629459663
516.5919522638665
516.590041970541
516.5881320661231
516.5862225507456
516.5843134245415
516.5824046876435
516.580496340184
516.5785883822957
516.5766808141111
516.5747736357623
516.5728668473812
516.5709604490996
516.5690544410493
516.5671488233622
516.5652435961701
516.5633387596044
516.5614343137966
516.5595302588779
516.5576265949796
516.5557233222332
516.5538204407694
516.5519179507189
516.550015852212
516.548114145379
516.5462128303502
516.5443119072554
516.5424113762244
516.5405112373867
516.5386114908713
516.5367121368074
516.5348131753242
516.5329146065512
516.5310164306181
516.5291186476545
516.52722125779
516.5253242611541
516.5234276578765
516.5215314480872
516.5196356319166
516.5177402094944
516.51584518095
516.5139505464126
516.5120563060116
516.5101624598765
516.5082690081374
516.5063759509244
516.5044832883673
516.5025910205957
516.5006991477387
516.4988076699253
516.4969165872847
516.4950258999454
516.493135608036
516.491245711685
516.4893562110203
516.48746710617
516.4855783972619
516.4836900844234
516.4818021677818
516.479914647464
516.4780275235973
516.4761407963085
516.4742544657245
516.4723685319723
516.4704829951793
516.4685978554728
516.4667131129802
516.4648287678285
516.4629448201447
516.4610612700556
516.4591781176875
516.4572953631666
516.4554130066183
516.4535310481681
516.4516494879415
516.449768326064
516.4478875626612
516.4460071978585
516.444127231782
516.4422476645575
516.4403684963106
516.4384897271668
516.4366113572514
516.4347333866892
516.4328558156049
516.4309786441229
516.4291018723677
516.4272255004632
516.4253495285332
516.4234739567012
516.4215987850914
516.419724013828
516.4178496430352
516.4159756728366
516.4141021033554
516.4122289347151
516.410356167039
516.4084838004503
516.406611835072
516.4047402710271
516.4028691084388
516.4009983474305
516.399127988125
516.3972580306452
516.3953884751143
516.3935193216553
516.3916505703912
516.3897822214451
516.3879142749397
516.3860467309976
516.3841795897413
516.3823128512931
516.3804465157757
516.3785805833115
516.3767150540232
516.374849928033
516.3729852054632
516.3711208864363
516.3692569710745
516.3673934595001
516.3655303518351
516.3636676482013
516.361805348721
516.3599434535165
516.3580819627098
516.3562208764222
516.3543601947752
516.3524999178901
516.3506400458884
516.3487805788918
516.3469215170217
516.3450628603998
516.3432046091482
516.3413467633886
516.3394893232428
516.3376322888325
516.3357756602798
516.3339194377063
516.332063621234
516.3302082109851
516.3283532070816
516.3264986096458
516.3246444188001
516.3227906346667
516.3209372573676
516.3190842870245
516.3172317237588
516.3153795676926
516.3135278189473
516.3116764776444
516.3098255439056
516.3079750178524
516.3061248996057
516.3042751892865
516.3024258870162
516.3005769929161
516.2987285071079
516.2968804297127
516.2950327608523
516.2931855006484
516.2913386492226
516.2894922066967
516.2876461731928
516.2858005488331
516.2839553337396
516.2821105280343
516.280266131839
516.2784221452755
516.2765785684658
516.2747354015321
516.2728926445964
516.2710502977807
516.2692083612071
516.2673668349978
516.2655257192748
516.26368501416
516.2618447197758
516.2600048362444
516.258165363688
516.2563263022287
516.2544876519889
516.2526494130909
516.250811585657
516.2489741698093
516.24713716567
516.2453005733607
516.243464393003
516.2416286247183
516.2397932686279
516.2379583248537
516.2361237935177
516.2342896747414
516.2324559686467
516.2306226753556
516.2287897949896
516.2269573276701
516.2251252735189
516.2232936326573
516.2214624052065
516.2196315912877
516.2178011910216
516.2159712045288
516.2141416319298
516.212312473345
516.2104837288948
516.208655398699
516.2068274828773
516.2049999815501
516.203172894838
516.2013462228613
516.1995199657401
516.1976941235946
516.1958686965447
516.1940436847101
516.1922190882101
516.1903949071639
516.1885711416903
516.1867477919084
516.1849248579372
516.1831023398956
516.1812802379029
516.1794585520779
516.1776372825393
516.1758164294056
516.1739959927952
516.1721759728264
516.1703563696176
516.1685371832871
516.166718413953
516.1649000617338
516.1630821267474
516.1612646091125
516.1594475089476
516.1576308263709
516.1558145615011
516.1539987144563
516.152183285355
516.1503682743157
516.1485536814564
516.1467395068946
516.1449257507477
516.1431124131329
516.1412994941679
516.1394869939697
516.1376749126553
516.1358632503416
516.1340520071456
516.1322411831841
516.1304307785738
516.1286207934309
516.1268112278715
516.1250020820119
516.1231933559679
516.1213850498557
516.1195771637913
516.1177696978909
516.1159626522706
516.114156027046
516.1123498223326
516.1105440382457
516.1087386749011
516.1069337324141
516.1051292108996
516.1033251104725
516.1015214312476
516.0997181733394
516.0979153368619
516.0961129219293
516.0943109286552
516.0925093571534
516.0907082075378
516.0889074799222
516.0871071744205
516.0853072911461
516.0835078302132
516.0817087917355
516.0799101758271
516.0781119826013
516.0763142121716
516.0745168646517
516.0727199401556
516.0709234387971
516.0691273606897
516.0673317059466
516.0655364746813
516.0637416670072
516.0619472830379
516.0601533228867
516.0583597866669
516.0565666744913
516.0547739864726
516.0529817227232
516.0511898833552
516.0493984684806
516.0476074782114
516.0458169126593
516.0440267719364
516.0422370561544
516.0404477654251
516.0386588998604
516.0368704595717
516.0350824446703
516.0332948552675
516.0315076914751
516.0297209534042
516.0279346411664
516.0261487548732
516.024363294636
516.0225782605662
516.0207936527752
516.0190094713741
516.0172257164743
516.015442388187
516.0136594866237
516.0118770118954
516.010094964113
516.0083133433873
516.0065321498289
516.0047513835486
516.0029710446568
516.0011911332633
515.9994116494788
515.9976325934133
515.9958539651766
515.994075764879
515.9922979926307
515.9905206485419
515.9887437327227
515.9869672452835
515.9851911863341
515.9834155559845
515.9816403543448
515.979865581525
515.9780912376352
515.976317322785
515.9745438370844
515.9727707806437
515.9709981535732
515.9692259559831
515.9674541879838
515.9656828496852
515.9639119411979
515.9621414626329
515.960371414101
515.9586017957133
515.9568326075803
515.9550638498124
515.95329552252
515.9515276258135
515.9497601598036
515.9479931246012
515.9462265203169
515.9444603470617
515.9426946049468
515.9409292940832
515.9391644145819
515.9373999665547
515.9356359501132
515.9338723653693
515.9321092124344
515.9303464914201
515.9285842024378
515.926822345599
515.9250609210151
515.9232999287972
515.9215393690563
515.9197792419031
515.9180195474485
515.916260285803
515.914501457077
515.9127430613805
515.9109850988236
515.9092275695164
515.9074704735688
515.9057138110907
515.9039575821917
515.9022017869811
515.9004464255684
515.898691498063
515.8969370045747
515.8951829452128
515.8934293200864
515.8916761293049
515.8899233729776
515.8881710512135
515.886419164121
515.8846677118086
515.8829166943842
515.8811661119557
515.8794159646307
515.8776662525163
515.8759169757204
515.8741681343506
515.8724197285144
515.8706717583188
515.8689242238711
515.8671771252782
515.8654304626473
515.8636842360854
515.8619384456995
515.8601930915968
515.8584481738842
515.8567036926681
515.8549596480548
515.8532160401503
515.8514728690604
515.8497301348909
515.8479878377473
515.846245977735
515.8445045549595
515.8427635695264
515.8410230215407
515.8392829111076
515.8375432383323
515.8358040033197
515.834065206175
515.8323268470033
515.8305889259098
515.8288514429989
515.8271143983757
515.8253777921445
515.8236416244101
515.821905895277
515.8201706048496
515.818435753232
515.8167013405282
515.814967366842
515.8132338322769
515.8115007369363
515.8097680809237
515.8080358643422
515.8063040872946
515.8045727498836
515.8028418522119
515.8011113943819
515.7993813764958
515.797651798656
515.7959226609646
515.7941939635241
515.7924657064368
515.7907378898051
515.7890105137315
515.7872835783185
515.7855570836684
515.7838310298832
515.7821054170647
515.7803802453147
515.7786555147356
515.77693122543
515.7752073775002
515.773483971049
515.7717610061788
515.770038482992
515.7683164015909
515.7665947620781
515.764873564556
515.763152809127
515.7614324958934
515.759712624957
515.7579931964199
515.7562742103835
515.7545556669493
515.7528375662184
515.7511199082926
515.7494026932734
515.7476859212622
515.7459695923606
515.7442537066695
515.7425382642898
515.7408232653222
515.7391087098677
515.7373945980269
515.7356809299006
515.73396770559
515.7322549251962
515.7305425888205
515.7288306965638
515.7271192485271
515.725408244811
515.7236976855163
515.7219875707435
515.7202779005931
515.7185686751657
515.7168598945614
515.7151515588805
515.7134436682234
515.71173622269
515.7100292223804
515.7083226673947
515.7066165578328
515.7049108937952
515.7032056753817
515.701500902692
515.699796575826
515.6980926948834
515.696389259964
515.6946862711682
515.6929837285961
515.6912816323481
515.689579982525
515.687878779227
515.6861780225552
515.68447771261
515.6827778494924
515.6810784333031
515.6793794641428
515.6776809421121
515.6759828673116
515.6742852398418
515.6725880598028
515.6708913272948
515.6691950424176
515.6674992052715
515.6658038159569
515.6641088745746
515.6624143812251
515.6607203360088
515.6590267390268
515.6573335903802
515.6556408901699
515.653948638497
515.6522568354619
515.6505654811654
515.6488745757081
515.6471841191908
515.6454941117142
515.6438045533791
515.6421154442862
515.6404267845357
515.638738574228
515.6370508134632
515.6353635023418
515.6336766409636
515.6319902294288
515.6303042678371
515.6286187562885
515.6269336948828
515.6252490837198
515.6235649228995
515.6218812125214
515.6201979526854
515.6185151434913
515.6168327850389
515.615150877428
515.6134694207583
515.6117884151288
515.6101078606384
515.6084277573862
515.6067481054708
515.605068904991
515.603390156045
515.6017118587308
515.6000340131466
515.5983566193897
515.5966796775579
515.5950031877485
515.5933271500592
515.5916515645874
515.5899764314311
515.5883017506874
515.5866275224537
515.5849537468268
515.583280423904
515.5816075537823
515.5799351365592
515.5782631723325
515.5765916611997
515.5749206032585
515.5732499986068
515.5715798473423
515.5699101495622
515.5682409053641
515.566572114845
515.5649037781025
515.5632358952337
515.5615684663355
515.5599014915049
515.5582349708386
515.5565689044336
515.5549032923866
515.5532381347941
515.5515734317523
515.5499091833576
515.5482453897064
515.5465820508948
515.5449191670191
515.5432567381749
515.5415947644578
515.5399332459626
515.5382721827834
515.5366115750144
515.5349514227494
515.5332917260823
515.5316324851071
515.5299736999175
515.5283153706071
515.5266574972693
515.5250000799979
515.5233431188865
515.5216866140288
515.5200305655185
515.5183749734495
515.5167198379154
515.5150651590095
515.513410936825
515.5117571714547
515.5101038629916
515.5084510115287
515.5067986171587
515.5051466799744
515.5034952000683
515.501844177533
515.5001936124606
515.4985435049432
515.4968938550726
515.4952446629406
515.4935959286395
515.4919476522612
515.4902998338973
515.4886524736391
515.4870055715776
515.4853591278036
515.4837131424081
515.482067615482
515.4804225471164
515.4787779374021
515.4771337864297
515.4754900942896
515.4738468610719
515.4722040868662
515.470561771762
515.4689199158486
515.4672785192149
515.4656375819497
515.4639971041413
515.4623570858778
515.460717527247
515.4590784283366
515.4574397892343
515.4558016100273
515.4541638908026
515.4525266316471
515.4508898326469
515.4492534938886
515.4476176154583
515.4459821974422
515.444347239926
515.4427127429951
515.4410787067352
515.4394451312317
515.4378120165698
515.436179362835
515.4345471701129
515.4329154384889
515.4312841680483
515.4296533588761
515.4280230110569
515.4263931246758
515.4247636998173
515.4231347365658
515.4215062350054
515.41987819522
515.4182506172933
515.4166235013088
515.4149968473496
515.4133706554987
515.4117449258395
515.410119658455
515.4084948534285
515.4068705108432
515.4052466307821
515.4036232133278
515.4020002585628
515.4003777665694
515.3987557374298
515.3971341712261
515.3955130680395
515.3938924279512
515.3922722510422
515.3906525373934
515.3890332870858
515.3874145002003
515.3857961768176
515.3841783170187
515.3825609208845
515.3809439884958
515.3793275199332
515.3777115152773
515.3760959746085
515.374480898007
515.3728662855531
515.371252137327
515.3696384534094
515.3680252338802
515.3664124788195
515.3648001883073
515.3631883624237
515.3615770012482
515.3599661048604
515.3583556733399
515.3567457067663
515.3551362052194
515.353527168779
515.3519185975249
515.3503104915369
515.3487028508941
515.3470956756753
515.3454889659586
515.3438827218217
515.3422769433425
515.3406716305988
515.3390667836682
515.337462402628
515.3358584875559
515.3342550385289
515.3326520556236
515.3310495389162
515.3294474884826
515.3278459043986
515.3262447867396
515.3246441355811
515.3230439509989
515.3214442330686
515.3198449818658
515.3182461974659
515.3166478799446
515.3150500293773
515.3134526458391
515.3118557294049
515.310259280149
515.3086632981451
515.3070677834664
515.3054727361864
515.3038781563785
515.3022840441163
515.3006903994731
515.2990972225218
515.2975045133353
515.295912271986
515.2943204985465
515.2927291930889
515.2911383556855
515.289547986408
515.2879580853289
515.2863686525204
515.2847796880551
515.2831911920052
515.2816031644431
515.2800156054407
515.2784285150694
515.2768418934013
515.2752557405086
515.2736700564637
515.2720848413392
515.2705000952071
515.2689158181399
515.2673320102099
515.2657486714895
515.2641658020516
515.2625834019691
515.261001471315
515.2594200101623
515.2578390185843
515.2562584966538
515.2546784444437
515.2530988620265
515.2515197494747
515.2499411068609
515.2483629342576
515.2467852317375
515.2452079993734
515.2436312372381
515.2420549454043
515.2404791239446
515.2389037729313
515.2373288924364
515.2357544825318
515.2341805432895
515.2326070747815
515.2310340770794
515.2294615502544
515.2278894943779
515.226317909521
515.2247467957545
515.2231761531493
515.2216059817758
515.2200362817046
515.2184670530057
515.2168982957494
515.2153300100053
515.2137621958434
515.2121948533334
515.210627982545
515.2090615835484
515.2074956564134
515.2059302012099
515.2043652180075
515.2028007068759
515.2012366678844
515.1996731011022
515.1981100065989
515.1965473844432
515.1949852347034
515.1934235574474
515.1918623527433
515.190301620659
515.1887413612628
515.1871815746226
515.1856222608064
515.1840634198822
515.182505051918
515.1809471569816
515.1793897351408
515.1778327864636
515.1762763110175
515.1747203088705
515.17316478009
515.1716097247438
515.1700551428996
515.1685010346253
515.1669473999884
515.1653942390569
515.1638415518985
515.1622893385804
515.16073759917
515.1591863337342
515.1576355423397
515.1560852250534
515.1545353819417
515.1529860130711
515.1514371185074
515.1498886983165
515.1483407525645
515.1467932813173
515.1452462846407
515.1436997626004
515.1421537152612
515.1406081426883
515.1390630449462
515.1375184220994
515.1359742742122
515.1344306013482
515.132887403571
515.1313446809443
515.1298024335317
515.1282606613972
515.1267193646045
515.1251785432171
515.1236381972985
515.1220983269122
515.1205589321214
515.1190200129893
515.1174815695788
515.1159436019527
515.1144061101736
515.1128690943037
515.1113325544054
515.1097964905409
515.1082609027724
515.1067257911616
515.10519115577
515.1036569966586
515.1021233138881
515.1005901075184
515.0990573776096
515.0975251242214
515.0959933474135
515.0944620472449
515.0929312237743
515.0914008770603
515.0898710071613
515.0883416141348
515.086812698039
515.0852842589313
515.0837562968688
515.0822288119084
515.0807018041071
515.0791752735224
515.0776492202117
515.0761236442324
515.0745985456422
515.0730739244984
515.0715497808585
515.0700261147795
515.0685029263184
515.0669802155323
515.0654579824784
515.0639362272134
515.0624149497937
515.0608941502758
515.0593738287159
515.0578539851706
515.0563346196961
515.054815732349
515.0532973231855
515.0517793922616
515.0502619396332
515.0487449653563
515.0472284694863
515.0457124520792
515.0441969131905
515.0426818528758
515.0411672711912
515.039653168192
515.0381395439338
515.0366263984722
515.0351137318628
515.0336015441605
515.0320898354205
515.0305786056977
515.0290678550475
515.0275575835255
515.0260477911872
515.0245384780878
515.0230296442828
515.0215212898272
515.020013414776
515.0185060191843
515.0169991031071
515.0154926665991
515.0139867097153
515.01248123251
515.0109762350378
515.0094717173531
515.0079676795106
515.0064641215652
515.0049610435713
515.0034584455832
515.0019563276553
515.000454689842
514.9989535321972
514.9974528547755
514.995952657631
514.9944529408181
514.9929537043902
514.9914549484004
514.9899566729016
514.9884588779464
514.9869615635871
514.985464729876
514.9839683768653
514.9824725046071
514.9809771131538
514.9794822025574
514.9779877728699
514.9764938241437
514.9750003564311
514.9735073697839
514.9720148642539
514.9705228398927
514.9690312967521
514.9675402348832
514.9660496543377
514.9645595551667
514.9630699374213
514.9615808011526
514.9600921464121
514.958603973251
514.9571162817208
514.9556290718731
514.9541423437597
514.952656097432
514.9511703329415
514.949685050339
514.9482002496754
514.9467159310018
514.9452320943687
514.9437487398266
514.9422658674255
514.9407834772157
514.9393015692469
514.9378201435682
514.9363392002285
514.9348587392769
514.9333787607618
514.931899264732
514.930420251236
514.928941720322
514.9274636720377
514.9259861064304
514.924509023547
514.9230324234336
514.9215563061359
514.9200806716997
514.9186055201706
514.917130851594
514.9156566660156
514.9141829634809
514.9127097440353
514.9112370077239
514.9097647545916
514.9082929846829
514.9068216980424
514.9053508947147
514.9038805747441
514.9024107381751
514.9009413850522
514.8994725154198
514.8980041293225
514.8965362268048
514.8950688079112
514.8936018726865
514.892135421175
514.890669453421
514.889203969469
514.8877389693632
514.8862744531477
514.8848104208666
514.8833468725641
514.8818838082841
514.8804212280706
514.8789591319671
514.877497520017
514.8760363922636
514.8745757487502
514.87311558952
514.8716559146158
514.8701967240802
514.868738017956
514.8672797962856
514.8658220591115
514.864364806476
514.8629080384214
514.8614517549895
514.8599959562223
514.8585406421614
514.8570858128478
514.8556314683226
514.8541776086267
514.8527242338007
514.8512713438847
514.849818938919
514.8483670189437
514.8469155839982
514.8454646341227
514.8440141693568
514.8425641897404
514.8411146953131
514.8396656861141
514.8382171621827
514.8367691235576
514.835321570278
514.8338745023827
514.8324279199107
514.8309818229006
514.8295362113909
514.8280910854198
514.826646445026
514.8252022902477
514.8237586211237
514.8223154376926
514.8208727399926
514.8194305280624
514.8179888019401
514.816547561664
514.8151068072723
514.8136665388031
514.8122267562942
514.8107874597831
514.8093486493074
514.8079103249047
514.8064724866124
514.8050351344675
514.8035982685069
514.8021618887676
514.8007259952867
514.7992905881013
514.7978556672481
514.796421232764
514.7949872846855
514.7935538230486
514.7921208478895
514.7906883592439
514.7892563571475
514.7878248416362
514.7863938127457
514.7849632705118
514.78353321497
514.7821036461562
514.780674564106
514.7792459688549
514.7778178604383
514.7763902388917
514.7749631042507
514.7735364565503
514.7721102958258
514.7706846221115
514.7692594354421
514.7678347358521
514.766410523376
514.7649867980476
514.7635635599011
514.7621408089701
514.7607185452882
514.7592967688886
514.7578754798044
514.7564546780693
514.7550343637172
514.7536145367815
514.7521951972956
514.7507763452927
514.7493579808056
514.7479401038672
514.7465227145103
514.7451058127679
514.743689398673
514.7422734722586
514.7408580335575
514.7394430826027
514.7380286194268
514.736614644062
514.7352011565401
514.7337881568931
514.7323756451522
514.7309636213488
514.7295520855139
514.7281410376777
514.7267304778704
514.7253204061219
514.7239108224617
514.7225017269191
514.7210931195232
514.7196850003031
514.7182773692882
514.7168702265076
514.7154635719901
514.7140574057646
514.71265172786
514.7112465383052
514.709841837129
514.7084376243599
514.7070339000261
514.7056306641555
514.7042279167758
514.7028256579149
514.7014238876002
514.7000226058587
514.6986218127174
514.697221508203
514.695821692342
514.6944223651606
514.6930235266852
514.6916251769421
514.6902273159569
514.6888299437549
514.687433060361
514.6860366658
514.6846407600963
514.6832453432739
514.6818504153568
514.6804559763689
514.6790620263339
514.6776685652756
514.676275593217
514.6748831101816
514.6734911161923
514.6720996112722
514.6707085954442
514.6693180687314
514.6679280311566
514.6665384827427
514.6651494235118
514.6637608534863
514.6623727726885
514.6609851811406
514.6595980788647
514.6582114658825
514.6568253422149
514.6554397078828
514.6540545629066
514.6526699073063
514.6512857411014
514.6499020643118
514.6485188769573
514.6471361790573
514.6457539706312
514.6443722516979
514.6429910222757
514.641610282383
514.6402300320378
514.6388502712582
514.6374710000616
514.6360922184658
514.6347139264883
514.6333361241466
514.6319588114582
514.6305819884403
514.6292056551101
514.6278298114846
514.6264544575808
514.6250795934159
514.6237052190068
514.6223313343701
514.6209579395224
514.61958503448
514.6182126192587
514.6168406938741
514.6154692583425
514.6140983126802
514.6127278569036
514.6113578910288
514.6099884150717
514.6086194290476
514.6072509329717
514.6058829268595
514.6045154107267
514.6031483845888
514.6017818484618
514.6004158023607
514.5990502463012
514.5976851802991
514.59632060437
514.5949565185294
514.5935929227924
514.5922298171738
514.5908672016885
514.5895050763513
514.5881434411765
514.5867822961784
514.5854216413707
514.5840614767669
514.5827018023806
514.5813426182249
514.5799839243125
514.5786257206562
514.5772680072685
514.5759107841616
514.5745540513478
514.5731978088393
514.5718420566475
514.5704867947841
514.5691320232606
514.5677777420888
514.5664239512803
514.5650706508466
514.5637178407994
514.56236552115
514.5610136919095
514.5596623530885
514.5583115046973
514.5569611467458
514.555611279244
514.5542619022008
514.5529130156249
514.5515646195247
514.5502167139084
514.548869298784
514.5475223741594
514.5461759400425
514.5448299964412
514.5434845433626
514.5421395808144
514.5407951088039
514.5394511273387
514.5381076364258
514.5367646360721
514.5354221262844
514.534080107069
514.5327385784328
514.5313975403826
514.5300569929252
514.5287169360672
514.527377369815
514.5260382941754
514.5246997091556
514.5233616147632
514.5220240110057
514.5206868978901
514.519350275423
514.518014143611
514.5166785024605
514.5153433519779
514.514008692169
514.5126745230398
514.5113408445961
514.510007656844
514.5086749597892
514.5073427534378
514.5060110377956
514.5046798128683
514.5033490786618
514.5020188351818
514.5006890824341
514.4993598204244
514.4980310491585
514.4967027686416
514.4953749788785
514.4940476798738
514.4927208716317
514.4913945541564
514.4900687274519
514.4887433915219
514.4874185463698
514.486094191999
514.4847703284129
514.4834469556147
514.4821240736076
514.4808016823947
514.4794797819793
514.4781583723645
514.4768374535536
514.4755170255496
514.4741970883558
514.4728776419754
514.4715586864118
514.4702402216681
514.4689222477475
514.4676047646533
514.4662877723883
514.4649712709559
514.4636552603586
514.4623397405992
514.4610247116805
514.4597101736056
514.4583961263777
514.4570825699996
514.4557695044737
514.4544569298021
514.4531448459868
514.4518332530299
514.4505221509337
514.4492115397004
514.4479014193323
514.4465917898317
514.4452826512011
514.4439740034427
514.4426658465584
514.4413581805495
514.4400510054172
514.4387443211626
514.4374381277867
514.4361324252898
514.434827213672
514.4335224929334
514.4322182630742
514.4309145240936
514.429611275991
514.4283085187656
514.4270062524165
514.4257044769431
514.4244031923447
514.4231023986204
514.4218020957694
514.4205022837907
514.4192029626831
514.4179041324453
514.4166057930756
514.4153079445721
514.414010586933
514.412713720157
514.411417344242
514.4101214591863
514.408826064988
514.4075311616455
514.4062367491567
514.4049428275196
514.4036493967312
514.402356456789
514.4010640076899
514.399772049431
514.3984805820089
514.3971896054197
514.3958991196591
514.394609124723
514.3933196206074
514.392030607308
514.3907420848209
514.3894540531417
514.388166512266
514.3868794621901
514.3855929029103
514.3843068344229
514.3830212567243
514.3817361698109
514.380451573679
514.379167468325
514.3778838537448
514.3766007299348
514.3753180968913
514.3740359546107
514.3727543030889
514.3714731423213
514.3701924723034
514.3689122930307
514.367632604499
514.3663534067043
514.3650746996425
514.3637964833094
514.3625187577011
514.3612415228133
514.3599647786416
514.3586885251812
514.3574127624272
514.3561374903745
514.3548627090179
514.3535884183518
514.3523146183704
514.3510413090678
514.349768490438
514.3484961624754
514.3472243251745
514.3459529785298
514.3446821225361
514.3434117571883
514.3421418824805
514.340872498407
514.3396036049612
514.3383352021372
514.3370672899289
514.3357998683302
514.3345329373344
514.3332664969346
514.3320005471239
514.3307350878956
514.3294701192428
514.3282056411588
514.3269416536361
514.3256781566674
514.3244151502447
514.32315263436
514.3218906090051
514.3206290741716
514.3193680298511
514.3181074760353
514.3168474127153
514.3155878398827
514.3143287575288
514.3130701656446
514.3118120642214
514.3105544532502
514.3092973327225
514.3080407026293
514.3067845629619
514.3055289137112
514.3042737548681
514.3030190864231
514.3017649083665
514.3005112206881
514.2992580233772
514.2980053164226
514.2967530998133
514.2955013735384
514.2942501375874
514.2929993919488
514.2917491366111
514.2904993715626
514.2892500967916
514.2880013122858
514.2867530180331
514.2855052140214
514.2842579002388
514.2830110766733
514.2817647433128
514.2805189001449
514.2792735471573
514.2780286843374
514.2767843116724
514.2755404291495
514.274297036756
514.2730541344795
514.2718117223073
514.2705698002271
514.2693283682258
514.2680874262908
514.2668469744087
514.2656070125668
514.2643675407519
514.2631285589512
514.2618900671519
514.260652065341
514.2594145535056
514.2581775316323
514.2569409997077
514.2557049577183
514.2544694056508
514.2532343434916
514.2519997712272
514.250765688844
514.2495320963278
514.2482989936645
514.2470663808401
514.24583425784
514.2446026246498
514.2433714812553
514.2421408276421
514.2409106637958
514.2396809897023
514.2384518053466
514.2372231107136
514.2359949057877
514.2347671905536
514.2335399649955
514.2323132290974
514.2310869828427
514.2298612262155
514.2286359591992
514.2274111817776
514.226186893934
514.2249630956519
514.2237397869146
514.2225169677056
514.221294638008
514.220072797805
514.2188514470802
514.2176305858175
514.2164102140005
514.215190331613
514.2139709386386
514.2127520350602
514.211533620861
514.2103156960238
514.2090982605316
514.2078813143673
514.2066648575135
514.2054488899523
514.2042334116661
514.2030184226371
514.2018039228476
514.2005899122798
514.1993763909161
514.1981633587386
514.196950815729
514.1957387618688
514.1945271971401
514.1933161215254
514.1921055350069
514.190895437567
514.1896858291877
514.1884767098516
514.1872680795407
514.1860599382369
514.1848522859218
514.1836451225765
514.182438448182
514.1812322627195
514.1800265661702
514.1788213585155
514.1776166397365
514.1764124098142
514.17520866873
514.1740054164648
514.1728026529993
514.1716003783138
514.1703985923884
514.1691972952033
514.1679964867387
514.1667961669757
514.1655963358951
514.1643969934778
514.1631981397047
514.1619997745568
514.1608018980148
514.1596045100596
514.1584076106719
514.1572111998328
514.156015277523
514.1548198437238
514.1536248984162
514.1524304415809
514.1512364731991
514.1500429932519
514.1488500017199
514.1476574985838
514.1464654838244
514.1452739574222
514.144082919358
514.1428923696126
514.1417023081669
514.1405127350017
514.1393236500976
514.1381350534352
514.1369469449949
514.1357593247565
514.1345721927
514.1333855488058
514.132199393054
514.1310137254247
514.1298285458981
514.1286438544541
514.1274596510727
514.1262759357339
514.1250927084175
514.1239099691036
514.1227277177725
514.1215459544044
514.1203646789791
514.1191838914763
514.1180035918753
514.1168237801553
514.1156444562951
514.1144656202728
514.1132872720666
514.112109411655
514.110932039016
514.1097551541284
514.1085787569712
514.1074028475234
514.1062274257645
514.1050524916734
514.1038780452291
514.1027040864096
514.101530615193
514.1003576315572
514.0991851354804
514.0980131269409
514.0968416059175
514.0956705723886
514.0945000263332
514.0933299677304
514.0921603965592
514.0909913127987
514.0898227164282
514.0886546074269
514.0874869857737
514.0863198514478
514.0851532044283
514.0839870446937
514.082821372223
514.0816561869954
514.0804914889902
514.0793272781864
514.0781635545625
514.0770003180974
514.0758375687699
514.0746753065589
514.0735135314433
514.0723522434016
514.0711914424126
514.0700311284552
514.0688713015086
514.0677119615518
514.066553108564
514.0653947425237
514.0642368634092
514.0630794711983
514.061922565869
514.0607661473991
514.0596102157663
514.058454770948
514.0572998129217
514.0561453416647
514.0549913571544
514.0538378593685
514.0526848482846
514.0515323238806
514.0503802861342
514.0492287350235
514.048077670526
514.0469270926194
514.0457770012811
514.0446273964883
514.0434782782181
514.0423296464478
514.0411815011544
514.0400338423149
514.0388866699057
514.0377399839033
514.0365937842846
514.0354480710259
514.0343028441041
514.0331581034955
514.0320138491759
514.0308700811213
514.0297267993071
514.0285840037088
514.0274416943018
514.0262998710616
514.0251585339636
514.0240176829836
514.0228773180972
514.0217374392803
514.0205980465087
514.0194591397583
514.0183207190048
514.0171827842239
514.0160453353908
514.0149083724805
514.0137718954677
514.0126359043275
514.0115003990347
514.0103653795643
514.0092308458909
514.0080967979891
514.0069632358332
514.0058301593974
514.0046975686562
514.0035654635838
514.0024338441544
514.0013027103423
514.0001720621215
513.9990418994655
513.9979122223483
513.9967830307439
513.9956543246265
513.9945261039702
513.9933983687495
513.9922711189381
513.99114435451
513.9900180754394
513.9888922817006
513.9877669732675
513.9866421501142
513.9855178122145
513.9843939595423
513.9832705920712
513.9821477097746
513.9810253126261
513.9799034005994
513.9787819736675
513.9776610318033
513.9765405749795
513.9754206031687
513.9743011163432
513.9731821144749
513.9720635975357
513.9709455654977
513.9698280183331
513.9687109560143
513.9675943785128
513.9664782858001
513.9653626778475
513.9642475546264
513.9631329161082
513.9620187622643
513.960905093066
513.9597919084845
513.9586792084913
513.9575669930584
513.956455262158
513.9553440157622
513.9542332538433
513.9531229763736
513.9520131833256
513.9509038746717
513.9497950503842
513.9486867104354
513.9475788547973
513.9464714834419
513.945364596341
513.9442581934663
513.9431522747889
513.94204684028
513.9409418899113
513.9398374236541
513.9387334414798
513.93762994336
513.9365269292664
513.9354243991706
513.9343223530443
513.933220790859
513.932119712586
513.9310191181967
513.9299190076624
513.9288193809546
513.9277202380445
513.9266215789032
513.9255234035015
513.9244257118096
513.9233285037974
513.9222317794345
513.9211355386904
513.9200397815346
513.9189445079362
513.9178497178639
513.9167554112857
513.91566158817
513.9145682484848
513.9134753921983
513.9123830192786
513.9112911296938
513.9101997234118
513.9091088004004
513.9080183606281
513.9069284040631
513.9058389306733
513.9047499404267
513.9036614332911
513.902573409234
513.9014858682233
513.9003988102265
513.8993122352113
513.8982261431445
513.8971405339933
513.8960554077246
513.8949707643053
513.8938866037022
513.892802925882
513.8917197308122
513.8906370184593
513.8895547887901
513.8884730417712
513.8873917773692
513.8863109955503
513.8852306962806
513.8841508795267
513.8830715452552
513.8819926934327
513.8809143240264
513.8798364370041
513.8787590323334
513.8776821099823
513.8766056699185
513.8755297121097
513.8744542365237
513.8733792431283
513.8723047318913
513.8712307027804
513.8701571557635
513.8690840908087
513.8680115078837
513.8669394069568
513.8658677879962
513.86479665097
513.8637259958466
513.8626558225944
513.8615861311816
513.8605169215759
513.859448193745
513.8583799476567
513.8573121832785
513.8562449005781
513.8551780995224
513.8541117800785
513.8530459422134
513.8519805858939
513.8509157110873
513.8498513177612
513.8487874058835
513.8477239754216
513.8466610263429
513.8455985586149
513.8445365722048
513.8434750670792
513.842414043205
513.8413535005495
513.8402934390801
513.8392338587641
513.8381747595688
513.8371161414614
513.8360580044091
513.8350003483793
513.8339431733393
513.8328864792572
513.8318302661007
513.8307745338377
513.8297192824364
513.8286645118646
513.8276102220905
513.826556413082
513.825503084807
513.8244502372331
513.8233978703277
513.8223459840576
513.82129457839
513.8202436532924
513.8191932087327
513.8181432446793
513.8170937611005
513.8160447579651
513.8149962352416
513.8139481928986
513.8129006309048
513.8118535492283
513.8108069478374
513.8097608267001
513.8087151857846
513.8076700250588
513.8066253444902
513.8055811440463
513.8045374236947
513.8034941834028
513.8024514231377
513.8014091428665
513.8003673425567
513.7993260221756
513.7982851816907
513.7972448210696
513.7962049402797
513.7951655392885
513.7941266180637
513.7930881765733
513.7920502147856
513.7910127326693
513.7899757301927
513.7889392073241
513.7879031640316
513.7868676002834
513.785832516048
513.7847979112946
513.783763785992
513.7827301401092
513.781696973615
513.7806642864789
513.7796320786699
513.7786003501574
513.7775691009103
513.7765383308981
513.7755080400902
513.7744782284562
513.7734488959657
513.772420042588
513.7713916682933
513.7703637730515
513.7693363568326
513.7683094196066
513.7672829613434
513.7662569820129
513.765231481585
513.7642064600293
513.763181917315
513.7621578534115
513.7611342682881
513.760111161914
513.7590885342586
513.7580663852912
513.7570447149812
513.7560235232986
513.755002810213
513.7539825756942
513.7529628197119
513.7519435422362
513.7509247432365
513.7499064226829
513.7488885805453
513.7478712167936
513.7468543313973
513.7458379243269
513.7448219955525
513.7438065450444
513.7427915727728
513.7417770787081
513.7407630628206
513.7397495250812
513.7387364654605
513.7377238839301
513.7367117804615
513.7357001550265
513.7346890075971
513.7336783381454
513.7326681466436
513.731658433064
513.7306491973791
513.7296404395613
513.7286321595832
513.7276243574174
513.726617033037
513.7256101864148
513.7246038175238
513.7235979263371
513.7225925128282
513.7215875769707
513.7205831187382
513.7195791381043
513.7185756350425
513.7175726095263
513.7165700615294
513.7155679910254
513.7145663979884
513.7135652823929
513.7125646442134
513.7115644834246
513.7105648000008
513.7095655939168
513.7085668651468
513.7075686136659
513.7065708394487
513.7055735424701
513.7045767227053
513.7035803801293
513.702584514717
513.701589126443
513.7005942152816
513.6995997812076
513.6986058241953
513.6976123442189
513.6966193412527
513.6956268152715
513.6946347662497
513.693643194162
513.6926520989825
513.6916614806853
513.6906713392439
513.6896816746319
513.6886924868224
513.6877037757888
513.6867155415036
513.6857277839397
513.6847405030701
513.683753698868
513.6827673713074
513.6817815203622
513.6807961460065
513.6798112482145
513.6788268269604
513.6778428822183
513.6768594139628
513.6758764221684
513.6748939068095
513.6739118678611
513.6729303052975
513.6719492190934
513.6709686092236
513.6699884756629
513.6690088183866
513.66802963737
513.6670509325884
513.666072704018
513.665094951635
513.6641176754154
513.6631408753353
513.662164551371
513.661188703499
513.6602133316958
513.659238435938
513.6582640162026
513.6572900724661
513.6563166047056
513.6553436128982
513.6543710970211
513.653399057052
513.6524274929682
513.6514564047477
513.6504857923687
513.6495156558094
513.6485459950479
513.6475768100629
513.6466081008332
513.6456398673379
513.6446721095558
513.6437048274656
513.642738021046
513.6417716902754
513.6408058351328
513.6398404555973
513.638875551648
513.6379111232643
513.6369471704259
513.6359836931122
513.6350206913028
513.6340581649772
513.6330961141152
513.6321345386966
513.6311734387007
513.6302128141069
513.6292526648951
513.6282929910446
513.6273337925345
513.6263750693436
513.6254168214512
513.624459048837
513.6235017514814
513.6225449293645
513.6215885824661
513.6206327107657
513.6196773142428
513.6187223928773
513.6177679466493
513.6168139755389
513.6158604795257
513.6149074585896
513.6139549127101
513.6130028418665
513.6120512460384
513.611100125205
513.6101494793459
513.6091993084403
513.6082496124675
513.6073003914064
513.6063516452361
513.6054033739354
513.6044555774827
513.6035082558565
513.6025614090352
513.6016150369971
513.6006691397208
513.5997237171848
513.5987787693678
513.5978342962483
513.5968902978054
513.5959467740183
513.595003724866
513.5940611503277
513.5931190503825
513.5921774250098
513.5912362741894
513.5902955979009
513.5893553961239
513.5884156688385
513.5874764160251
513.5865376376639
513.585599333735
513.5846615042185
513.5837241490951
513.5827872683456
513.5818508619502
513.5809149298896
513.5799794721445
513.5790444886954
513.5781099795227
513.5771759446063
513.5762423839267
513.5753092974642
513.5743766851992
513.5734445471126
513.5725128831848
513.5715816933969
513.5706509777299
513.569720736165
513.5687909686837
513.5678616752677
513.5669328558986
513.5660045105583
513.5650766392289
513.5641492418924
513.563222318531
513.5622958691265
513.5613698936615
513.5604443921186
513.5595193644801
513.5585948107289
513.5576707308473
513.556747124818
513.5558239926233
513.5549013342461
513.5539791496692
513.5530574388752
513.5521362018469
513.5512154385676
513.5502951490207
513.5493753331896
513.5484559910578
513.5475371226094
513.546618727828
513.5457008066976
513.5447833592018
513.543866385324
513.5429498850474
513.5420338583556
513.541118305232
513.5402032256602
513.5392886196241
513.5383744871076
513.5374608280947
513.5365476425693
513.5356349305155
513.5347226919173
513.5338109267589
513.5328996350245
513.5319888166985
513.5310784717651
513.5301686002088
513.5292592020135
513.5283502771633
513.5274418256424
513.5265338474351
513.525626342526
513.5247193109001
513.5238127525422
513.5229066674372
513.5220010555697
513.5210959169251
513.5201912514888
513.5192870592462
513.5183833401827
513.5174800942839
513.5165773215356
513.5156750219237
513.5147731954346
513.5138718420546
513.5129709617704
513.512070554568
513.5111706204341
513.5102711593556
513.5093721713195
513.5084736563124
513.5075756143217
513.5066780453346
513.505780949338
513.5048843263189
513.5039881762643
513.5030924991609
513.5021972949951
513.501302563754
513.500408305425
513.499514519995
513.4986212074512
513.4977283677806
513.4968360009705
513.4959441070077
513.4950526858797
513.4941617375737
513.4932712620769
513.4923812593765
513.4914917294598
513.4906026723138
513.4897140879259
513.4888259762834
513.4879383373734
513.4870511711831
513.4861644776993
513.4852782569087
513.4843925087982
513.4835072333547
513.4826224305646
513.4817381004148
513.4808542428918
513.4799708579824
513.4790879456732
513.4782055059516
513.477323538805
513.4764420442204
513.475561022185
513.4746804726858
513.4738003957093
513.4729207912421
513.4720416592711
513.471162999783
513.4702848127647
513.4694070982034
513.4685298560867
513.4676530864017
513.4667767891358
513.4659009642762
513.4650256118107
513.4641507317272
513.4632763240133
513.462402388657
513.4615289256456
513.4606559349666
513.4597834166077
513.4589113705572
513.4580397968036
513.4571686953361
513.4562980661437
513.455427909216
513.454558224543
513.4536890121146
513.4528202719212
513.4519520039528
513.4510842082
513.4502168846532
513.4493500333028
513.4484836541396
513.447617747154
513.4467523123365
513.4458873496776
513.4450228591681
513.4441588407988
513.4432952945597
513.4424322204411
513.441569618433
513.440707488526
513.4398458307103
513.4389846449767
513.4381239313163
513.4372636897208
513.4364039201816
513.4355446226903
513.4346857972375
513.4338274438144
513.4329695624122
513.4321121530222
513.4312552156359
513.4303987502446
513.4295427568402
513.4286872354148
513.4278321859608
513.4269776084705
513.4261235029362
513.4252698693504
513.4244167077052
513.4235640179929
513.4227118002061
513.4218600543375
513.4210087803795
513.4201579783246
513.4193076481654
513.4184577898943
513.4176084035039
513.416759488987
513.4159110463368
513.4150630755457
513.4142155766069
513.4133685495135
513.4125219942587
513.4116759108356
513.4108302992374
513.4099851594576
513.40914049149
513.4082962953287
513.4074525709682
513.4066093184031
513.4057665376279
513.4049242286376
513.4040823914272
513.4032410259922
513.402400132328
513.4015597104301
513.4007197602941
513.3998802819162
513.3990412752926
513.3982027404193
513.3973646772922
513.3965270859076
513.3956899662614
513.39485331835
513.3940171421698
513.3931814377177
513.3923462049904
513.3915114439856
513.3906771547006
513.389843337133
513.3890099912808
513.388177117142
513.3873447147148
513.3865127839974
513.3856813249884
513.3848503376862
513.3840198220896
513.3831897781972
513.3823602060077
513.3815311055198
513.3807024767327
513.3798743196455
513.3790466342568
513.3782194205658
513.3773926785709
513.376566408271
513.3757406096643
513.3749152827495
513.3740904275253
513.3732660439907
513.3724421321451
513.3716186919876
513.3707957235167
513.3699732267312
513.3691512016296
513.3683296482106
513.3675085664729
513.3666879564146
513.3658678180338
513.3650481513289
513.3642289562983
513.3634102329409
513.3625919812555
513.3617742012409
513.360956892896
513.3601400562195
513.3593236912109
513.3585077978694
513.3576923761941
513.3568774261844
513.3560629478391
513.355248941157
513.3544354061371
513.3536223427784
513.35280975108
513.3519976310411
513.3511859826608
513.3503748059386
513.349564100874
513.3487538674669
513.3479441057179
513.3471348156277
513.346325997197
513.3455176504269
513.3447097753187
513.3439023718736
513.3430954400926
513.3422889799774
513.3414829915298
513.3406774747518
513.3398724296455
513.339067856213
513.3382637544562
513.3374601243777
513.3366569659804
513.3358542792678
513.3350520642432
513.3342503209103
513.333449049273
513.3326482493346
513.3318479210986
513.3310480645684
513.3302486797477
513.3294497666402
513.3286513252499
513.327853355581
513.327055857638
513.3262588314253
513.325462276948
513.3246661942112
513.3238705832209
513.3230754439833
513.3222807765044
513.3214865807902
513.320692856847
513.3198996046815
513.3191068243002
513.3183145157102
513.3175226789187
513.3167313139331
513.3159404207606
513.3151499994085
513.3143600498845
513.3135705721968
513.3127815663538
513.311993032364
513.3112049702356
513.3104173799773
513.3096302615975
513.3088436151049
513.3080574405085
513.3072717378172
513.3064865070412
513.3057017481906
513.3049174612761
513.3041336463089
513.3033503033002
513.3025674322616
513.3017850332039
513.3010031061376
513.3002216510727
513.2994406680191
513.2986601569869
513.2978801179856
513.2971005510244
513.2963214561123
513.295542833258
513.29476468247
513.2939870037574
513.2932097971286
513.2924330625922
513.291656800156
513.2908810098284
513.2901056916171
513.28933084553
513.2885564715748
513.2877825697597
513.2870091400928
513.2862361825821
513.2854636972356
513.2846916840608
513.283920143065
513.2831490742556
513.2823784776399
513.2816083532252
513.2808387010184
513.2800695210265
513.2793008132562
513.2785325777145
513.2777648144083
513.2769975233448
513.2762307045309
513.2754643579733
513.2746984836785
513.273933081653
513.2731681519033
513.2724036944355
513.2716397092554
513.2708761963686
513.2701131557806
513.2693505874965
513.2685884915218
513.2678268678612
513.2670657165199
513.2663050375027
513.2655448308142
513.264785096459
513.264025834442
513.2632670447676
513.2625087274405
513.2617508824651
513.2609935098458
513.2602366095871
513.2594801816936
513.2587242261698
513.2579687430205
513.25721373225
513.2564591938622
513.2557051278609
513.2549515342503
513.2541984130344
513.2534457642178
513.252693587805
513.2519418838008
513.25119065221
513.2504398930373
513.2496896062871
513.2489397919637
513.2481904500714
513.2474415806143
513.2466931835961
513.2459452590201
513.2451978068898
513.2444508272088
513.2437043199807
513.2429582852096
513.2422127228997
513.241467633055
513.2407230156796
513.2399788707776
513.2392351983528
513.2384919984088
513.2377492709488
513.2370070159768
513.2362652334964
513.2355239235119
513.2347830860276
513.2340427210479
513.2333028285766
513.2325634086174
513.2318244611738
513.2310859862496
513.2303479838483
513.2296104539735
513.2288733966284
513.2281368118165
513.227400699541
513.2266650598053
513.2259298926126
513.2251951979663
513.2244609758695
513.2237272263258
513.2229939493386
513.222261144912
513.2215288130496
513.220796953756
513.2200655670356
513.2193346528929
513.2186042113326
513.2178742423591
513.2171447459771
513.216415722191
513.2156871710049
513.2149590924232
513.2142314864502
513.2135043530902
513.2127776923476
513.2120515042261
513.2113257887295
513.2106005458613
513.2098757756253
513.2091514780245
513.2084276530627
513.2077043007434
513.2069814210702
513.2062590140458
513.2055370796734
513.2048156179553
513.2040946288939
513.2033741124915
513.2026540687502
513.2019344976725
513.2012153992607
513.2004967735179
513.199778620447
513.1990609400514
513.1983437323347
513.1976269973002
513.1969107349507
513.1961949452893
513.1954796283189
513.1947647840427
513.1940504124641
513.1933365135865
513.1926230874133
513.1919101339479
513.1911976531937
513.1904856451542
513.1897741098328
513.1890630472326
513.1883524573564
513.1876423402066
513.1869326957863
513.1862235240985
513.1855148251466
513.1848065989341
513.1840988454646
513.1833915647419
513.1826847567697
513.1819784215518
513.1812725590917
513.1805671693933
513.1798622524607
513.179157808298
513.1784538369091
513.1777503382978
513.177047312468
513.1763447594235
513.1756426791685
513.1749410717068
513.1742399370428
513.1735392751807
513.1728390861244
513.1721393698779
513.1714401264448
513.1707413558293
513.1700430580349
513.169345233066
513.1686478809263
513.1679510016193
513.1672545951483
513.1665586615168
513.1658632007284
513.1651682127865
513.1644736976946
513.1637796554562
513.163086086075
513.162392989555
513.1617003658998
513.1610082151135
513.1603165371998
513.1596253321627
513.1589346000055
513.1582443407315
513.1575545543433
513.1568652408437
513.1561764002352
513.1554880325202
513.1548001377014
513.1541127157814
513.1534257667629
513.1527392906487
513.152053287442
513.1513677571456
513.1506826997629
513.149998115297
513.1493140037508
513.1486303651268
513.1479471994273
513.1472645066547
513.1465822868113
513.1459005398999
513.1452192659233
513.1445384648846
513.143858136787
513.1431782816339
513.1424988994283
513.1418199901732
513.1411415538714
513.1404635905265
513.1397861001412
513.139109082719
513.1384325382626
513.1377564667748
513.1370808682586
513.1364057427174
513.1357310901549
513.1350569105743
513.1343832039793
513.1337099703728
513.1330372097582
513.1323649221383
513.1316931075162
513.131021765895
513.1303508972778
513.1296805016677
513.1290105790679
513.1283411294812
513.1276721529105
513.1270036493581
513.1263356188269
513.1256680613196
513.1250009768391
513.1243343653884
513.12366822697
513.1230025615866
513.1223373692405
513.1216726499338
513.1210084036684
513.1203446304471
513.1196813302727
513.1190185031473
513.1183561490734
513.1176942680531
513.1170328600886
513.116371925182
513.1157114633356
513.1150514745518
513.1143919588326
513.1137329161797
513.1130743465951
513.1124162500812
513.1117586266405
513.1111014762755
513.1104447989887
513.1097885947827
513.1091328636599
513.108477605623
513.1078228206745
513.107168508817
513.106514670053
513.1058613043849
513.105208411815
513.1045559923455
513.1039040459784
513.1032525727164
513.102601572562
513.101951045518
513.1013009915876
513.1006514107735
513.1000023030786
513.0993536685053
513.0987055070564
513.0980578187348
513.0974106035433
513.0967638614843
513.0961175925604
513.0954717967743
513.0948264741285
513.0941816246259
513.09353724827
513.0928933450641
513.0922499150117
513.0916069581162
513.0909644743808
513.0903224638082
513.0896809264009
513.0890398621616
513.0883992710933
513.0877591531987
513.0871195084806
513.0864803369418
513.0858416385859
513.0852034134161
513.084565661436
513.083928382649
513.0832915770584
513.0826552446679
513.0820193854818
513.0813839995042
513.0807490867387
513.080114647189
513.0794806808583
513.07884718775
513.0782141678674
513.077581621214
513.076949547793
513.0763179476073
513.0756868206595
513.0750561669522
513.0744259864882
513.0737962792705
513.073167045302
513.0725382845858
513.0719099971252
513.0712821829234
513.0706548419837
513.0700279743091
513.0694015799027
513.0687756587672
513.068150210906
513.0675252363221
513.0669007350189
513.0662767069991
513.0656531522661
513.0650300708228
513.0644074626716
513.0637853278154
513.0631636662567
513.0625424779987
513.0619217630438
513.0613015213942
513.0606817530524
513.0600624580211
513.0594436363031
513.0588252879011
513.0582074128176
513.0575900110548
513.0569730826146
513.0563566274996
513.0557406457117
513.0551251372528
513.0545101021248
513.0538955403294
513.0532814518688
513.0526678367448
513.0520546949597
513.0514420265149
513.0508298314121
513.0502181096531
513.0496068612392
513.0489960861719
513.0483857844529
513.0477759560836
513.0471666010653
513.0465577193993
513.045949311087
513.0453413761302
513.0447339145301
513.0441269262878
513.0435204114051
513.0429143698839
513.042308801726
513.0417037069333
513.0410990855075
513.0404949374506
513.0398912627643
513.03928806145
513.0386853335087
513.0380830789418
513.0374812977502
513.0368799899352
513.036279155498
513.0356787944402
513.0350789067627
513.034479492467
513.0338805515544
513.0332820840263
513.0326840898842
513.0320865691303
513.0314895217666
513.0308929477951
513.0302968472176
513.0297012200365
513.0291060662539
513.0285113858722
513.0279171788939
513.0273234453211
513.0267301851559
513.0261373983999
513.025545085055
513.0249532451226
513.0243618786044
513.0237709855019
513.0231805658163
513.0225906195487
513.0220011467
513.0214121472709
513.0208236212625
513.0202355686761
513.0196479895135
513.019060883777
513.0184742514691
513.0178880925923
513.0173024071491
513.0167171951421
513.0161324565734
513.0155481914451
513.0149643997593
513.0143810815175
513.0137982367214
513.0132158653728
513.0126339674734
513.0120525430254
513.0114715920311
513.0108911144926
513.0103111104122
513.0097315797921
513.0091525226339
513.0085739389397
513.007995828711
513.0074181919499
513.0068410286581
513.0062643388376
513.0056881224905
513.0051123796188
513.0045371102242
513.0039623143084
513.0033879918733
513.0028141429207
513.0022407674528
513.001667865472
513.0010954369804
513.0005234819807
512.9999520004753
512.9993809924663
512.9988104579556
512.9982403969457
512.9976708094391
512.9971016954391
512.9965330549487
512.995964887971
512.9953971945092
512.9948299745661
512.9942632281445
512.9936969552477
512.9931311558789
512.9925658300413
512.9920009777381
512.991436598973
512.990872693749
512.9903092620696
512.9897463039383
512.9891838193589
512.9886218083348
512.9880602708695
512.987499206967
512.986938616631
512.9863784998656
512.9858188566745
512.9852596870619
512.9847009910318
512.9841427685883
512.9835850197355
512.9830277444776
512.982470942819
512.9819146147643
512.981358760318
512.9808033794848
512.9802484722693
512.9796940386761
512.9791400787099
512.978586592375
512.9780335796763
512.9774810406184
512.9769289752057
512.9763773834432
512.9758262653352
512.9752756208861
512.9747254501001
512.9741757529812
512.9736265295332
512.9730777797599
512.9725295036651
512.9719817012526
512.9714343725263
512.9708875174902
512.9703411361479
512.9697952285035
512.9692497945607
512.9687048343237
512.9681603477968
512.9676163349841
512.9670727958896
512.9665297305175
512.9659871388722
512.9654450209578
512.9649033767789
512.96436220634
512.9638215096454
512.9632812866998
512.962741537508
512.9622022620747
512.9616634604049
512.9611251325039
512.9605872783773
512.9600498980308
512.9595129914701
512.9589765587007
512.9584405997275
512.9579051145561
512.9573701031918
512.95683556564
512.9563015019057
512.9557679119939
512.9552347959093
512.9547021536564
512.9541699852398
512.9536382906645
512.9531070699354
512.9525763230577
512.9520460500362
512.9515162508765
512.950986925584
512.9504580741641
512.9499296966226
512.9494017929646
512.9488743631955
512.9483474073204
512.9478209253448
512.9472949172741
512.9467693831139
512.9462443228697
512.9457197365468
512.9451956241503
512.9446719856853
512.9441488211571
512.9436261305709
512.9431039139322
512.9425821712464
512.9420609025192
512.9415401077567
512.9410197869656
512.9404999401522
512.9399805673233
512.9394616684858
512.9389432436467
512.938425292813
512.9379078159918
512.9373908131902
512.9368742844149
512.9363582296733
512.9358426489728
512.9353275423209
512.9348129097252
512.9342987511932
512.9337850667321
512.9332718563496
512.9327591200538
512.9322468578521
512.931735069752
512.9312237557615
512.9307129158888
512.9302025501424
512.9296926585314
512.9291832410645
512.9286742977506
512.928165828599
512.9276578336192
512.9271503128202
512.9266432662112
512.9261366938008
512.9256305955978
512.9251249716112
512.9246198218507
512.9241151463261
512.9236109450476
512.9231072180253
512.9226039652694
512.9221011867905
512.9215988825993
512.9210970527065
512.9205956971236
512.9200948158621
512.9195944089333
512.9190944763491
512.9185950181209
512.9180960342605
512.9175975247799
512.9170994896913
512.9166019290069
512.9161048427391
512.9156082309
512.9151120935021
512.9146164305575
512.9141212420784
512.9136265280767
512.9131322885646
512.912638523554
512.9121452330573
512.9116524170865
512.9111600756537
512.9106682087709
512.9101768164501
512.9096858987036
512.9091954555442
512.9087054869849
512.9082159930385
512.9077269737181
512.9072384290366
512.9067503590072
512.9062627636433
512.9057756429586
512.9052889969662
512.9048028256789
512.9043171291096
512.9038319072713
512.9033471601765
512.902862887838
512.9023790902684
512.9018957674803
512.9014129194861
512.9009305462987
512.900448647931
512.8999672243963
512.8994862757081
512.8990058018803
512.898525802927
512.8980462788627
512.8975672297015
512.8970886554575
512.8966105561449
512.8961329317776
512.8956557823703
512.8951791079378
512.8947029084948
512.8942271840558
512.8937519346355
512.8932771602485
512.8928028609098
512.892329036634
512.891855687436
512.8913828133304
512.8909104143322
512.8904384904558
512.8899670417161
512.8894960681278
512.8890255697056
512.8885555464647
512.8880859984199
512.8876169255859
512.8871483279772
512.8866802056086
512.8862125584944
512.8857453866485
512.885278690085
512.8848124688179
512.8843467228619
512.8838814522314
512.8834166569409
512.8829523370046
512.8824884924366
512.882025123251
512.8815622294621
512.8810998110846
512.8806378681329
512.8801764006216
512.8797154085655
512.8792548919791
512.8787948508768
512.8783352852727
512.8778761951808
512.8774175806152
512.8769594415896
512.8765017781175
512.8760445902119
512.8755878778859
512.8751316411522
512.8746758800239
512.8742205945146
512.8737657846375
512.8733114504062
512.8728575918342
512.8724042089357
512.871951301725
512.8714988702163
512.8710469144241
512.8705954343627
512.870144430047
512.8696939014926
512.8692438487151
512.8687942717306
512.8683451705551
512.867896545205
512.8674483956968
512.8670007220476
512.8665535242747
512.8661068023948
512.8656605564247
512.8652147863809
512.8647694922797
512.8643246741376
512.8638803319709
512.8634364657964
512.8629930756308
512.8625501614906
512.8621077233925
512.8616657613529
512.8612242753886
512.8607832655159
512.8603427317512
512.8599026741108
512.8594630926113
512.8590239872701
512.8585853581044
512.8581472051314
512.8577095283686
512.8572723278332
512.856835603543
512.8563993555154
512.8559635837673
512.8555282883158
512.855093469178
512.8546591263712
512.8542252599132
512.8537918698221
512.8533589561166
512.8529265188154
512.852494557937
512.8520630735004
512.8516320655242
512.8512015340275
512.8507714790294
512.8503419005492
512.8499127986065
512.8494841732208
512.849056024412
512.8486283521997
512.8482011566036
512.8477744376432
512.8473481953379
512.8469224297073
512.8464971407714
512.8460723285498
512.8456479930626
512.8452241343298
512.8448007523714
512.8443778472079
512.8439554188599
512.8435334673486
512.8431119926954
512.8426909949217
512.8422704740492
512.8418504301001
512.8414308630963
512.8410117730605
512.840593160015
512.8401750239827
512.8397573649868
512.8393401830504
512.8389234781969
512.8385072504498
512.8380914998324
512.8376762263683
512.8372614300811
512.8368471109941
512.8364332691312
512.8360199045169
512.8356070171751
512.8351946071296
512.8347826744039
512.8343712190217
512.8339602410069
512.8335497403837
512.8331397171762
512.8327301714094
512.8323211031079
512.8319125122962
512.831504398999
512.8310967632412
512.8306896050485
512.8302829244469
512.8298767214628
512.8294709961228
512.8290657484538
512.828660978482
512.828256686234
512.8278528717362
512.8274495350154
512.827046676098
512.826644295011
512.8262423917815
512.8258409664375
512.8254400190071
512.8250395495193
512.8246395580027
512.8242400444863
512.8238410089989
512.8234424515699
512.8230443722287
512.8226467710047
512.8222496479275
512.8218530030272
512.8214568363339
512.821061147878
512.8206659376897
512.8202712057996
512.8198769522382
512.8194831770361
512.8190898802236
512.8186970618312
512.8183047218893
512.8179128604279
512.8175214774774
512.817130573068
512.8167401472301
512.8163501999945
512.8159607313924
512.8155717414543
512.815183230211
512.814795197693
512.8144076439312
512.8140205689565
512.8136339728003
512.8132478554944
512.8128622170711
512.8124770575632
512.8120923770034
512.8117081754244
512.8113244528593
512.8109412093411
512.8105584449033
512.8101761595797
512.8097943534037
512.8094130264096
512.809032178631
512.8086518101015
512.8082719208551
512.8078925109251
512.8075135803451
512.807135129149
512.8067571573702
512.8063796650424
512.8060026521996
512.8056261188751
512.8052500651027
512.8048744909156
512.8044993963472
512.8041247814303
512.8037506461981
512.8033769906831
512.8030038149184
512.8026311189371
512.8022589027728
512.8018871664585
512.8015159100273
512.8011451335121
512.800774836946
512.8004050203615
512.8000356837917
512.7996668272697
512.799298450828
512.7989305544995
512.7985631383169
512.7981962023127
512.7978297465193
512.7974637709683
512.7970982756913
512.7967332607193
512.7963687260838
512.796004671816
512.7956410979475
512.7952780045096
512.7949153915336
512.7945532590504
512.7941916070911
512.7938304356865
512.7934697448675
512.7931095346648
512.7927498051088
512.7923905562293
512.7920317880562
512.7916735006193
512.791315693948
512.7909583680719
512.7906015230203
512.7902451588227
512.7898892755081
512.7895338731057
512.7891789516448
512.7888245111546
512.7884705516642
512.7881170732023
512.7877640757977
512.7874115594786
512.7870595242732
512.7867079702089
512.7863568973132
512.7860063056139
512.7856561951387
512.7853065659153
512.7849574179713
512.7846087513342
512.7842605660312
512.7839128620899
512.7835656395378
512.7832188984019
512.7828726387093
512.7825268604863
512.7821815637594
512.7818367485547
512.7814924148979
512.7811485628145
512.7808051923298
512.7804623034694
512.7801198962588
512.7797779707232
512.779436526888
512.7790955647788
512.7787550844209
512.7784150858399
512.7780755690612
512.7777365341105
512.7773979810133
512.7770599097951
512.7767223204805
512.7763852130945
512.7760485876613
512.7757124442048
512.7753767827489
512.7750416033177
512.7747069059353
512.7743726906258
512.7740389574133
512.7737057063216
512.7733729373751
512.7730406505987
512.7727088460167
512.7723775236539
512.7720466835342
512.7717163256818
512.7713864501209
512.7710570568754
512.7707281459695
512.7703997174274
512.770071771273
512.769744307531
512.7694173262255
512.7690908273801
512.7687648110184
512.7684392771641
512.7681142258411
512.7677896570731
512.7674655708836
512.7671419672959
512.7668188463329
512.766496208018
512.7661740523752
512.765852379428
512.7655311892001
512.7652104817153
512.7648902569968
512.7645705150678
512.7642512559512
512.7639324796694
512.7636141862442
512.7632963756973
512.7629790480498
512.7626622033229
512.7623458415376
512.7620299627151
512.7617145668767
512.7613996540435
512.7610852242371
512.7607712774786
512.7604578137891
512.7601448331895
512.7598323357008
512.7595203213441
512.7592087901405
512.7588977421112
512.7585871772774
512.7582770956599
512.7579674972797
512.7576583821576
512.7573497503142
512.7570416017702
512.7567339365457
512.7564267546611
512.7561200561365
512.755813840992
512.7555081092478
512.7552028609236
512.7548980960398
512.7545938146163
512.7542900166729
512.7539867022294
512.7536838713056
512.753381523921
512.7530796600952
512.7527782798475
512.7524773831974
512.7521769701646
512.7518770407685
512.751577595029
512.7512786329653
512.7509801545966
512.750682159942
512.7503846490206
512.7500876218517
512.7497910784543
512.7494950188477
512.7491994430509
512.748904351083
512.7486097429626
512.7483156187088
512.7480219783401
512.747728821875
512.7474361493319
512.74714396073
512.7468522560885
512.7465610354266
512.7462702987634
512.7459800461177
512.7456902775077
512.7454009929522
512.7451121924696
512.7448238760783
512.7445360437962
512.7442486956409
512.7439618316298
512.7436754517803
512.7433895561096
512.743104144635
512.7428192173734
512.742534774342
512.742250815558
512.7419673410391
512.7416843508022
512.7414018448646
512.7411198232437
512.7408382859569
512.7405572330217
512.7402766644557
512.7399965802763
512.7397169805006
512.7394378651454
512.7391592342276
512.7388810877637
512.7386034257704
512.7383262482642
512.7380495552616
512.7377733467788
512.737497622832
512.7372223834377
512.7369476286124
512.7366733583729
512.7363995727362
512.7361262717195
512.7358534553398
512.7355811236143
512.7353092765604
512.7350379141956
512.7347670365373
512.734496643603
512.7342267354104
512.7339573119771
512.7336883733205
512.7334199194581
512.7331519504071
512.7328844661847
512.7326174668085
512.7323509522962
512.7320849226651
512.7318193779327
512.7315543181164
512.7312897432337
512.7310256533017
512.7307620483377
512.7304989283591
512.7302362933835
512.7299741434288
512.7297124785125
512.7294512986525
512.7291906038661
512.7289303941704
512.7286706695832
512.7284114301217
512.7281526758031
512.727894406645
512.7276366226645
512.727379323879
512.7271225103059
512.7268661819628
512.7266103388667
512.7263549810343
512.7261001084821
512.725845721226
512.725591819282
512.7253384026658
512.725085471393
512.7248330254795
512.7245810649413
512.724329589794
512.724078600053
512.7238280957333
512.7235780768503
512.7233285434193
512.7230794954553
512.7228309329737
512.7225828559892
512.7223352645167
512.7220881585711
512.7218415381669
512.7215954033186
512.7213497540404
512.7211045903464
512.7208599122512
512.7206157197688
512.7203720129139
512.7201287917007
512.7198860561437
512.7196438062572
512.7194020420559
512.7191607635539
512.718919970765
512.7186796637027
512.7184398423806
512.7182005068123
512.7179616570115
512.7177232929921
512.7174854147677
512.7172480223514
512.7170111157561
512.7167746949942
512.7165387600778
512.7163033110191
512.7160683478301
512.7158338705219
512.7155998791056
512.7153663735921
512.7151333539928
512.7149008203191
512.7146687725829
512.7144372107953
512.7142061349678
512.7139755451115
512.7137454412375
512.7135158233568
512.7132866914801
512.7130580456176
512.712829885779
512.7126022119744
512.7123750242138
512.7121483225071
512.7119221068644
512.7116963772958
512.7114711338108
512.711246376419
512.71102210513
512.7107983199533
512.7105750208977
512.7103522079726
512.710129881187
512.7099080405499
512.7096866860704
512.7094658177575
512.7092454356198
512.7090255396658
512.7088061299046
512.7085872063442
512.7083687689926
512.7081508178583
512.7079333529498
512.7077163742761
512.7074998818459
512.7072838756678
512.7070683557497
512.7068533220995
512.7066387747248
512.7064247136332
512.7062111388325
512.7059980503302
512.7057854481336
512.7055733322497
512.7053617026857
512.7051505594488
512.7049399025468
512.7047297319871
512.7045200477771
512.7043108499247
512.7041021384373
512.7038939133224
512.7036861745876
512.70347892224
512.7032721562871
512.7030658767362
512.7028600835947
512.7026547768698
512.7024499565689
512.7022456226989
512.7020417752672
512.7018384142809
512.7016355397475
512.7014331516737
512.7012312500663
512.7010298349321
512.7008289062776
512.7006284641091
512.7004285084329
512.7002290392552
512.7000300565821
512.6998315604194
512.6996335507727
512.6994360276474
512.6992389910486
512.6990424409812
512.6988463774503
512.6986508004604
512.6984557100161
512.6982611061219
512.6980669887823
512.6978733580017
512.6976802137842
512.6974875561339
512.6972953850543
512.697103700549
512.696912502621
512.6967217912738
512.6965315665109
512.6963418283356
512.6961525767513
512.6959638117612
512.6957755333685
512.6955877415762
512.6954004363868
512.6952136178024
512.6950272858255
512.6948414404585
512.6946560817034
512.6944712095624
512.6942868240374
512.69410292513
512.6939195128416
512.6937365871738
512.693554148128
512.6933721957057
512.6931907299079
512.6930097507352
512.6928292581877
512.6926492522646
512.6924697329648
512.6922907002875
512.6921121542314
512.6919340947954
512.6917565219785
512.6915794357794
512.6914028361973
512.6912267232312
512.6910510968805
512.690875957144
512.6907013040204
512.6905271375078
512.6903534576043
512.6901802643072
512.6900075576139
512.6898353375209
512.6896636040249
512.6894923571224
512.6893215968096
512.6891513230826
512.6889815359375
512.6888122353705
512.6886434213775
512.6884750939544
512.688307253097
512.6881398988014
512.6879730310632
512.6878066498778
512.6876407552406
512.6874753471473
512.6873104255928
512.6871459905722
512.6869820420795
512.6868185801093
512.6866556046555
512.6864931157122
512.6863311132734
512.6861695973328
512.6860085678838
512.6858480249196
512.6856879684331
512.6855283984175
512.6853693148657
512.6852107177699
512.6850526071219
512.6848949829132
512.6847378451355
512.6845811937801
512.6844250288384
512.6842693503015
512.6841141581606
512.683959452406
512.6838052330284
512.6836515000175
512.6834982533633
512.6833454930552
512.683193219083
512.6830414314365
512.6828901301053
512.6827393150786
512.6825889863455
512.6824391438952
512.6822897877162
512.6821409177971
512.681992534127
512.6818446366944
512.681697225488
512.6815503004964
512.6814038617078
512.6812579091104
512.681112442692
512.6809674624399
512.6808229683413
512.6806789603831
512.6805354385517
512.6803924028331
512.6802498532131
512.6801077896771
512.6799662122105
512.6798251207986
512.6796845154265
512.6795443960793
512.679404762742
512.6792656153996
512.679126954037
512.6789887786385
512.6788510891886
512.6787138856712
512.6785771680698
512.6784409363672
512.6783051905466
512.6781699305907
512.6780351564823
512.6779008682036
512.6777670657364
512.677633749063
512.6775009181654
512.6773685730248
512.6772367136225
512.67710533994
512.6769744519586
512.6768440496596
512.6767141330245
512.676584702034
512.6764557566692
512.6763272969108
512.6761993227399
512.6760718341372
512.6759448310838
512.6758183135596
512.6756922815446
512.6755667350185
512.6754416739607
512.6753170983504
512.6751930081668
512.675069403389
512.674946283996
512.6748236499664
512.6747015012786
512.6745798379109
512.6744586598409
512.6743379670463
512.6742177595045
512.6740980371922
512.6739788000862
512.6738600481633
512.6737417813999
512.6736239997724
512.6735067032571
512.6733898918299
512.6732735654666
512.6731577241433
512.6730423678357
512.6729274965194
512.6728131101695
512.6726992087608
512.6725857922684
512.6724728606666
512.6723604139302
512.6722484520333
512.6721369749505
512.6720259826564
512.6719154751252
512.671805452331
512.6716959142475
512.6715868608478
512.6714782921053
512.671370207993
512.6712626084843
512.6711554935521
512.6710488631695
512.6709427173098
512.6708370559461
512.6707318790516
512.6706271865992
512.6705229785614
512.6704192549105
512.6703160156187
512.6702132606581
512.6701109900002
512.6700092036169
512.6699079014797
512.66980708356
512.6697067498292
512.6696069002585
512.6695075348191
512.6694086534824
512.6693102562194
512.6692123430014
512.6691149137996
512.669017968585
512.6689215073282
512.6688255299998
512.6687300365707
512.6686350270106
512.6685405012897
512.668446459378
512.668352901245
512.6682598268605
512.6681672361938
512.6680751292138
512.6679835058892
512.6678923661884
512.6678017100796
512.6677115375312
512.6676218485111
512.6675326429865
512.6674439209244
512.6673556822911
512.6672679270534
512.6671806551778
512.6670938666309
512.6670075613793
512.6669217393894
512.6668364006277
512.6667515450602
512.6666671726523
512.6665832833698
512.6664998771782
512.6664169540429
512.6663345139293
512.6662525568026
512.6661710826274
512.666090091368
512.666009582988
512.6659295574509
512.6658500147203
512.6657709547594
512.6656923775313
512.6656142829986
512.6655366711238
512.665459541869
512.665382895196
512.665306731066
512.6652310494403
512.6651558502792
512.6650811335433
512.6650068991923
512.6649331471865
512.6648598774855
512.6647870900485
512.6647147848353
512.6646429618052
512.6645716209177
512.6645007621323
512.664430385408
512.6643604907038
512.6642910779781
512.6642221471895
512.6641536982968
512.6640857312589
512.6640182460344
512.6639512425822
512.6638847208612
512.6638186808298
512.6637531224458
512.6636880456674
512.6636234504524
512.6635593367582
512.6634957045424
512.6634325537623
512.6633698843755
512.6633076963394
512.6632459896114
512.6631847641488
512.6631240199092
512.6630637568499
512.6630039749273
512.6629446740978
512.6628858543179
512.6628275155438
512.6627696577318
512.6627122808382
512.6626553848189
512.6625989696302
512.662543035228
512.6624875815683
512.6624326086067
512.6623781162991
512.6623241046016
512.6622705734696
512.6622175228588
512.6621649527242
512.6621128630211
512.6620612537045
512.6620101247295
512.6619594760514
512.6619093076251
512.661859619406
512.6618104113488
512.6617616834087
512.6617134355404
512.6616656676979
512.6616183798351
512.6615715719054
512.6615252438617
512.6614793956571
512.6614340272447
512.6613891385771
512.661344729607
512.6613008002871
512.6612573505699
512.6612143804075
512.6611718897518
512.6611298785549
512.661088346769
512.6610472943466
512.6610067212405
512.6609666274032
512.6609270127874
512.6608878773454
512.6608492210296
512.6608110437921
512.6607733455851
512.6607361263602
512.6606993860694
512.6606631246646
512.6606273420975
512.6605920383201
512.6605572132842
512.6605228669416
512.6604889992443
512.6604556101438
512.6604226995917
512.6603902675397
512.6603583139395
512.6603268387425
512.6602958419003
512.6602653233638
512.6602352830844
512.6602057210134
512.660176637102
512.6601480313009
512.6601199035606
512.6600922538321
512.6600650820665
512.6600383882148
512.6600121722279
512.659986434056
512.6599611736494
512.6599363909579
512.6599120859312
512.6598882585192
512.6598649086718
512.6598420363384
512.6598196414686
512.6597977240119
512.6597762839176
512.6597553211354
512.6597348356147
512.659714827304
512.6596952961522
512.6596762421079
512.65965766512
512.6596395651375
512.6596219421097
512.6596047959858
512.6595881267147
512.6595719342445
512.6595562185237
512.6595409795002
512.659526217122
512.6595119313365
512.6594981220915
512.6594847893346
512.659471933013
512.6594595530742
512.6594476494652
512.6594362221331
512.6594252710245
512.6594147960859
512.659404797264
512.659395274505
512.6593862277552
512.6593776569612
512.6593695620691
512.6593619430255
512.6593547997772
512.6593481322714
512.6593419404546
512.6593362242736
512.6593309836746
512.6593262186041
512.6593219290078
512.6593181148319
512.6593147760225
512.6593119125255
512.6593095242865
512.6593076112515
512.6593061733658
512.659305210575
512.6593047228243
512.6593047100589
512.6593051722236
512.6593061092635
512.6593075211238
512.6593094077496
512.6593117690857
512.6593146050766
512.6593179156671
512.6593217008017
512.6593259604249
512.659330694481
512.6593359029139
512.6593415856671
512.6593477426843
512.6593543739091
512.659361479285
512.6593690587558
512.659377112265
512.659385639756
512.6593946411724
512.6594041164578
512.6594140655554
512.6594244884084
512.6594353849598
512.6594467551527
512.6594585989299
512.6594709162339
512.659483707007
512.659496971191
512.6595107087276
512.6595249195591
512.6595396036275
512.6595547608747
512.6595703912428
512.6595864946739
512.65960307111
512.6596201204927
512.6596376427635
512.6596556378636
512.6596741057344
512.6596930463179
512.6597124595557
512.6597323453898
512.6597527037613
512.6597735346115
512.6597948378815
512.659816613512
512.6598388614439
512.6598615816176
512.659884773974
512.6599084384534
512.6599325749962
512.6599571835429
512.6599822640342
512.6600078164101
512.6600338406113
512.6600603365778
512.66008730425
512.6601147435683
512.6601426544732
512.6601710369052
512.6601998908043
512.6602292161099
512.6602590127613
512.6602892806984
512.6603200198608
512.6603512301883
512.6603829116204
512.6604150640967
512.6604476875564
512.6604807819383
512.6605143471813
512.6605483832243
512.6605828900063
512.660617867466
512.6606533155425
512.6606892341745
512.6607256233003
512.6607624828584
512.6607998127872
512.6608376130255
512.6608758835118
512.6609146241847
512.6609538349819
512.660993515841
512.661033666699
512.661074287493
512.6611153781598
512.6611569386366
512.6611989688602
512.6612414687672
512.6612844382951
512.6613278773807
512.6613717859611
512.6614161639734
512.6614610113545
512.6615063280412
512.6615521139706
512.6615983690799
512.6616450933063
512.6616922865871
512.6617399488596
512.6617880800607
512.6618366801274
512.6618857489968
512.6619352866062
512.6619852928925
512.6620357677928
512.662086711244
512.6621381231832
512.6621900035473
512.6622423522724
512.6622951692948
512.6623484545505
512.6624022079759
512.6624564295073
512.6625111190808
512.662566276633
512.6626219021005
512.6626779954195
512.6627345565266
512.6627915853583
512.6628490818505
512.6629070459389
512.6629654775593
512.663024376647
512.6630837431373
512.6631435769659
512.6632038780679
512.6632646463781
512.6633258818317
512.6633875843634
512.6634497539076
512.6635123903989
512.6635754937718
512.6636390639603
512.6637031008986
512.6637676045207
512.6638325747606
512.663898011552
512.6639639148284
512.6640302845237
512.6640971205716
512.6641644229055
512.664232191459
512.6643004261648
512.6643691269562
512.6644382937664
512.6645079265281
512.6645780251745
512.6646485896383
512.6647196198526
512.66479111575
512.6648630772636
512.6649355043266
512.6650083968723
512.6650817548339
512.6651555781448
512.6652298667382
512.6653046205472
512.6653798395048
512.6654555235439
512.6655316725974
512.6656082865986
512.6656853654806
512.6657629091765
512.6658409176191
512.6659193907412
512.6659983284751
512.6660777307527
512.6661575975054
512.6662379286647
512.6663187241625
512.6663999839307
512.6664817079015
512.6665638960069
512.6666465481783
512.6667296643473
512.6668132444454
512.6668972884045
512.6669817961558
512.6670667676308
512.6671522027609
512.6672381014778
512.6673244637127
512.6674112893968
512.6674985784614
512.6675863308376
512.6676745464565
512.6677632252488
512.6678523671451
512.6679419720758
512.6680320399716
512.6681225707632
512.6682135643805
512.6683050207537
512.668396939813
512.6684893214883
512.6685821657095
512.6686754724058
512.6687692415064
512.6688634729408
512.6689581666376
512.6690533225258
512.6691489405341
512.6692450205912
512.6693415626253
512.6694385665639
512.6695360323349
512.6696339598659
512.6697323490844
512.6698311999176
512.6699305122927
512.6700302861368
512.6701305213767
512.6702312179389
512.6703323757497
512.670433994735
512.670536074821
512.6706386159335
512.6707416179981
512.6708450809408
512.6709490046871
512.6710533891621
512.6711582342903
512.6712635399963
512.671369306205
512.6714755328408
512.6715822198282
512.6716893670916
512.6717969745553
512.6719050421436
512.6720135697813
512.6721225573922
512.6722320049003
512.6723419122295
512.6724522793038
512.6725631060469
512.6726743923825
512.672786138234
512.6728983435248
512.6730110081785
512.6731241321183
512.6732377152678
512.6733517575499
512.6734662588876
512.6735812192039
512.6736966384217
512.6738125164636
512.6739288532519
512.6740456487089
512.6741629027567
512.6742806153172
512.6743987863117
512.6745174156613
512.6746365032866
512.6747560491083
512.6748760530465
512.6749965150211
512.6751174349513
512.6752388127559
512.6753606483537
512.6754829416632
512.6756056926022
512.6757289010886
512.67585256704
512.6759766903735
512.676101271006
512.6762263088542
512.6763518038351
512.6764777558658
512.6766041648627
512.6767310307421
512.6768583534194
512.6769861328105
512.6771143688309
512.6772430613962
512.6773722104219
512.6775018158235
512.6776318775158
512.6777623954135
512.6778933694316
512.6780247994845
512.6781566854872
512.6782890273546
512.6784218250014
512.6785550783418
512.67868878729
512.6788229517599
512.6789575716657
512.6790926469218
512.6792281774431
512.6793641631436
512.6795006039376
512.6796374997391
512.6797748504616
512.6799126560188
512.6800509163238
512.6801896312897
512.6803288008293
512.680468424855
512.6806085032788
512.6807490360127
512.6808900229685
512.6810314640577
512.6811733591924
512.681315708284
512.6814585112436
512.6816017679814
512.6817454784077
512.6818896424322
512.6820342599642
512.6821793309127
512.6823248551868
512.6824708326951
512.682617263346
512.6827641470475
512.6829114837074
512.6830592732338
512.6832075155346
512.6833562105178
512.683505358091
512.6836549581619
512.6838050106378
512.6839555154254
512.684106472431
512.684257881561
512.6844097427213
512.6845620558172
512.6847148207539
512.6848680374367
512.6850217057706
512.6851758256605
512.6853303970111
512.6854854197265
512.6856408937108
512.6857968188676
512.6859531951009
512.6861100223141
512.6862673004109
512.6864250292947
512.6865832088686
512.6867418390352
512.6869009196973
512.6870604507574
512.687220432118
512.6873808636817
512.6875417453509
512.6877030770277
512.6878648586137
512.6880270900108
512.6881897711205
512.6883529018444
512.688516482084
512.6886805117408
512.6888449907165
512.6890099189125
512.6891752962304
512.6893411225717
512.6895073978378
512.68967412193
512.6898412947492
512.6900089161957
512.6901769861693
512.6903455045701
512.6905144712985
512.6906838862544
512.6908537493384
512.6910240604504
512.69119481949
512.6913660263565
512.6915376809495
512.691709783169
512.6918823329149
512.6920553300868
512.692228774584
512.6924026663062
512.6925770051523
512.692751791021
512.6929270238104
512.6931027034182
512.693278829742
512.6934554026795
512.6936324221283
512.6938098879857
512.6939878001492
512.6941661585165
512.694344962985
512.6945242134516
512.6947039098125
512.6948840519638
512.6950646398016
512.695245673222
512.695427152121
512.6956090763952
512.6957914459406
512.6959742606539
512.6961575204316
512.69634122517
512.6965253747658
512.6967099691149
512.6968950081134
512.6970804916577
512.6972664196439
512.6974527919676
512.6976396085242
512.6978268692094
512.6980145739187
512.6982027225479
512.6983913149923
512.6985803511468
512.6987698309069
512.6989597541678
512.6991501208242
512.6993409307709
512.699532183902
512.6997238801116
512.699916019294
512.700108601344
512.7003016261563
512.7004950936255
512.7006890036462
512.7008833561124
512.701078150918
512.7012733879565
512.7014690671217
512.7016651883075
512.7018617514075
512.7020587563154
512.7022562029249
512.7024540911291
512.7026524208211
512.7028511918941
512.7030504042409
512.7032500577545
512.7034501523274
512.7036506878517
512.7038516642197
512.7040530813231
512.7042549390533
512.7044572373015
512.704659975959
512.7048631549167
512.7050667740657
512.7052708332969
512.7054753325006
512.7056802715667
512.7058856503857
512.7060914688475
512.7062977268424
512.7065044242609
512.7067115609927
512.706919136928
512.7071271519565
512.7073356059675
512.7075444988504
512.7077538304945
512.7079636007886
512.708173809621
512.7083844568799
512.7085955424532
512.7088070662287
512.709019028094
512.709231427936
512.709444265641
512.7096575410953
512.7098712541849
512.7100854047956
512.7102999928131
512.7105150181235
512.7107304806125
512.7109463801664
512.7111627166717
512.7113794900142
512.7115967000798
512.711814346754
512.7120324299224
512.7122509494704
512.7124699052836
512.7126892972469
512.7129091252457
512.713129389165
512.7133500888899
512.713571224305
512.7137927952951
512.7140148017452
512.7142372435399
512.7144601205637
512.7146834327009
512.7149071798353
512.7151313618506
512.7153559786304
512.715581030059
512.7158065160199
512.716032436397
512.7162587910739
512.7164855799344
512.7167128028623
512.7169404597414
512.7171685504561
512.7173970748906
