536.9999999999999
537.515406050361
538.0297918083606
538.5421338855975
539.0514136362274
539.5566184235872
540.0567449635457
540.5507919102756
541.0377634097027
541.5166724787596
541.9865509692992
542.4464222565914
542.8953371925513
543.3323620331313
543.7565752215237
544.167068550245
544.5629525513765
544.9433662609528
545.3074544099385
545.6543836958846
545.983350198985
546.2935739634725
546.584289148528
546.8547580925393
547.1042678703608
547.3321290368626
547.5376719843448
547.7202584173381
547.8792797003623
548.0141573932104
548.1243482604935
548.2093274019248
548.2686041022606
548.3017246052252
548.3082573386415
548.2878108137147
548.2400209474301
548.1645558930783
548.0611186893317
547.9294366406704
547.7692833757156
547.5804440787283
547.3627658600512
547.1161230059333
546.8404196299438
546.5355987485794
546.2016272024028
545.8385131604588
545.4463017577702
545.0250729310405
544.5749502523951
544.0960792904492
543.5886539155616
543.0528945791975
542.4890549461961
541.8974326636882
541.278351794862
540.6321736038016
539.9592941693248
539.2601440415972
538.5351922753815
537.7849352455946
537.0099027145103
536.2106661311834
535.3878229058885
534.5420134434911
533.6738966450725
532.7841690064316
531.8735595859656
530.9428249567684
529.9927550813533
529.0241550023229
528.0378678844714
527.0347697407263
526.0157511073066
524.9817291283842
523.9336420159545
522.8724455764727
521.7991227434495
520.7146711091355
519.6201144500347
518.5164903094998
517.4048573963953
516.2862787968658
515.1618356501006
514.0326256422564
512.8997506984457
511.764317598111
510.62744952951317
509.49025622883795
508.3538673336632
507.2194044453737
506.0879905120196
504.9607571082767
503.8388167531552
502.72328535304337
501.6152588085275
500.51583101248013
499.4260810961676
498.34707383649567
497.27985990392136
496.22547411559805
495.1849358759269
494.15924524658607
493.1493836000127
492.1563188103956
491.18099315870325
490.224298086053
489.28711859357634
488.3702990106519
487.47467672295846
486.60104164886235
485.75016392919235
484.92277337840693
484.11956946400494
483.3412138796813
482.58834081887403
481.86154323074686
481.1613698663772
480.4883486773379
479.8429732649598
479.22568296001043
478.63687775361603
478.07692645763694
477.5461575488252
477.04486546104727
476.57330397887335
476.1316994993468
475.72023383846926
475.3390511791351
474.98825832952076
474.66791406230186
474.3780446760801
474.118650818865
473.8896839390193
473.69106873895925
473.52268391433586
473.3843735244228
473.2759517455748
473.1971968266376
473.14786049735636
473.12765324641606
473.13627801545874
473.1733698952339
473.2385447019347
473.3313949723267
473.45148190376085
473.59834282841484
473.7714833430776
473.9703846256167
474.1944975930091
474.44323692675067
474.7160035056661
475.01215200418176
475.33103268983274
475.67197649070897
476.0342824529498
476.41722931636195
476.8200804782005
477.24207379192995
477.6824310090362
478.14034748229795
478.6150082753687
479.10557583450736
479.6111973594359
480.13100343277864
480.6641000487344
481.20958905047274
481.7665536793712
482.334061599614
482.91117003618734
483.4969200009892
484.0903503395336
484.6904811793271
485.2963212806587
485.90688198698336
486.5211652060119
487.1381690825325
487.7568872503667
488.37631245829493
488.99543801062407
489.6132439476307
490.2287202774257
490.84085306929705
491.4486303442189
492.0510477737844
492.6471055824304
493.2358100239763
493.816174805129
494.3872135510905
494.94797392682995
495.4975040127747
496.0348668370235
496.55914398293
497.06942155194696
497.5648197842894
498.04446578324024
498.50753647956554
498.95321653640286
499.3807241429044
499.7893061357315
500.1782331734286
500.54682121289244
500.89440275604017
501.22034388345804
501.524054411901
501.80496302426343
502.0625380698536
502.2963062933097
502.5058147903606
502.6906737260693
502.85050259084437
502.98497888999447
503.0938320789957
503.17682455592956
503.23376306690494
503.2645054146398
503.26895411065885
503.24705437007765
503.1987963965594
503.124208579552
503.0233435902731
502.89631669351587
502.7432850340969
502.56444432194786
502.3600428134883
502.1303559976451
501.87571596451835
501.5964816361861
501.293072532691
500.9659394758901
500.6155639316592
500.2424748139818
499.847241443021
499.43045778986675
498.9927728715525
498.53486687071256
498.0574560439914
497.56130009073115
497.04718998245613
496.51597983122315
495.9685515904429
495.40582838043156
494.82873518364033
494.2382401569646
493.63532528089274
493.0209932304554
492.3962887503785
491.76229793787326
491.12013885337205
490.47094757679264
489.8158877399317
489.15616178404906
488.49300452141074
487.8276877571759
487.1615051056779
486.4957693836558
485.83183387318076
485.17108971922
484.5149438897923
483.86484537852874
483.22224588555014
482.58864137816363
481.96554596508867
481.35449019190736
480.7570127035475
480.1746625077388
479.6090054077757
479.0615974467344
478.5339994445961
478.0277779246841
477.5444927243382
477.0856954063033
476.6529317124259
476.2477351387561
475.8716227331578
475.52607095701217
475.2125305081099
474.9324145923239
474.68710025369
474.47791420364166
474.3061140265208
474.17291283459883
474.0794424420117
474.0267754824179
474.01591486875594
474.04775725336435
474.1231086541725
474.24268461685176
474.4070887921867
474.61683765098934
474.87231552295583
475.17378237902017
475.5213751803405
475.9150919975477
476.35482681792587
476.8403088894056
477.37114106585585
477.94676613803256
478.5664818678455
479.2294412593405
479.9346336709102
480.68090373118685
481.46693125631936
482.2912556251388
483.15227481398546
484.0482189054589
484.9771899717895
485.93714372815253
486.9259003763831
487.94115634484683
488.98047280402346
490.0413088263264
491.12099649986885
492.21675788347096
493.3257356407619
494.4449831299948
495.5714769276458
496.70212769039557
497.83379384617103
498.9633112049746
500.0874818629921
501.2031165393472
502.3070228492139
503.3960313117719
504.4669890353278
505.5167772734988
506.5423506622395
507.54072403769186
508.50898971366877
509.4443164221616
510.3439887666704
511.2054265392453
512.026177348678
512.8039303046111
513.5365286855877
514.2219704537667
514.8584182922845
515.4442323842031
515.9779495441146
516.4582982968557
516.8841725733206
517.2546777833306
517.5691121107005
517.8270367729351
518.0282502228274
518.1727936636744
518.2609394978008
518.2931686512965
518.270164566559
518.1928259613003
518.0622748083398
517.8798488871324
517.6470830960383
517.3656989466582
517.0376152592739
516.6649168618045
516.2498554502101
515.7948274424606
515.3023483465603
514.7750695178154
514.2157432519768
513.6272394663854
513.012500119605
512.3745274539735
511.71639314034576
511.04123376719593
510.35222023854413
509.65255562232414
508.94546031606063
508.2341557053697
507.5218239765009
506.8116139305835
506.10662728684207
505.40988996684496
504.7243541155488
504.0528742206511
503.3982145041504
502.76302417007054
502.14983955862937
501.56107185418045
500.998989259722
500.46573536612567
499.9632917299682
499.4935005698447
499.0580272926278
498.6583587114883
498.2958414669616
497.9716495966677
497.68678381570373
497.4420958209498
497.2382413743244
497.0757172270595
496.95485510205594
496.87583614736184
496.8387020029662
496.84329660444405
496.88935259775707
496.9764383366018
497.10399280557124
497.2713477247877
497.4777044594812
497.7221618975251
498.0037096656629
498.3212543086118
498.6736086135584
499.0594983767581
499.4776018746893
499.9265327281215
500.4048600362692
500.9111043698961
501.4437487573342
502.00125143731316
502.5820493909344
503.1845944732057
503.80732836714594
504.4487030302381
505.1071897086887
505.7812680305642
506.4694494466749
507.17029133100766
507.88237123217596
508.6043152817262
509.334779945958
510.07246780844184
510.8161293330516
511.56458614676274
512.3167061205731
513.0714039923009
513.8276564473002
514.5845170941926
515.3410923652809
516.0965521593491
516.8501158370035
517.6010598956748
518.348721107709
519.0924865147557
519.8317987219339
520.5661634194881
521.2951153339214
522.0182518160054
522.7352141907802
523.4456958503373
524.1494197775578
524.8461663723072
525.5357199711226
526.2178801079223
526.8924566572803
527.5592752991797
528.2181870666167
528.8690583775007
529.511761059802
530.1461772977725
530.7721824553385
531.389651816554
531.9984607006957
532.5984669452292
533.1895328174202
533.7715123384411
534.3442477536395
534.907581935986
535.4613385157526
536.0053373414953
536.5393820005439
537.0632609987338
537.5767715322929
538.0796849838982
538.5717365762688
539.052656327849
539.5221321504456
539.9798428110624
540.4254383156001
540.8585709261437
541.2788719283601
541.6859657816091
542.079469282518
542.4589735482982
542.8240762441476
543.1743680824982
543.5094350518785
543.8288453486812
544.1321578117696
544.4189323683848
544.6887250871365
544.9410919536542
545.1755793895419
545.39174959795
545.5891778815809
545.7674302882128
545.9260803112455
546.0647167600451
546.1829163959867
546.2802777002445
546.3564174648621
546.4109719745227
546.4435829385997
546.4538917439054
546.4415820061565
546.4063346709523
546.3478705474679
546.2659319453544
546.160251005624
546.0305897076697
545.8767315633289
545.6984909797551
545.4956941450711
545.2682058735753
545.0159130030494
544.7387120325102
544.4365247196708
544.109302501368
543.7570201303853
543.3796891553432
542.9773539980422
542.5500861425969
542.0979759404661
541.6211483859353
541.1197548278392
540.5939644859674
540.0439888388793
539.4700753848222
538.8724772407897
538.251481521289
537.6074134042204
536.9406295540648
536.2515248686966
535.5405107820851
534.8080282741138
534.0545542147796
533.2805970639661
532.486683669767
531.6733608852259
530.8412232867672
529.990882059582
529.1229709690462
528.2381608743765
527.3371326582176
526.4206047881751
525.4893280419365
524.544065096026
523.5856205157237
522.6147985749583
521.6324352488776
520.639390759539
519.6365577729744
518.6248324932333
517.6051315005828
516.5783865642697
515.5455503531065
514.5075846556533
513.4654548837942
512.420146129132
511.37266616476415
510.32402231609507
509.2752311270632
508.2273191552116
507.1813127603335
506.1382453311905
505.0991446572617
504.0650397787946
503.03696558572614
502.0159610363214
501.003067707043
499.9993131624859
499.00571823406574
498.0232889286337
497.0530145014684
496.09588501969597
495.15288982802474
494.2249921966498
493.31315002178997
492.4182928317892
491.5413467979477
490.68320517320575
489.8447513226954
489.02683142222673
488.2302598230829
487.45585276313267
486.70437914514986
485.97657025327106
485.2731356022193
484.59476144985155
483.94210311321274
483.31578392020793
482.71638757316333
482.14446799310554
481.6005418382164
481.085078765311
480.5985220540495
480.141272313077
479.7137020921833
479.3161333272436
478.9488543943134
478.6121176018006
478.3061213489459
478.0310271237241
477.78695246465975
477.5739751412804
477.3921242379594
477.2413930481448
477.1217300698623
477.0330278406533
476.9751579432027
476.9479406488991
476.9511539705955
476.98452946546684
477.0477546280993
477.140468596142
477.2622752815272
477.4127481168512
477.59142203999716
477.79777679547686
478.0312617259774
478.2912832884655
478.5772012397045
478.8883466660953
479.224005118525
479.58343262499403
479.96584540588555
480.37043390948577
480.7963617335497
481.24273610601875
481.7086571326761
482.19319072004294
482.6953611940345
483.21417868071507
483.7486096535268
484.2976110297974
484.8601074311184
485.4350122004074
486.0212180330342
486.6176011289088
487.223021067513
487.836318248505
488.45632451138835
489.08186535382544
489.71174241334154
490.34476622650277
490.97973439618346
491.61542702013924
492.25063474369625
492.88413420305545
493.5147270102899
494.14120682195
494.7623700478679
495.37701524861035
495.983964378387
496.5820493252636
497.1701182888884
497.7470355353732
498.3116900360131
498.8630000051649
499.3999131846054
499.92137651617037
500.4263754941436
500.91392743255506
501.38307702428637
501.8329071654232
502.2625388345453
502.6711376240592
503.0579050905967
503.42207645411787
503.76293095672025
504.07979324222237
504.3720348471534
504.6390712714503
504.8803873923636
505.09550832513094
505.28400503230546
505.4454906682772
505.5796362922937
505.6861645205929
505.7648693907466
505.81558366382006
505.8381941992911
505.8326306586391
505.79889102979706
505.7370302225612
505.647135249887
505.52935461791964
505.38390161351697
505.2110269606697
505.0110393116086
504.7842972437165
504.531201403602
504.252210620636
503.94782525965496
503.6185970423441
503.2651303421338
502.8880572660264
502.4880652049978
502.0658719505962
501.6222402894965
501.15798843936483
500.67396149203904
500.1710600586092
499.6502122260826
499.11239601428724
498.55863593668005
497.98998488407995
497.4075168750175
496.81231688520546
496.2055094048926
495.58824484229876
494.9617075328447
494.3271214405222
493.6857273948973
493.03878859560547
492.38760204929207
491.73348558977887
491.07777118674187
490.4218064511368
489.76697335122196
489.1146850141804
488.46637175617707
487.8234980153353
487.1875400815473
486.56000349451085
485.94240130619784
485.3362586115146
484.7431213870842
484.1645281371179
483.6020473507609
483.0572274987915
482.53161668675244
482.0267666255297
481.5442034076196
481.08545254894267
480.6520308252627
480.2454380175307
479.86714404264217
479.5186084196687
479.2012627604738
478.9165021932719
478.66567201604767
478.45008013564683
478.27097654217414
478.12956777072907
478.0269940328069
477.96432598800044
477.9425724434013
477.96265521499294
478.0254124060702
478.13158390261907
478.2818252235427
478.47669114329756
478.71662831743043
479.00196129492423
479.3329004047863
479.70953675226804
480.13182441734455
480.59959345612003
481.11252815671435
481.6701629478993
482.27191598367597
482.9170536257399
483.60468833973647
484.3337880084263
485.1031770493578
485.9115208095549
486.75734114469856
487.63900870399385
488.5547536589187
489.5026573510258
490.4806533143952
491.4865508574059
492.5180334217334
493.57263589798345
494.64778582908554
495.7407950739628
496.8488852611747
497.9691704442484
499.0986885889417
500.23437660650677
501.3731004920093
502.511685890404
503.64692106081753
504.7755518445278
505.8943229959385
506.99997881347946
508.08926897336715
509.1589698142338
510.2059016294919
511.2269178488108
512.2189332331349
513.1789584021348
514.104066487332
514.9914444474829
515.8384020709904
516.6423609079019
517.4008992735342
518.1117328988006
518.7727493284755
519.3820106902359
519.9377355733966
520.4383472299631
520.8824482133837
521.2688483454995
521.5965474002969
521.8647356992697
522.0728566178304
522.2205812776828
522.3078469515764
522.3348190894528
522.3018816927903
522.2096509910297
522.0589467239264
521.8508328162186
521.586601163203
521.2677421281611
520.8959558647983
520.4731500413221
520.0014351433376
519.4830953319168
518.9205626696879
518.3164271581428
517.673406034552
516.9943423163331
516.2821953708748
515.5400304400406
514.7710030567923
513.9783358316052
513.1653207325124
512.3352923606282
511.49163163837414
510.63775664224295
509.77708530634237
508.91304894978265
508.04905393300965
507.1884567674081
506.33456339940005
505.4906135581717
504.65974113307277
503.8449935770004
503.0493189832161
502.2755607014532
501.5264221824193
500.80448944309336
500.11219978603367
499.4518312232415
498.8255190268886
498.2352251700256
497.68275045825754
497.16972813361633
496.69761211733646
496.2676748451748
495.8810081624243
495.53852302870007
495.24095889585743
494.98887438531403
494.7826540881773
494.62251633479246
494.50851523119576
494.4405457719762
494.4183412469144
494.44147965632567
494.5093882475607
494.6213727241429
494.77660330010195
494.97412512405305
495.212877752901
495.4916820978891
495.8092755401204
496.16431007850923
496.5553594488892
496.9809351581882
497.43947831089235
497.92938385853506
498.4490205681074
498.9967116998588
499.57076774069105
500.1694727380323
500.791122889283
501.4339926804479
502.09638148696496
502.7766249378676
503.47307334524265
504.1840980814576
504.9081170275659
505.64356895798477
506.3889395722217
507.1427716281905
507.90364389621374
508.67018644933654
509.441101950406
510.21515176142526
510.99113925048715
511.7679560911918
512.5445475155396
513.3199098159316
514.0931291212737
514.8633326886851
515.6297253440546
516.391562287151
517.1481435373356
517.8988562764437
518.6431276526275
519.3804521448279
520.1103752529926
520.8324928009047
521.5464746206244
522.2519983672397
522.9487877511508
523.6365755357273
524.3151204810722
524.9842283957179
525.6437140772161
526.2934222650734
526.9331999716235
527.5629076179071
528.1824257149553
528.7916354080041
529.3904185242869
529.9786485183405
530.5561944722447
531.1229428513108
531.6787738898455
532.2235649339871
532.7571965049747
533.2795238204166
533.7904097746405
534.2897016099816
534.7772345026317
535.2528397732926
535.7163207636447
536.1674770207452
536.6060759354987
537.03187704151
537.4446103574276
537.8439897124579
538.229721860055
538.6014962045136
538.9589922282048
539.301891686717
539.6298628015317
539.9425707494202
540.2396576630158
540.520766484266
540.7855229984342
541.0335416875887
541.2644490879378
541.4778611519245
541.673397854801
541.8506759714263
542.009308265892
542.148915705741
542.2691199304329
542.3695532164777
542.4498619694384
542.5096906136253
542.5487091285243
542.5665794095764
542.5629959028034
542.5376451202955
542.4902307221857
542.4204810207576
542.328132489158
542.212954810452
542.0747256214917
541.9132512155774
541.7283522994338
541.5198737271949
541.2876899148342
541.0316971823119
540.751808139717
540.4479721837165
540.1201566641001
539.7683609191153
539.3926103718508
538.9929570402727
538.5694911314172
538.1223198119429
537.6515872956363
537.1574596692658
536.6401558028516
536.0999282723698
535.5370376048206
534.9517785697761
534.3444866116279
533.7155224305003
533.0652871693517
532.3942070431793
531.7027395708772
530.9913819646151
530.2606666573292
529.5111479965966
528.743406261036
527.958066911597
527.1557782430747
526.3372153109136
525.5030947708931
524.654137036075
523.7911004619
522.9147628006725
522.0259353544628
521.125475367286
520.2142329126426
519.293091501608
518.3629449852073
517.4247113973968
516.4793403299677
515.5277765962371
514.5709937575924
513.609975091884
512.6457163959074
511.6792397853956
510.71155057077317
509.7436770884487
508.77665366329745
507.8115190554282
506.849317019716
505.89107705325654
504.9378365464834
503.990632240474
503.05049624853285
502.1184697736944
501.19556655343376
500.28279518417617
499.3811639527333
498.4916596263071
497.6152768337629
496.75296657373775
495.90567854245404
495.07434448276433
494.25985939695937
493.4631129897708
492.6849554371195
491.9262155330459
491.18769026625
490.4701518235381
489.7743481518852
489.1009882775999
488.4507582790783
487.82431550249294
487.2222720591624
486.6452154896162
486.0936702757994
485.5681446515423
485.0691119433861
484.59700769211673
484.1522358936666
483.7351600471443
483.3460899044572
482.9852965963589
482.65300139130295
482.34939731178736
482.0746358844383
481.8288251705113
481.6120212785223
481.42423265594806
481.26544397340155
481.13556576857997
481.0344999965429
480.96207648826356
480.91809884566123
480.90233796376964
480.9145215078936
480.9543390336956
481.0214229701347
481.1153730411335
481.23574560637235
481.3820519230544
481.5537694016408
481.75033745640206
481.9711600714823
482.21561298797906
482.4830182141826
482.77268187446816
483.0838732667841
483.41582379202475
483.76774108138113
484.1388014232222
484.5281622576642
484.9349508349804
485.3582639004139
485.79716936009925
486.2506967034948
486.71787341657966
487.1977003785025
487.68916445076826
488.19122704953776
488.7028301735331
489.2229110374652
489.75038836563505
490.28416395379486
490.8231327835354
491.3661800551733
491.91220471631436
492.4600819170313
493.0086844260008
493.55689736710235
494.10358057531676
494.6476205334501
495.187914653294
495.7233582075162
496.25285738108175
496.7753135425991
497.28965356561696
497.79482086717735
498.28978628295624
498.7735329296704
499.24504528528314
499.7033439042837
500.1474763079133
500.5765145638247
500.98956606426964
501.38574474021846
501.7642164763838
502.12417446841465
502.4648495342348
502.78550952441583
503.08545861452825
503.3640629259398
503.6207130629587
503.85484106378635
504.0659260254575
504.2534797941799
504.41707402448014
504.5563235201194
504.6708780611116
504.7604532397989
504.8247999508554
504.86373748454423
504.8771166054637
504.86483692519386
504.8268531752883
504.7631616731714
504.67381719855945
504.5589258782548
504.41863814517103
504.25316121509576
504.0627496115386
503.84770466882765
503.6083782946888
503.34515464504284
503.0584799791593
502.74883120816975
502.41675471869587
502.06282670642787
501.6876592486503
501.2919215011626
500.87632834719517
500.44162281766825
499.9885958614029
499.51809301762984
499.0310215884373
498.5283169627821
498.0109483257266
497.4799242492742
496.9362895883699
496.38112653801335
495.8155353123975
495.24069112756916
494.65778088262084
494.0680381850251
493.4727233693103
492.87310275502426
492.2704749662241
491.6661811873726
491.06159803017243
490.4581281422869
489.8572122893028
489.26033954594465
488.66901850724224
488.0847900334067
487.5092180893578
486.94388718167534
486.3904174942623
485.85043632907326
485.32559537627924
484.8175684488396
484.32801205886784
483.8585953805469
483.4109771123473
482.9868060015752
482.5877251815338
482.2153672365025
481.87136877967066
481.5573435282073
481.2748838399758
481.0255423379167
480.81085266073967
480.63231974340033
480.49138621545626
480.3894357632379
480.32780698915474
480.3077634071487
480.3304984292619
480.39710925244293
480.5086251671394
480.6659792466329
480.8699952180434
481.1214182058786
481.42086051057106
481.7687996147509
482.1656088250094
482.61150946133824
483.10660639771885
483.65085842055254
484.2440797174191
484.8859131693658
485.57584545316666
486.31323142380444
487.0972561112863
487.9269302402039
488.8010993196768
489.7184335694873
490.67745589747216
491.6765140254475
492.7137818702449
493.78726370063055
494.89480765267496
496.0340938597004
497.20263400343094
498.39781749473855
499.61688688107387
500.85694063606354
502.1149585545177
503.38778858332574
504.67216941447487
505.9647648552717
507.26211174677707
508.5606777196849
509.856860089087
511.14701187372515
512.4274424378598
513.6944427356207
514.9443024397286
516.1733102500681
517.3777720859349
518.5540427282352
519.6985074014086
520.8076265542772
521.8779456601852
522.9060853254515
523.8887942233606
524.8229358840418
525.705514369945
526.5336837479845
527.3047720401042
528.0162936945751
528.6659303892321
529.2515605185988
529.771287380828
530.2234447204095
530.6065572934991
530.9193604276514
531.1608348597622
531.3302162172021
531.4269949502615
531.4509485395412
531.4021167429079
531.28080530328
531.0875537373331
530.8231567384431
530.4886717095218
530.0854083083252
529.614955278533
529.0791418357159
528.4800139379197
527.819851238351
527.1011396427722
526.3265494121099
525.4989291270774
524.6213048470931
523.6968562453246
522.7288958539369
521.7208731766264
520.6763534696154
519.5989935360259
518.4925405544371
517.3607949781399
516.2076476499673
515.0370142610955
513.852855314497
512.6591529036315
511.45988184671654
510.2589899943232
509.0603654303398
507.86782546059277
506.6851274644655
505.51594101073846
504.3638250056357
503.2322049524737
502.1243857178686
501.04356085240534
499.99275743031956
498.9748519795841
497.9925633874504
497.0484362664906
496.1448275674599
495.2839094182141
494.4676578011702
493.69785067983963
492.9760759049033
492.3037407210369
491.6820321309008
491.1119636407708
490.59433113807125
490.12973738414274
489.71859522990326
489.3611385008431
489.0574253400113
488.8073200905846
488.6105193543039
488.4665678207525
488.3748530205525
488.3346160419552
488.3449536905095
488.40482520921097
488.5130790116215
488.66846440992197
488.86961748580023
489.115095282653
489.40337079389514
489.7328320006316
490.1018044903413
490.50858282587296
490.95140725562834
491.4284950549039
491.9380432064937
492.47819541059533
493.0471353305483
493.6430398980956
494.2640849239641
494.90847175075265
495.5744316030769
496.26021869334716
496.96412000362005
497.68446222898064
498.41962262693136
499.1680129303042
499.9281108536141
500.69842969693565
501.4775439472386
502.2641124035439
503.056831261303
503.8544741091249
504.6558769462049
505.4599361737361
506.26561263428505
507.07192224589255
507.8779528559681
508.682850430197
509.48581366426765
510.28609254668316
511.0830134527928
511.8759721063244
512.6644092944374
513.4478081908851
514.2257044007763
514.997642946838
515.7632000453709
516.521986772999
517.273643809193
518.0178536386762
518.754308826918
519.482723752894
520.2028085574586
520.9142906349937
521.6169099180686
522.3104054461695
522.9945303469381
523.6690432990464
524.3337026152803
524.9882670551475
525.6324904687918
526.266145558135
526.8889915097405
527.5007660906344
528.101230488176
528.6901163132136
529.2671584909876
529.8320559054612
530.3845107014871
530.9241954168243
531.4507680164699
531.9638804121563
532.4631720465155
532.9482704589448
533.4188119024012
533.8744073675065
534.3146567897713
534.7391610629566
535.147521263197
535.5393471090299
535.9142127991083
536.2717022437307
536.6113973479854
536.9328662289065
537.2356884577824
537.5194409963889
537.7837148375885
538.0281166007535
538.2522441440769
538.4557100389801
538.6381210143278
538.7991120730588
538.9383171341373
539.0553878324504
539.1500036400553
539.2218295018337
539.2705693666815
539.2959364526538
539.2976565508941
539.2754819921583
539.229176941212
539.1585332862131
539.063369133591
538.9435120939559
538.7988371716131
538.6292392192827
538.4346185226905
538.2149185489649
537.9701002458734
537.7001645724262
537.4051336068148
537.085064522684
536.7400303998119
536.3701358921228
535.9755262802814
535.5563659389851
535.1128763204682
534.6452797077311
534.1538321747736
533.6388434177767
533.100637709191
532.539571535443
531.9560400916894
531.3504597527921
530.7232853935443
530.0749925429623
529.4060988578709
528.7171549501076
528.008746434654
527.2814916850751
526.5360195335945
525.7730191053689
524.9931891915633
524.1972575694932
523.3859847428977
522.5601478271115
521.7205637024808
520.868068493446
520.0035255245592
519.1278221738645
518.2418688512316
517.3465957251548
516.4429536120093
515.5319214144678
514.6144941040507
513.6916683060203
512.7644735717059
511.83395138062156
510.90115387779036
509.96715345011455
509.03301724909863
508.0998296540294
507.168681875367
506.24067484602057
505.31690676315003
504.3984758165288
503.4864850295551
502.5820294761191
501.68620540867755
500.80010415701526
499.92481253320045
499.0614133338904
498.2109573531209
497.3744918906236
496.5530632162019
495.7476708671191
494.95930908424896
494.18894919735266
493.4375572394124
492.7060658894067
491.99538592752015
491.3063914229126
490.63992654398
489.9967991858791
489.3777989104704
488.7836690400283
488.2151203761742
487.67283642652205
487.15744597898134
486.6695502494989
486.2096974999136
485.7784061710414
485.37614231063526
485.0033165450429
484.6603094029948
484.34744861882245
484.0650195209266
483.8132491879053
483.5923056970325
483.40232146765834
483.2433664122135
483.1154693009181
483.018599723993
482.9526741494466
482.91756648261924
482.91307702846774
482.938991425178
482.9950217458418
483.08082642867606
483.1960369318523
483.3402147339595
483.5128784079134
483.71349117350303
483.9414615846907
484.19617718877856
484.4769487311648
484.78304823910366
485.11371880577525
485.4681475183967
485.84548869582557
486.2448521539907
486.6653135802955
487.1059141461681
487.5656536329213
488.0435143143572
488.5384169898618
489.0492774851269
489.5749713294176
490.1143534434184
490.6662713263399
491.2295279325857
491.8029189449935
492.3852262943915
492.9752051659579
493.5716081965193
494.1731702324009
494.7786325071363
495.38673194412365
495.9961861596701
496.605726422618
497.21407145657747
497.81996474939723
498.42214170263026
499.01934938440763
499.61035985287015
500.19395287653583
500.7689382090428
501.3341275610076
501.8883633222559
502.43051442473404
502.95946788397805
503.47414858520426
503.97352156098634
504.45657481485074
504.92233032395796
505.3698416968003
505.798215874245
506.2065930828542
506.5941617600807
506.96016036106107
507.30385937955947
507.62458911615977
507.9217191088025
508.19466788568906
508.4429102145742
508.6659624466345
508.8634136229158
509.03489090123077
509.1800795812473
509.29872532220634
509.3906298832359
509.4556380438569
509.4936459843503
509.50462266831596
509.4885810234342
509.445581711837
509.37575208580887
509.2792723950985
509.1563750953447
509.0073373704344
508.8324866122938
508.63220588411184
508.4069285831264
508.1571353394097
507.8833574870462
507.58616523983216
507.26618419272654
506.9240836258727
506.5605802353904
506.17645094261945
505.7724914030018
505.3495530529904
504.9085386799098
504.45041178115065
503.9761893555457
503.48690672045836
502.9836256447633
502.46743302119137
501.93945412011277
501.4008676624257
500.8528814996581
500.29674324511694
499.73373747366526
499.16516948548804
498.59238803488836
498.0167506409596
497.4396540781368
496.8625115222449
496.286766366824
495.7139170061454
495.14546293164
494.5829559761152
494.02797088583384
493.4821112844467
492.9470072803652
492.4242845942812
491.91561019565444
491.4226573396827
490.94709246711744
490.4905901669318
490.0548148792375
489.64141955199744
489.25205468022546
488.888355051364
488.551946011396
488.24442529505103
487.96739297213526
487.72239401728655
487.5109501909094
487.33455907470125
487.1946406435427
487.0925710312312
487.0296699616556
487.00717703615646
487.02627166158993
487.0880513304616
487.1935318444921
487.3436343219311
487.53916987515197
487.7808616854969
488.0693081572678
488.40500753642294
488.7883193344087
489.2194586292154
489.69852538393843
490.22546619679696
490.8000824477167
491.42201676443403
492.09076618441486
492.8056718803084
493.56590726760254
494.37049749963256
495.2182827707966
496.1079299841238
497.03795143960906
498.00668074228236
499.0123042589549
500.05283874782555
501.12612742784063
502.2298672806468
503.36158241458725
504.51866840481625
505.69836972335844
506.897801989561
508.1139533010002
509.3436819921395
510.5837546661907
511.830812802056
513.081418782147
514.3320588930757
515.5791381781411
516.819017279684
518.0480194273792
519.2624492488775
520.4585944671126
521.6327478270607
522.7812317447361
523.9004014558383
524.9866506217732
526.0364474251116
527.0463290346956
528.0129353193804
528.9330049083695
529.803410142716
530.621160867421
531.3834208301602
532.0875299781134
532.7309953116866
533.3115179220033
533.8269925116056
534.2755098241919
534.6554059321301
534.965229436086
535.2037442199335
535.3699321517634
535.4630133238487
535.4824825274586
535.428112583133
535.299959994762
535.0983465585838
534.8238338406361
534.4772404216883
534.0596429747511
533.5723656552435
533.0170041200627
532.3953750205824
531.7095635773281
530.9618901560507
530.1548811729215
529.2912742821796
528.3739631485095
527.4060326527327
526.3907139086397
525.3313771228216
524.2315228968876
523.0947633955489
521.9248221930126
520.7254980191422
519.500662529127
518.2542643038526
516.9902979587546
515.712795445656
514.4258113037552
513.1333909193061
511.83955664768723
510.54829428681086
509.2635202478602
507.989068388529
506.7286945892062
505.4860512969951
504.26465357134794
503.06791578616475
501.8991194943345
500.7613845366831
499.6576914056516
498.59084131015175
497.56346533813166
496.5780170866544
495.63674895900795
494.74173323647483
493.89483825925805
493.09773637595856
492.3518996844303
491.6585947257424
491.0189158326183
490.4337255799722
489.90370309381916
489.4293341479297
489.0109133681483
488.64854940196005
488.34216191809327
488.091505442364
487.8961609525837
487.7555632496455
487.66899413522765
487.6355824633482
487.6543416883209
487.72414873065384
487.8437557931222
488.01183516470144
488.22693890327207
488.48755707009076
488.7920928096888
489.1388854889801
489.52622490075294
489.95234782159093
490.4154628641316
490.9137420597477
491.4453405797312
492.00841605319664
492.60111899252155
493.22161808074685
493.8680855954185
494.5387194108754
495.2317447112298
495.94541288955514
496.67801958759935
497.4279001365199
498.193424361379
498.9730345956315
499.7652022399254
500.5684734726255
501.3814488254834
502.20279538959477
503.0312389616811
503.86555574662077
504.70459417661465
505.5472524909906
506.3924955022976
507.23934928020344
508.08689791672913
508.93429351300455
509.7807310117528
510.6254644112998
511.46781449810334
512.3071508096681
513.1429043352606
513.9745318592785
514.8015169394404
515.6233699325401
516.4396252233452
517.2498536453863
518.0536529830628
518.850642639748
519.6404602561822
520.4227382158443
521.1971411441543
521.9633156719221
522.7209052091684
523.4695689478222
524.2089530599069
524.9387235638288
525.6585406513818
526.3680576440598
527.0669379954522
527.7548292098638
528.4313833147963
529.0962406828412
529.7490319390968
530.3893802428913
531.0168840435216
531.6311282332679
532.2316799767012
532.8180867057622
533.389885067003
533.9465991253451
534.4877343239198
535.0128001054353
535.5212935589345
536.0127138982511
536.4865399403799
536.942262520845
537.3793600612379
537.7973025137304
538.1955728882513
538.5736363475769
538.9309792419359
539.2670804418262
539.5814197397924
539.8734949279109
540.1428017533085
540.3888552665492
540.611184984396
540.8093190821029
540.9828121624869
541.1312114807041
541.254112785524
541.3511157236599
541.4218360353542
541.4659197421502
541.4830333176373
541.4728693199594
541.4351453080805
541.3695982785734
541.2759986374748
541.1541466586434
541.0038736035583
540.8250316904646
540.6175034940673
540.3812158566427
540.1161077392455
539.8221723470253
539.4994249488456
539.1479100122374
538.7677125475315
538.3589386045461
537.9217415968939
537.456304896793
536.962844147458
536.4416314802473
535.8929585456514
535.3171541688549
534.71457995516
534.0856301995985
533.4307404271559
532.7503717452031
532.0450236174266
531.3152312015908
530.5615472506815
529.7845852038149
528.9849638485902
528.1633570798809
527.320460497722
526.4569951307581
525.573715368896
524.6713970895898
523.7508631131293
522.812945296131
521.8585033531739
520.8884281598472
519.9036253631535
518.9050339493544
517.8936098079062
516.8703312787894
515.8361959073607
514.7922148751402
513.739427187633
512.678870074377
511.6116082377565
510.5387260829635
509.46130043585686
508.3804276459832
507.29720896007774
506.2127534400689
505.12818291326715
504.0446151377272
502.9631777436545
501.8849891554732
500.81117660815283
499.7428724338752
498.6811907088624
497.6272542251595
496.5821732837533
495.5470441358197
494.52297149877865
493.51102768252537
492.5122882543126
491.5278107314545
490.558639641494
489.60580737040567
488.670319762878
487.7531745120187
486.85534680375855
485.9777860274382
485.1214233583952
484.2871552602926
483.47585094488886
482.68835753710124
481.92548991971216
481.18804469122415
480.47676608672475
479.7923906122378
479.13561087569394
478.50708327678717
477.907440025913
477.33726407228306
476.7971101329266
476.28748619866764
475.80887005630467
475.3616998657113
474.94636480153554
474.56321973054554
474.2125735563028
473.8946797252246
473.60976390185255
473.3579992096304
473.1395298803534
472.95443585830805
472.80275854544726
472.6845026578821
472.5996054435311
472.5479647074913
472.52944051557256
472.5438309230221
472.5909089963798
472.6703768258322
472.78189599580253
472.9250895423539
473.09952464404995
473.30473039689184
473.54018493760907
473.80532691069527
474.09953633442063
474.4221481174618
474.77246789348374
475.14974656454996
475.5532009716756
475.9819973567733
476.4352610669879
476.9120907715416
477.41152895821756
477.9325849273051
478.47423161789544
479.03540470961406
479.6150237399151
480.21195880877815
480.8250564434517
481.453130445383
482.0949658038769
482.7493402999828
483.41498717347025
484.09063002577074
484.77496524633364
485.46667271409297
486.16442448727065
486.86686954828957
487.5726579003559
488.28041868239956
488.98879090019864
489.69641731177177
490.4019231926003
491.10394969223887
491.8011301949435
492.4921059953172
493.1755331471303
493.8500762502722
494.514417560813
495.16725943696514
495.8073292106766
496.43336658661724
497.044130307512
497.6384355117473
498.21511491414566
498.7730412927417
499.31112584717056
499.82830107492913
500.3235493212132
500.79590061603596
501.24443280689894
501.6682695045337
502.06656678537394
502.43854334121306
502.7834732148407
503.1006741296745
503.38954167684403
503.64950677918006
503.8800762903838
504.08080779643643
504.25131473206375
504.39127555094075
504.5004208363345
504.57855528012396
504.6255335215954
504.64125975383917
504.6257109436039
504.57891384560526
504.50097451022316
504.3920598846325
504.25239709348415
504.0822726507105
503.88201619334444
503.65204760766386
503.39282157294093
503.10484874260095
502.78870148577374
502.44498888976824
502.0743885559296
501.67764361166957
501.2555340070922
500.80890471267696
500.3386393593191
499.845693316277
499.33107674087285
498.79584690263647
498.2411250297092
497.6680477099612
497.0778030528611
496.47160928089244
495.8507301523801
495.21647462328843
494.5701829454546
493.91326300020404
493.24715011523307
492.5733101462418
491.89325741720285
491.2085109226413
490.52063953124525
489.83124106385446
489.1419405329632
488.4544167436134
487.77036789757625
487.0915340981044
486.4196828730438
485.7566192275878
485.1041742384678
484.46417628027154
483.8384832191949
483.22895327272744
482.6374551068356
482.065866731047
481.5160544236706
480.98988851079287
480.48924149198297
480.0159687076848
479.57192172336465
479.1589022481275
478.77870532730645
478.43309011843627
478.12378343951553
477.85246997050376
477.6207689887186
477.43024351725876
477.2824091022342
477.1787032699901
477.1204899440881
477.1090460572565
477.14556351847756
477.2311270007029
477.36672219539423
477.55321555695275
477.7913491917274
478.0817622240963
478.42494923014584
478.8212671216441
479.27093568258107
479.77401435267694
480.33042312954035
480.9399159417964
481.60206983786895
482.3163028128139
483.08186387491105
483.89783054625485
484.76309140875725
485.6763598232757
486.636179617393
487.64090531388973
488.6887270856634
489.7776571703593
490.9055279856532
492.07000404708265
493.2685815920454
494.4986155466362
495.7573039254251
497.0416840154625
498.34867529886264
499.6750378822675
501.01743005626145
502.37239232211607
503.7363716847092
505.1057271631417
506.4767272815944
507.845593957111
509.20849230131176
510.56155833305667
511.90093631075
513.2227557220214
514.5231614038538
515.7983152419283
517.0444196121507
518.2577451435392
519.4346278738918
520.5715079736303
521.6649043431098
522.7114628352987
523.707986465842
524.6514127543084
525.5388627080323
526.3676232611473
527.1351437182312
527.8391007401513
528.477350510631
529.0479867594041
529.5493162668567
529.9798567538245
530.3383635554603
530.6238347915444
530.835563889862
530.9731001823056
531.0362639345192
531.0251521999393
530.9401004990223
530.7817246139407
530.5508783501856
530.2486829132054
529.8765164445723
529.4360010594161
528.9290226074208
528.3577088554886
527.7243965309494
527.0316325994057
526.2821347771954
525.4788096730787
524.6247081158924
523.7230356548788
522.7771264238424
521.7904352930844
520.766551015469
519.7091497306262
518.6220070893057
517.5089664776592
516.3739179993316
515.220792596473
514.0535342650996
512.8760764153063
511.69234443966195
510.50621027672145
509.3215259872257
508.14207042293776
506.97154683140496
505.81357669823416
504.67166381353206
503.5492096020994
502.4494901457272
501.37562525847727
500.3306051741548
499.3172485085116
498.33821591878484
497.39599851324044
496.49291417760867
495.631094163893
494.81248822908253
494.03886215786156
493.3117656260582
492.6325685420926
492.0024590314024
491.4224207362443
490.8932591135008
490.4155802294
489.98980743899295
489.6162077113787
489.29486420438604
489.0256933471403
488.80845585999685
488.64275305834377
488.52805214548766
488.4636614763888
488.44878044579684
488.48248416459273
488.56373261922585
488.69139311770624
488.86423011727965
489.08093447760626
489.3401087925404
489.6402918826698
489.97997883199133
490.35760150650145
490.7715679561311
491.22024682806216
491.70199067281857
492.215136982162
492.7580154545992
493.32897914800014
493.92637629240494
494.5485719276417
495.19395802588093
495.86092785703096
496.54790855434567
497.2533668307229
497.9758033455257
498.71377285746456
499.4658513450011
500.2306813200743
501.00694895042403
501.7933895693756
502.58880384284834
503.39201868478426
504.2019309871363
505.0174679675139
505.83761051631893
506.661412161396
507.48795905110075
508.3163956701374
509.1459111781632
509.97572994238175
510.80514824610043
511.63350366646665
512.4601687323055
513.2845307392327
514.1060080516335
514.9240398399045
515.7380795298035
516.547627453038
517.3521869188734
518.1512812711098
518.9444509444171
519.7312348546918
520.5111821693782
521.2838351771569
522.0487268991037
522.8054048534351
523.5534092419714
524.2922953338068
525.0216104636053
525.7409110465891
526.4497539502057
527.1476819420932
527.8342445666806
528.5089754684448
529.1714029676942
529.8210455385748
530.4574053500739
531.0799795955015
531.688261005367
532.2817278304009
532.8598537675714
533.4221025679233
533.9679514257094
534.496855528717
535.0082737540499
535.5016681886626
535.9764774220002
536.4321574895823
536.8681615278136
537.2839523161066
537.6790019076825
538.0527692998093
538.4047435101469
538.7344101919919
539.0412684374318
539.3248320804439
539.5846245973422
539.8201826205773
540.031056927389
540.2168311883579
540.3771015390698
540.5114689885977
540.619577582112
540.7010848926416
540.7556698121344
540.7830468142226
540.7829297039817
540.7550671775659
540.6992410918682
540.6152517058873
540.5029401137969
540.3621647272765
540.1928303602758
539.9948604211435
539.7681995784051
539.512838147277
539.2287839060612
538.9160865086126
538.5748224009392
538.2051082157275
537.8070902837754
537.3809383583797
536.9268654334386
536.445123582475
535.9359912840212
535.3997825196251
534.8368359289303
534.2475345441186
533.6322815660039
532.9915154211114
532.3257116395861
531.6353605140765
530.9209993027276
530.1832007182627
529.4225637471992
528.6397263904017
527.8353367269264
527.0100895086708
526.1646969627996
525.2998987710515
524.4164787528973
523.5152247524275
522.5969561918898
521.6625119360441
520.7127688263189
519.7486299215623
518.7710061170774
517.7808260008017
516.7790477921403
515.766640645304
514.7446011055496
513.7139234715125
512.6756223224377
511.63072665492075
510.58027412297406
509.52531174950417
508.46689883513335
507.4061033659811
506.34399610101366
505.2816490542845
504.2201516026671
503.1605741109006
502.10399712701604
501.0514967589808
500.00414545971216
498.9630084362435
497.92913986659323
496.90359001758753
495.88739925059053
494.8815987094738
493.88720680560414
492.9052190201584
491.9366350360531
490.9824247991018
490.0435382361828
489.12091050188906
488.21544311631664
487.3280266842228
486.4595265325101
485.6107705019855
484.7825848419637
483.97575399532064
483.19104176776943
482.42917940826595
481.6908736090646
480.9767993219796
480.28759246013743
479.6238756525562
478.98623172478204
478.3752099878725
477.7913258554789
477.2350582640359
476.7068626472856
476.2071532209793
475.7363181250196
475.29470849626125
474.8826274272203
474.5003669415089
474.148175231981
473.8262568415822
473.5347964854497
473.2739327147511
473.0437865845264
472.8444332414832
472.6759172682043
472.5382638423806
472.43144846229654
472.35543681745753
472.3101526382857
472.29548699647216
472.31131190858275
472.3574569183784
472.4337337849162
472.539915194469
472.6757396457549
472.84093599293624
473.03518455416815
473.2581524730959
473.50947876885857
473.78876819476375
474.09560016989866
474.42953105052544
474.79009878759337
475.1768101290523
475.58914069838886
476.0265525708668
476.4884747970449
476.9743211139708
477.4834682185119
478.01526884254287
478.56906253526404
479.1441537202915
479.7398446423802
480.3554050584073
480.9900746953466
481.64307650014865
482.3135948872686
483.0008130668417
483.7038870839073
484.42194846621925
485.1541090338956
485.8994370966708
486.65700131078285
487.4258535611988
488.20502312523325
488.99351735011464
489.79031348562063
490.59438110972104
491.4046741889308
492.2201210718445
493.0396449914971
493.8621476038931
494.6865190166296
495.51163025712475
496.33634314078597
497.1595137224289
497.9799872441541
498.79660631070186
499.6081972871575
500.4135806174339
501.2115745308421
502.00098114386236
502.78062715177106
503.54932618735626
504.30589809227484
505.0491749811022
505.77800105114164
506.49123045649566
507.1877274659699
507.8663643232599
508.52603430416724
509.1656495284373
509.78414768290367
510.3804877566103
510.9536545676266
511.50266998321223
512.0265756688212
512.5244552317295
512.9954256382312
513.4386417018336
513.8533072677324
514.2386358521484
514.5939180566087
514.9184775515785
515.211686077389
515.4729650533088
515.7017848730923
515.8976662531788
516.0601834741761
516.1889695540499
516.2837215021528
516.3441837158679
516.370168436783
516.3615432968479
516.318227470332
516.2402005558031
516.127495890121
515.9802201098232
515.7985198956388
515.5826118567387
515.3327863959656
515.0493699445544
514.7327679924988
514.3834403888799
514.0018963859263
513.5887136634799
513.1445112819912
512.6699862195026
512.1658822812111
511.6330095946291
511.0722359461889
510.48447166259336
509.8706939577065
509.2319254421255
508.56925652600273
507.88385301701857
507.1769139854662
506.4496932516214
505.70347891386103
504.93960717675554
504.1594714675844
503.36450075301667
502.5561766828137
501.73602835289677
500.9056312870215
500.06660615280697
499.2206104841322
498.3693475047889
497.51454389320685
496.65797725971794
495.8014726440597
494.94687261438656
494.09607485135643
493.25099733915556
492.41360477150795
491.5858980632178
490.7698954614202
489.9676597622287
489.18125563704467
488.4127614495734
487.6642720884743
486.9378798161313
486.2356988530453
485.55982851869413
484.912364070684
484.29539198966023
483.7109741871779
483.1611626165475
482.6479633002571
482.17335893994124
481.7392919238546
481.34763615245066
481.00022509167025
480.69882718888783
480.4451453641388
480.24080312529776
480.08732610274694
479.98615604483444
479.93862084321376
479.9459549142711
480.0092737687378
480.12956855785455
480.30770961107777
480.54440407515995
480.8402302321533
481.1956087725984
481.61079188155435
482.08586119121065
482.62073037478757
483.21513522473856
483.86863537931566
484.5805970144969
485.35019582872167
486.17641624662247
487.05803380401505
487.99364191196844
488.98162253785097
490.0201703267344
491.1072826233682
492.2407569880746
493.4181983137059
494.6370114414847
495.89444517252105
497.1875497449722
498.51321619778514
499.8681709192482
501.24899096247225
502.6520985981478
504.07379182875553
505.5102363599193
506.95748892117336
508.41149497332026
509.8681243656151
511.32317046442853
512.7723740190729
514.2114434706863
515.6360650381865
517.0419222652517
518.4247138793021
519.7801677611368
521.1040574723502
522.3922077442389
523.6405327099477
524.8450410623967
526.001840818866
527.1071961099914
528.1574981585815
529.149314390748
530.079377438952
530.9446102441932
531.7421389595372
532.4692957255705
533.1236507290932
533.7030165878783
534.2054449782589
534.6292325413237
534.972909149321
535.2352964764164
535.4155130900856
535.5129705617264
535.5273778654347
535.4587254066474
535.3073166557765
535.073733685974
534.7588304381
534.3637467625833
533.8898931432587
533.3389631823547
532.7129149345875
532.013995858301
531.2446955254143
530.407715267887
529.5060001956286
528.5426804278351
527.52107672953
526.4446672768192
525.3170832273474
524.1421072817367
522.9236359899301
521.6657000137427
520.3724292968564
519.0480201004787
517.6967473845968
516.3229199645311
514.9308814289702
513.5249781547328
512.1095360792499
510.688872517264
509.26724712647774
507.84887699903584
506.4378932686114
505.0383399310419
503.65416505172357
502.2891822767768
500.9470811533695
499.63140349702724
498.34553396418323
497.09270067242545
495.87594635247115
494.6981465201845
493.561980792601
492.4699206977383
491.4242534656341
490.42704562175635
489.48016690138564
488.58527790016643
487.74383190659336
486.957075819719
486.2260521100013
485.5515950272168
484.93434732055937
484.37474287795806
483.8730360409096
483.42929669160014
483.04341268012746
482.71511704133474
482.4439567555787
482.2293427245183
482.07053237333247
481.96664327304313
481.9166691290404
481.9194829059206
481.9738665062993
482.0784990164433
482.2319669550885
482.4327809496125
482.6793724242258
482.97011613556987
483.30335467580693
483.6773837102262
484.0904829238327
484.540889844849
485.0268453366189
485.5465838645813
486.09834094546966
486.6803709781286
487.2909340002074
487.928310215911
488.5908181028421
489.27678823953016
489.9845997950006
490.71266604524294
491.4594589099485
492.2234894171067
493.0033116773769
493.7975592298503
494.60488712637743
495.4240207674406
496.2537321115782
497.0928462251631
497.9402541458559
498.7948884961347
499.6557537404988
500.52189955960137
501.3924093541148
502.26644098544494
503.1431978901995
504.02194669545804
504.9019844929169
505.7826273448503
506.66323962471955
507.5431995246536
508.4219211612405
509.2988257153191
510.1733601429959
511.0450070928726
511.9132598919658
512.7776302894282
513.6376362063949
514.4927957947225
515.3426165073757
516.1865989022285
517.0242691745393
517.8551310446054
518.678698828185
519.4944960495177
520.3020375200218
521.1008339453064
521.8903923889394
522.6702173463688
523.4397837201119
524.1985534827035
524.9459949361719
525.6815587060739
526.4046957356086
527.1148385545391
527.8114003163348
528.4938046278402
529.1614454748475
529.8137238309831
530.4500252976004
531.069728427338
531.6722041991615
532.2568263832466
532.8229668367753
533.3699951739046
533.8972782849206
534.4041863662344
534.8901010333158
535.354417060105
535.7965267045636
536.2158191396023
536.611719153888
536.9836405091305
537.331024557987
537.6533395086955
537.950047046585
538.2206386447289
538.464630175424
538.6815568350152
538.870981159868
539.0324724626525
539.165638638066
539.2701053152045
539.345525492619
539.3915869320116
539.4079954262382
539.3945062857417
539.3508880316372
539.2769471307347
539.1725286390395
539.037501651211
538.8717862400547
538.6753278533873
538.448097881376
538.1901203431505
537.9014439872866
537.5821670135055
537.2324180014765
536.8523518247067
536.4421781019308
536.0021218387282
535.5324738875016
535.0335495822198
534.5057041295885
533.9493304197307
533.3648434849531
532.7527171949554
532.1134555885778
531.4475859622071
530.7556976844103
530.0383937236585
529.2963229626955
528.5301509388222
527.7405829305942
526.9283672896233
526.0942570384584
525.239056681045
524.3635990818136
523.468739978851
522.5553744091757
521.6244026982048
520.6767707753273
519.7134294764041
518.7353549992589
517.7435607007465
516.7390564307254
515.722873253926
514.6960595320156
513.65967487128
512.6148105299504
511.5625441987434
510.5039755999484
509.4402073585621
508.37235438997186
507.3015358641667
506.22886486830595
505.155459789293
504.08244042503003
503.01091096688486
501.94198883179405
500.8767657765763
499.81634336470967
498.7618004263619
497.7142131962357
496.6746427058667
495.6441175789109
494.62366707766574
493.6143062952291
492.61702153193085
491.63278400464486
490.6625397310884
489.7072193031003
488.76772349822994
487.8449133260535
486.9396238066438
486.0526557855113
485.1847966052377
484.3367905238964
483.50935306265006
482.7031635005321
481.9188661007396
481.15707156772316
480.4183498380315
479.70323370055354
479.01222250693814
478.34577080794713
477.704301102033
477.08819703998853
476.4977922537416
475.9333764405813
475.3952035854947
474.88350281623514
474.39845007114894
473.9401858583223
473.50881560782904
473.10438138018435
472.72691686042486
472.3763997637383
472.05276763413593
471.7559292080593
471.48574095787757
471.24204284351504
471.0246286088528
470.833262105062
470.6676805167041
470.527569322536
470.4125940190057
470.3223857220413
470.25655329104563
470.21467816376105
470.1963004019445
470.2009593936649
470.2281492812703
470.2773443517206
470.34800473020636
470.439555808312
470.5514200656839
470.682998744561
470.83367776000523
471.0028402398135
471.18983084369074
471.39400526902165
471.614698756184
471.85124058535257
472.10295543687823
472.36915603574704
472.6491665076657
472.94228430353013
473.2478184762077
473.5650843172606
473.8933782675107
474.232018326212
474.58031236513847
474.93758770785246
475.30318366582543
475.67642443432726
476.0566574780173
476.44323269655837
476.8355032724142
477.23284397243015
477.6346322044359
478.0402707415708
478.4491601228715
478.8607233639284
479.27439789898864
479.68962294998727
480.1058683186155
480.5226218083048
480.9393723226058
481.3556408540106
481.77094126692964
482.18482193979304
482.5968417271322
483.0065831226586
483.41364573790327
483.8176398379303
484.2181972891698
484.6149626769621
485.0075974125117
485.3957948897372
485.7792498070255
486.157686675083
486.5308379207955
486.8984567699318
487.26031274786936
487.6161827785107
487.9658750790614
488.3092093261418
488.6460143066463
488.9761430555971
489.29944854833406
489.61581621673963
489.92514618302306
490.2273378213097
490.5223334349955
490.8100701872447
491.090510895362
491.3636221697201
491.6293830401284
491.8877979161341
492.138874649606
492.3826375647969
492.6191250847826
492.84839184407065
493.0705020112916
493.2855246617304
493.4935509389144
493.6946871067177
493.8890499421428
494.0767819682639
494.2580297394085
494.4329505177417
494.60171422315034
494.76449443649966
494.92149882339237
495.0729274412285
495.2190121802919
495.3599838858457
495.4960832168297
495.62757143150475
495.7547081796743
495.87777754883024
495.99706808279865
496.1128878211982
496.2255554325859
496.3353846456335
496.4427255756564
496.54792530639565
496.6513408425429
496.7533343718398
496.8542705771638
496.95454235212515
497.0545286522493
497.154622219421
497.25522663449533
497.3567423889005
497.45958359485724
497.56415074687163
497.67085565211516
497.7801179224862
497.892341877341
498.0079481452995
498.1273505204386
498.25095683779307
498.37917427681145
498.5123905028479
498.65100503750153
498.7953971880269
498.9459466970084
499.1030215905133
499.26696594915774
499.43812271411565
499.61680829533424
499.8033266038062
499.9979632431535
500.2009576297946
500.412553740243
500.6329655971054
500.86238012150363
501.1009687166697
501.34886179179676
501.6061647982354
501.87295447323277
502.1492753845182
502.4351409594071
502.73052577966513
503.0353755539918
503.34958863185744
503.6730214256898
504.00551804472235
504.34685499945334
504.6967975963731
505.05505590332854
505.42130652436174
505.79518372472944
506.1762685040769
506.5641170937272
506.9582437032641
507.35812549511553
507.7632011509708
508.1728563213416
508.5864506084038
509.0033207435809
509.42275369459674
509.84400135899745
510.266284136919
510.68879919357454
511.1107135693701
511.53115953834566
511.94925856428745
512.3640951340801
512.774749857718
513.1802735331522
513.5796851102518
513.9720286495786
514.3563015006049
514.7315116102262
515.0966581864384
515.4507388324306
515.7927633464243
516.121730366122
516.4366565476936
516.736570798557
517.0205152189881
517.2875570644384
517.5367746206772
517.7672913195581
517.9782465521029
518.1688013776007
518.3381569925126
518.4855313994051
518.6101992829217
518.7114750443811
518.7887110851103
518.8413244049307
518.8687530485325
518.8705128463944
518.8461644398594
518.7953196659156
518.7176675018894
518.6129321461734
518.4809095209763
518.3214531055492
518.1344748302176
517.9199543117056
517.6779303660752
517.4085209873921
517.1118993879336
516.7883180372708
516.4380978068634
516.0616369696329
515.6594117652545
515.2319551638465
514.7798727653479
514.3038565172525
513.8046548463458
513.2830998175256
512.7400971126295
512.1766382742755
511.59378914603803
510.9926805435864
510.37452753949157
509.74060499099414
509.0922226013864
508.430773185975
507.75770359386
507.07453792772134
506.3828541622264
505.68428645830903
504.98054003594797
504.27335518940635
503.5645408064421
502.8559394264725
502.1494398132921
501.4469910573001
500.75056823981276
500.062221334791
499.3840257554155
498.7180985947493
498.0665954397125
497.43167454503424
496.8155243559839
496.2203362084836
495.6483029909135
495.10163072261673
494.5825064493143
494.09311414375657
493.6356154232367
493.2121543141672
492.82484893239894
492.4757478722059
492.1668825035039
491.90020531632996
491.6776177218211
491.50094732157083
491.37193152260403
491.29224041065993
491.26343609733027
491.2869778366079
491.3642204524515
491.4963822618821
491.6845721030594
491.9297507645706
492.2327185152086
492.59414639006684
493.0145424873
493.49424934973115
494.0334329051691
494.6320716719502
495.2899725868036
496.0067327008902
496.7817758273171
497.6143199324493
498.50338262107107
499.4477898516423
500.4461238788668
501.4967920072631
502.59798491521417
503.74767972090547
504.94366573836703
506.18351214212475
507.4646023189873
508.7841166752247
510.13904252477903
511.5261913220118
512.9421861912793
514.3834964211411
515.846418068231
517.327107909837
518.8215923054892
520.3257639197855
521.8354231614626
523.3462571462487
524.8538718553492
526.3538118587484
527.8415522391853
529.3125567920869
530.7622405390491
532.1860198799629
533.5793345553915
534.9376458204135
536.2564919032432
537.5314740685606
538.7582866290342
539.9327448286774
541.0507756082166
542.1084562475934
543.1020218360209
544.0278897137025
544.8826679243705
545.6631584243308
546.3663829970521
546.9895944783605
547.5303020762627
547.9862868602308
548.3555742966182
548.636490424467
548.8276443357493
548.9279222349601
548.936514410415
548.8528833271617
548.6767997458909
548.4083396214589
548.0478972398886
547.5962374951242
547.0544017330527
546.4237529601672
545.7059523140539
544.9029392600181
544.0169634840852
543.0505220458173
542.0064031990769
540.8876443351973
539.6975421928613
538.4396389329866
537.1176640324379
535.7355540793121
534.2974100608218
532.8074774381778
531.270140074661
529.6898819838002
528.0713092419082
526.4191185417459
524.738076327618
523.032999800243
521.3087263495124
519.5701111689843
517.8220028947051
516.0692149279981
514.3165186953696
512.568608560804
510.83012210443246
509.105580136405
507.39939747156416
505.7158639239509
504.0591132184609
502.4331346543233
500.84173546093336
499.28854586091194
497.7770079325457
496.3103394807609
494.89157356412966
493.523511870352
492.20873638499035
490.94961375522513
489.74825941481305
488.60656403195355
487.52618175882407
486.50853514740714
485.55482133221864
484.66599522719685
483.8427997574041
483.0857379604569
482.395093816992
481.7709581463276
481.21320744477646
480.7215363490796
480.29543586247746
479.9342265264329
479.6370748159149
479.40296414700845
479.23074260293936
479.1191205100144
479.06668805325097
479.071928893263
479.13320763774067
479.2488140907595
479.4169505896241
479.63575649205984
479.90331714103996
480.21766171990095
480.5767935968084
480.97868075229593
481.4212873862417
481.9025724630151
482.4204899561825
482.97301919348376
483.5581464492351
484.17390078047725
484.8183479610863
485.4895903279915
486.1857768981706
486.9050994280586
487.64580951065915
488.406221945831
489.1846932447458
489.97966278813817
490.7896344210034
491.6131773111442
492.4489261516025
493.2955785429161
494.1519227499304
495.0168107887487
495.8891707180579
496.76798807062397
497.6523043624011
498.54124382333123
499.43397452757046
500.32971949633395
501.2277765639095
502.12747710859406
503.0282324934632
503.92950220335246
504.8307774296063
505.73159269982904
506.6314708839649
507.52999226939056
508.4267519971128
509.32136317228765
510.21347524282675
511.10272218837775
511.98877103999655
512.8712827734051
513.7499123207989
514.6243146726254
515.4941286557511
516.3590068797737
517.2185937130257
518.0725145582836
518.9204071283054
519.7618855465487
520.5965751841642
521.4240781822973
522.2439676950091
523.0558150583432
523.8591628450998
524.6535442809321
525.4384811308142
526.2134645661305
526.9779866771221
527.7315023378194
528.4734656206273
529.2033049568616
529.9204422563056
530.6242882558356
531.3142203612507
531.9896303491946
532.6498934981157
533.2943707800104
533.9224261141936
534.5334018980624
535.1266581316142
535.7015392364506
536.2573932291049
536.7935733835035
537.3094222316884
537.8043057746665
538.277588703621
538.7286424208424
539.1568595024713
539.5616266643322
539.9423479718015
540.2984436542347
540.6293578349606
540.9345578688932
541.2134984857059
541.4656730107331
541.6905968147199
541.8878086159232
542.056869545887
542.1973444640169
542.3088488075585
542.3910168720242
542.4435095202376
542.4660173632878
542.4582463847258
542.4199450811675
542.3508833166734
542.2508704559411
542.1197451481381
541.9573671928007
541.7636443052926
541.5385151651028
541.2819500579428
540.9939579239054
540.674573655572
540.3238716906668
539.9419596555927
539.5289828886634
539.0851290012478
538.6106171603197
538.1057027225074
537.5706774296744
537.0058673058174
536.411643521765
535.7884026178841
535.1365906223227
534.4566789257582
533.749174904336
533.014628106386
532.2536168360277
531.4667609803215
530.654706133908
529.8181404300675
528.9577719746762
528.0743455463966
527.1686526657361
526.2414979867218
525.2937203660985
524.3261984485343
523.3398321653126
522.3355506661972
521.3143025301778
520.2770564997288
519.2248241739076
518.1586215686302
517.0795007695725
515.9885201581272
514.886762508303
513.7753290525682
512.6553269208836
511.5278828723379
510.39413066460634
509.2552113472976
508.11229995635387
506.9665581191447
505.8191566305439
504.671262638799
503.5240376397244
502.37866174736234
501.236296779401
500.0981084981738
498.9652449338898
497.8388539352263
496.7200857014423
495.61005171135946
494.50986660747895
493.4206199884993
492.34338089853696
491.27921114922384
490.22912631706225
489.19414419950164
488.17524590288895
487.17338079376196
486.18947126372353
485.2244021457791
484.2790476436187
483.3542283741524
482.4507251788813
481.56930833617554
480.7106817344252
479.87552778572393
479.06448446790847
478.27814663927325
477.51707621578834
476.78177969505595
476.07273617190754
475.39036849416647
474.73505387949604
474.10712800005416
473.5068713984645
472.93453765602555
472.3903361440744
471.87441923479867
471.38689774164055
470.92782785059114
470.4972443256851
470.0951261162576
469.72140345995535
469.37597808417036
469.0586911125258
468.76936775785913
468.50777888081154
468.2736595337432
468.06671004613565
467.88658402159507
467.7329180368279
467.6053156193285
467.50334462215284
467.42654326816046
467.3744130291336
467.3464400537785
467.34208154100395
467.36076304800764
467.4019020421252
467.4648723618293
467.5490495064394
467.6537969690594
467.77845068994003
467.9223426984613
468.084776421885
468.26504997097675
468.4624596187991
468.6762991272245
468.9058636660916
469.1504252536976
469.40926484412387
469.6816605621417
469.9668913036391
470.2642490350811
470.57300956633907
470.8924688520985
471.2219288608411
471.5606923316062
471.90807039604664
472.26338576027933
472.62598258335794
472.99519457128287
473.3703807818139
473.7509243185866
474.1361960542421
474.52559228377334
474.91853512260536
475.3144557873846
475.71280407355437
476.11302903839606
476.5146119430537
476.9170511580291
477.31986472064244
477.72258409436654
478.1247477358412
478.5259184886996
478.92568567148794
479.3236498725551
479.71944057809054
480.11267444597655
480.50300738039965
480.89010358523217
481.2736439708355
481.6533410972151
482.0289060558193
482.4000743489748
482.7666011639577
483.1282546354073
483.484815601501
483.8360639161057
484.1818238664882
484.5219245936078
484.8562044543521
485.18451736297413
485.50671043467565
485.82267382351847
486.13229219812644
486.4354662751448
486.7321169453026
487.0221654306221
487.30555277495455
487.5822198051577
487.8521154886424
488.1152206601651
488.3714951258207
488.6209298388097
488.86351817576343
489.09925774819834
489.328165344304
489.5502437385446
489.76552497918806
489.9740370982055
490.17581248804106
490.370902837839
490.559363582285
490.7412516211887
490.9166293493334
491.08556201625856
491.2481349669317
491.40442293859184
491.55451842306366
491.69850960100706
491.8364910881006
491.96857039820367
492.0948393447779
492.21541326263065
492.3304023999161
492.4399204499368
492.5440888017423
492.64301885786386
492.7368424332839
492.8256830780239
492.90966230266855
492.98891450080686
493.0635625828559
493.1337439749466
493.19959722922766
493.2612508656225
493.31884940222267
493.37252244559
493.4224239884774
493.46869090132304
493.51145144620153
493.55085556982107
493.58703538215076
493.6201357486931
493.65029899016463
493.67766042848194
493.7023546806971
493.724508683043
493.7442633125504
493.76175583089173
493.77711769991635
493.7904855327517
493.80197028628595
493.8117116937229
493.81983226269995
493.82644811969476
493.8316863296426
493.83565642972775
493.8384809488596
493.84026676505005
493.84112256806935
493.84116534380837
493.8404874358769
493.8392069541684
493.8374198370875
493.83521288865273
493.8326809529368
493.8299092882621
493.82699329195253
493.8240166623616
493.82105791075537
493.8181945909276
493.8154944548936
493.81303515353005
493.81088898291716
493.8091163347645
493.807785353418
493.8069456472762
493.8066633607408
493.8069884717506
493.80798553997454
493.8097144330451
493.8122154321826
493.81553780353204
493.819726806577
493.8248150367631
493.83084863355947
493.83786332287247
493.8459066608972
493.8549988266955
493.8651695529767
493.8764580173952
493.8888846431781
493.9024929179047
493.91730579040893
493.93334323507895
493.95063529620893
493.96919794107635
493.98905495895224
494.0102247529761
494.0327268203012
494.05659717873664
494.08184038911185
494.10847987840936
494.1365382433278
494.1660330106974
494.1969877555762
494.22941029455035
494.2633299953034
494.2987607410342
494.33571411200285
494.3742169381645
494.4142763869259
494.45591048396483
494.49913934555514
494.54397655474634
494.5904466386005
494.63855221869045
494.6883154954163
494.7397497139056
494.7928678686513
494.8476869775633
494.90421042173233
494.9624584135003
495.02244823664455
495.08418989493424
495.1476948324598
495.21297142211586
495.2800381017913
495.34890373879915
495.4195719604592
495.4920563740426
495.5663476038797
495.642456807028
495.7203892265132
495.8001353474918
495.8817079006443
495.9650980631722
496.05030172418765
496.13730388487767
496.2260958302077
496.3166750973644
496.40901700388423
496.5031051034947
496.5989244515472
496.696452835519
496.79566961293517
496.89654481539804
496.99904790309006
497.10314325311646
497.2087855584683
497.31593930281525
497.42455458438707
497.53459570639706
497.64600622948376
497.7587307716089
497.8727216029783
497.9879124837465
498.10425168665637
498.2216693465601
498.3400972350968
498.45947552292085
498.57971356302505
498.7007423838115
498.8224774436448
498.94483624640753
499.06774513175674
499.19111982575845
499.3148877253303
499.43896653894313
499.56327138657673
499.68772400622055
499.81223791273766
499.93673430684805
500.06112946269076
500.1853438170563
500.3093068030382
500.43293554766524
500.5561681862687
500.6789381706444
500.80118588760683
500.92284597809345
501.0438519241334
501.16415819727047
501.2837208913949
501.4025002858735
501.5204810092711
501.63762447222575
501.75391507351725
501.8693427451738
501.9839143196634
502.0976408584687
502.2105334592858
502.322634238755
502.43397304175755
502.5445961168509
502.65457292471916
502.76395706049857
502.87282783875645
502.9812770868525
503.0894070283482
503.19733477882073
503.30517038576613
503.4130517495836
503.5211205147191
503.62951958506324
503.73841673783835
503.8479736302228
503.95838267070565
504.0698273040219
504.18250349894555
504.29662805252156
504.4124053698387
504.5300576412505
504.6498022629893
504.77186402085715
504.8964807167907
505.0238715592768
505.15427766491854
505.2879302716007
505.4250648119168
505.5659241123499
505.710731078932
505.8597225657942
506.013113107434
506.17111089218764
506.33392924178
506.5017677901065
506.6748200011625
506.85326968706164
507.0372832935674
507.2270285895043
507.4226365274245
507.62424630996816
507.83195853953737
508.04585592822446
508.2660174840075
508.49247148164915
508.7252466430277
508.964353509942
509.20977278947447
509.4614677342948
509.7193593021697
509.9833626545551
510.2533582007794
510.5291910745386
510.81068795840315
511.09764347282055
511.38983082960806
511.68699737105277
511.98886026402647
512.2951199053932
512.6054275427186
512.9194206355551
513.2367057242171
513.5568633949019
513.8794577886958
514.2040067970574
514.5300222392434
514.8569844689733
515.1843565759111
515.5115878078007
515.8380886571474
516.1632783024348
516.4865446834027
516.8072680723508
517.1248273832194
517.4385695226875
517.7478354120165
518.0519572463063
518.3502601980996
518.6420730797553
518.9267105122076
519.203496603737
519.4717646395226
519.7308526598455
519.9801012824598
520.2188513239188
520.446467662347
520.6623214558718
520.8657985803053
521.0563124948301
521.2332800547464
521.3961585693498
521.5444214747879
521.6775624671639
521.7951104365712
521.8966003980012
521.9816297459363
522.0498140526562
522.1007973993565
522.1342690024494
522.1499426206414
522.1475774542755
522.1269550059093
522.0879126900021
522.0303271806555
521.9540954319328
521.8591833337634
521.7455847236811
521.613332671476
521.462510428459
521.2932317583621
521.1056606142967
520.9000131791609
520.6765556969682
520.4356137133003
520.1775334116472
519.9027260329342
519.611629010993
519.3047436534122
518.9826227807605
518.6458541363464
518.2950920430505
517.9310456799597
517.554485259729
517.1662464387265
516.7671869873884
516.3582440257906
515.9403729596975
515.5145842949278
515.0819336483629
514.6435089713306
514.2004696822975
513.7540219409649
513.3054288042339
512.8560026868157
512.4070796564121
511.96004758518217
511.51632976400094
511.07737654521947
510.64470215882943
510.21984685779324
509.80441360741355
509.4000436116968
509.00841634943373
508.6312499568418
508.2702709390257
507.92725183121576
507.6039657194318
507.3021863395608
507.02370967241063
506.770311895226
506.5437880869134
506.3459119220047
506.1784521106202
506.04315823184226
505.9417419892371
505.87588429908834
505.84722015966133
505.85732754352074
505.9077267685526
505.99986184898194
506.1351276179393
506.3148313338511
506.5401827034045
506.8123011884224
507.132190281492
507.500755731336
507.9187714094246
508.3868780072676
508.90558399360293
509.47523602234935
510.0960509395842
510.76807160822096
511.4911800182817
512.265082359473
513.0892922141521
513.9631646275432
514.8858633529823
515.8563529133243
516.8734174630149
517.935636825282
519.0414050696326
520.1889171780055
521.3761608768367
522.6009376286987
523.8608496548206
525.1533230700813
526.4755970322163
527.8247182975016
529.1975693833162
530.5908471473263
532.0011167846542
533.4247881266847
534.8581279951065
536.297286710363
537.7382817438761
539.1770435034738
540.6094048706469
542.0311265372173
543.4379145346921
544.8254120546175
546.1892441695734
547.5250192254816
548.8283592373149
550.0949131705197
551.3203618340641
552.5004736286947
553.6310752713574
554.7081035459681
555.727611148564
556.6857657750643
557.5788990502836
558.4035157017657
559.1562824766016
559.834057419303
560.4338957619992
560.9531006917192
561.3892053622179
561.7400063264681
562.003554152895
562.1781599925599
562.2624202288137
562.2552109714561
562.1556960492908
561.9633200075604
561.6777945184704
561.2991726390475
560.8277884092579
560.2643291879544
559.6097853327794
558.8654455128071
558.0329177066822
557.1140927576992
556.111126845905
555.0264557081539
553.8627751363415
552.6230583478279
551.3105228638553
549.9286255334802
548.4810618248914
546.9716902275754
545.404562581851
543.7838764700281
542.1139566945119
540.3992658556145
538.6443525404702
536.8538772489043
535.0325630959316
533.1851897727025
531.3165872373785
529.4315832138691
527.5350249488316
525.6317287937441
523.7264671047999
521.8239552057689
519.9288277010248
518.0456351353837
516.1788173029897
514.3326949271169
512.5114603128802
510.71914528188415
508.9596274363527
507.2365958172457
505.5535438991929
503.9137813311905
502.32040103023223
500.776286907734
499.28410310003176
497.846286719123
496.46506389780967
495.1424082063197
493.8800790563423
492.6795932768646
491.54223942242265
490.46908007797134
489.4609421192841
488.5184473945919
487.64198955052785
486.83175331685504
486.087728160615
485.4096898006046
484.7972435026528
484.2498046297408
483.76661692726884
483.3467777484352
482.98922002952503
482.6927471159658
482.45602395485463
482.27759668644535
482.15592778530674
482.0893659787702
482.0761971690022
482.11462518126973
482.2027828694871
482.3387647659138
482.5206156770713
482.7463650708991
483.01401744804747
483.3215617994833
483.66699358943566
484.0483100348964
484.46354223930183
484.91073667984085
485.38797547624006
485.89338285725586
486.4251046761866
486.9813527021788
487.5603758363518
488.160485388972
488.78005341030206
489.4175081421813
490.07135757390284
490.7401688134854
491.42256644324516
492.11726320845963
492.82303381039327
493.53872790985287
494.2632563496212
494.9956010616777
495.73480942464244
496.47998630109976
497.23031230312864
497.98502270932914
498.7434103975933
499.504828592522
500.26868071342204
501.0344391103706
501.801604494942
502.5697219388556
503.3383590193419
504.1071095073163
504.87560135355864
505.64347355166154
506.4103852519843
507.17603362174333
507.9401150223996
508.70233845746355
509.4624100875052
510.22004364637525
510.9749532783754
511.7268310078879
512.4753900626876
513.2203299185608
513.9613521225615
514.6981571527991
515.4304177156143
516.1578180610887
516.8800172302446
517.5966586368023
518.307380068566
519.0117890852231
519.7094913639974
520.400062487701
521.0830636111947
521.7580487375699
522.4245439576423
523.0820684146067
523.7301204157782
524.368183339284
524.9957271207572
525.6121965685987
526.2170391159486
526.8096801180687
527.3895308763568
527.9560097482934
528.5085174185526
529.0464559860817
529.5692218063034
530.076202620961
530.5667942910102
531.0403626931774
531.4963104453669
531.9340278775941
532.3529053675306
532.7523519942526
533.1317683455542
533.4905807327727
533.8282119025159
534.1440932136982
534.4376788950054
534.7084210077068
534.9557947661592
535.179281974372
535.3783872112043
535.5526411113217
535.7015707987531
535.8247423398736
535.9217376222958
535.9921642607976
536.0356567594167
536.0518512263764
536.0404365197478
536.0011136498529
535.9336098765374
535.8376862384988
535.713118773126
535.5597210521906
535.3773360288923
535.1658389122368
534.9251379404469
534.6551684793276
534.3559001853812
534.0273308777905
533.6694956599033
533.2824651341607
532.866334698911
532.4212533574515
531.9473935342178
531.4449623446063
530.9142106105926
530.3554089921046
529.7688677128338
529.1549275804958
528.513968394733
527.8464152987509
527.1527123441064
526.4333484962054
525.6888486643569
524.91977132881
524.1267061033035
523.3102601461816
522.4710880693056
521.6098692252259
520.7273157099983
519.8241737876951
518.901203272714
517.9592071205278
516.999015107464
516.0214785344903
515.0274867965812
514.0179291934729
512.9937264459517
511.9558313736627
510.9052080317937
509.84284803421286
508.76974062736076
507.686914910637
506.59541010106085
505.4962810036958
504.39059229984764
503.27940389533444
502.1637999407743
501.04485869498023
499.9236725803493
498.80133976777296
497.6789471830251
496.55760386249733
495.43840427877063
494.3224397878746
493.2108078318141
492.1045839939344
491.00484437761907
489.9126485091939
488.8290550700645
487.7551049751503
486.6918109862786
485.64018653515643
484.60121560280186
483.5758686288606
482.56509876875737
481.5698186037131
480.59093144953033
479.62930792295003
478.68579115808745
477.761206561753
476.8563300182481
475.97192160609933
475.1087025560585
474.26735864396994
473.44854794489964
472.6528758077247
471.88094003367854
471.133273268747
470.4103815130418
469.7127434956496
469.040770817403
468.3948576512951
467.7753451664539
467.1825408000449
466.61671803808144
466.0780900419066
465.56684453619255
465.0831373255122
464.62707084392605
464.1987186517737
463.79809518626234
463.42520228761737
463.0799796064863
462.7623336761641
462.4721406284909
462.2092315999871
461.973419998253
461.76446098256645
461.58208074537026
461.425970770226
461.2957930568719
461.1911899430108
461.1117657494262
461.0570967822117
461.0267325423094
461.0201948500139
461.0369769687193
461.0765601762935
461.1383976549102
461.22193133070556
461.3265693585126
461.4517116645481
461.5967337383324
461.7610010176137
461.94387243947176
462.1446821620659
462.36276722682794
462.59745597823047
462.84806751014037
463.1139175613712
463.3942979895292
463.68851509792756
463.9958732872756
464.31566762522647
464.6471981104714
464.9897597817771
465.3426723667002
465.7052465877066
466.07679194544454
466.45663301037797
466.8440949883827
467.238522256734
467.6392618962548
468.04566671833544
468.45711137141393
468.87296682898244
469.29263405194683
469.71552743223083
470.14105361876466
470.5686579770236
470.9977748379529
471.42787611252527
471.8584321521848
472.2889337806935
472.718896780899
473.14783361993386
473.5752929580488
474.000835617521
474.4240501407935
474.8445356392283
475.2618910194815
475.67575658469406
476.08577683655034
476.4916179913105
476.8929702483202
477.2895193489702
477.68098135906723
478.06709142902577
478.44760366543414
478.82228441288464
479.1909142129346
479.5533052529137
479.90926409505397
480.2586263881208
480.6012433763725
480.9369662511406
481.26568085503214
481.5872789191651
481.9016620523072
482.208756652298
482.50849160592367
482.8008242545612
483.085709457709
483.3631188135886
483.6330402224344
483.89546430657106
484.1504102969966
484.3978950688792
484.63795472173047
484.87063775392807
485.095984998953
485.31407091158013
485.52496394244736
485.7287437409829
485.925505125389
486.1153314166843
486.29833559247515
486.47463147223056
486.6443266775419
486.8075548705522
486.9644358852649
487.11511247880014
487.259714775617
487.3983969050321
487.5313192314828
487.65862843975145
487.7804811742351
487.8970302307387
488.0084370963639
488.11487369219117
488.21651118128045
488.3135241865407
488.4060795412146
488.49434691655
488.57849841023744
488.6587037597812
488.73514097180424
488.80798969927724
488.8774114965353
488.9435800563505
489.0066479572351
489.06678562070283
489.1241634427917
489.17894736152545
489.23129886180016
489.2813681831403
489.3293115606734
489.3752800394806
489.41941486936224
489.4618647456742
489.502763684688
489.5422616744464
489.58048975701956
489.61756864005423
489.6536303554225
489.68878976386776
489.72317082572584
489.7568802316549
489.7900225721107
489.8227134847571
489.85504920882784
489.8871263787517
489.91903543101887
489.9508584028875
489.98268201152626
490.01458006592094
490.0466266195703
490.07889600413375
490.1114431289606
490.14434290992057
490.1776399991121
490.2114014482467
490.2456775324189
490.28051727477356
490.3159730347923
490.3520765567351
490.3888807560554
490.42642508001137
490.4647401536155
490.50385650538453
490.5437869891545
490.58456837783405
490.6262220024502
490.66877132234816
490.7122398487184
490.7566359345134
490.80198574158754
490.8483116541839
490.8956260036793
490.9439465195106
490.99327677023695
491.0436259343964
491.0949976888762
491.1474055463313
491.2008598944385
491.25535050631424
491.3108945849983
491.36750181229337
491.4251724597049
491.4839194636831
491.5437401278635
491.6046337213732
491.66659695013607
491.7296303677003
491.79373837104293
491.8589183054498
491.9251736850125
491.99250324678576
492.0609031316993
492.13037781594716
492.2009137978981
492.2725124075178
492.3451656301388
492.41886693572087
492.493620017941
492.5694037738257
492.64622261093547
492.72406923776646
492.8029356366226
492.8828219476732
492.9637102983996
493.0455888579406
493.12844730249043
493.21228113431766
493.29708083663695
493.3828208810166
493.46949682031965
493.5571013209228
493.64562446390534
493.735069366306
493.8254153488448
493.9166574900161
494.00878482911907
494.10179159677693
494.1956819920164
494.29044444128317
494.38608037270905
494.48257811236715
494.5799326449974
494.6781611145557
494.77725956573585
494.8772537826456
494.9781583037297
495.0799746404912
495.1827218874717
495.2864148889835
495.39108408952876
495.4967625768028
495.60347974553355
495.71128773466876
495.8202288420106
495.9303620597577
496.04173923296054
496.15442049160634
496.2684874822083
496.3840085483584
496.50107609166014
496.61978045948854
496.74021886189786
496.8624998835841
496.9867259353123
497.1130259407551
497.2415313960722
497.37237879170164
497.5057163677853
497.6416888496002
497.78045038597867
497.92216431809493
498.0669918647717
498.21512019371073
498.366716156906
498.52197614734195
498.681095004537
498.84426565092673
499.0116961344754
499.18358058031316
499.36012917115596
499.54154323756575
499.7280317760939
499.919810620254
500.1170797906957
500.3200577425022
500.5289477033838
500.74394977779696
500.9652620335963
501.1930640097047
501.42754614573596
501.66888886857106
501.9172505116664
502.172792314325
502.4356529885927
502.7059737989388
502.9838822669379
503.26947811585217
503.5628539824438
503.86407004896574
504.1731945312858
504.4902478759937
504.8152275443583
505.1481283557114
505.48890399286313
505.8375029856479
506.19385033874556
506.5578382089354
506.92934055743297
507.30819067263246
507.6942025213145
508.0871549323864
508.4867932680505
508.89284639970145
509.3049913166439
509.7228921715677
510.14618254221193
510.5744588864004
511.007300360593
511.4442361908921
511.88478988449316
512.328440468685
512.7746362116937
513.2228105550658
513.672352372797
514.1226442297428
514.5730484548674
515.022891352607
515.471475688358
515.9180777400263
516.3619730190703
516.8024096560833
517.2386102510203
517.6697998964506
518.0951685249638
518.5139209737273
518.9252418140801
519.3283017865343
519.7222837535229
520.1063539673715
520.479697134435
520.8414836917233
521.1909004611832
521.5271463139917
521.8494080473856
522.1569128271983
522.4488844369525
522.7245673628661
522.9832401375356
523.2241915290605
523.4467470328218
523.6502428754086
523.8340500061926
523.9975849661924
524.1402749558373
524.2615970314631
524.3610537351012
524.4381968330204
524.4926291940491
524.5239716266292
524.5319082433246
524.5161506824483
524.4764567344849
524.4126311696558
524.3245306924251
524.2120667033863
524.075186073894
523.9138931311128
523.728251985917
523.5183759631101
523.2844456058176
523.0266875337171
522.7453949158395
522.4409218410158
522.1136625866491
521.764092178006
521.3927261398215
521.0001391351095
520.5869858712645
520.1539676543445
519.7018779244515
519.2315760762915
518.7439815292413
518.2400677361536
517.7208447208443
517.1873955556589
516.640855212858
516.0824085240868
515.5133158023483
514.9348810896312
514.3484944878338
513.7555953985149
513.1576550516832
512.5562238917494
511.9528755649223
511.3492486552785
510.7470243176162
510.1479320437634
509.55377510382596
508.96638416522813
508.3876564715567
507.81951206977004
507.2639137878987
506.7228568061883
506.19833615548913
505.69237074328413
505.2069765410692
504.7441742049687
504.3060052181917
503.8944802287179
503.5116146835682
503.1594007087431
502.83980739492625
502.55477659810504
502.30619216045034
502.0959079663149
501.9257102144882
501.79731206015816
501.7123675963138
501.6724309345143
501.6789829583134
501.73340109104873
501.83695318321475
501.99080021012657
502.1959594056223
502.4533396700337
502.763696253845
503.1276314715271
503.5456109678896
504.017928163402
504.54471519023656
505.1259212606281
505.7613133161906
506.4504905537983
507.1928361998463
507.9875573457112
508.8336575951833
509.7299433053769
510.6750375499222
511.6673293395617
512.7050195893287
513.7861130906322
514.908418365064
516.0695574073517
517.26694346466
518.4978233287572
519.7592417340751
521.0480765398046
522.3610486211575
523.6947131715633
525.0454847614878
526.4096370114478
527.7833296123383
529.1626056798583
530.5433875055803
531.9215363520833
533.2928255304429
534.6529820520327
535.9976894438445
537.3225930895318
538.623349801391
539.8956210106513
541.1351058715171
542.3375640324567
543.4988149226084
544.6147502760776
545.6813636964939
546.6947713227344
547.6512256988003
548.5471159968056
549.3790090978003
550.1436394434392
550.8379527287153
551.4590960272265
552.0044307217624
552.4715704704945
552.8583587732311
553.1629129288352
553.383614191118
553.5190941420618
553.5682738172786
553.5303242097419
553.404685642397
553.19110473841
552.8896199760342
552.500614689137
552.0247628672176
551.4630447887953
550.8167515217153
550.0874300671937
549.2769261627006
548.3873277335673
547.4209816557537
546.380529711524
545.2688263969815
544.0889942868832
542.8443565343192
541.5384365564233
540.1749457039875
538.7577323753582
537.2908062587807
535.7782866973632
534.2244043156915
532.6334882771
531.009945922044
529.3582659944544
527.6830021182143
525.9887281379802
524.2800394293491
522.5614881061482
520.8376296404373
519.1129690520688
517.3919469172566
515.6789323439186
513.9781902027559
512.2938972013841
510.6301020218307
508.9907237839769
507.3795451551172
505.80017601274045
504.25606639349184
502.75048773832333
501.2865109320492
499.86703588389145
498.4947415678934
497.172120558379
495.9014380834231
494.68474685287384
493.5238963771544
492.42049955502216
491.375974644226
490.3915228002485
489.46813084725835
488.60658586455
487.8074533602387
487.0711153508016
486.39776322739687
485.78739135139364
485.2398218047978
484.75470106366026
484.33152825125194
483.9696469367152
483.6682413947678
483.4263833598363
483.2429894338568
483.11688142258055
483.04676565517286
483.03126722227637
483.06892504104974
483.1581933360446
483.29747349543214
483.4851064322554
483.71938660868005
483.99858001889356
484.3209090854028
484.6845985530645
485.087850767228
485.5288686922986
486.0058653235428
486.5170594098055
487.06069704045865
487.6350485531891
488.23840048370107
488.86908391268054
489.5254450673772
490.2058896398382
490.90887650290455
491.63290254492085
492.3765197053098
493.1383054609812
493.91690487903094
494.7110151708501
495.5193855210166
496.340818846833
497.1741578732082
498.01831264887977
498.8722331824368
499.73492371412107
500.6054327422568
501.4828538676206
502.36633801077505
503.2550686823939
504.1482856031014
505.0452891660142
505.945386130885
506.84792907396076
507.7522696484469
508.6577811939099
509.5638545148415
510.4698732718359
511.3752633829451
512.2794503653729
513.1818823491566
514.0820247304656
514.9793106438988
515.8732069523627
516.7631554557344
517.64859937572
518.5289989644674
519.4037928396114
520.2724364323543
521.1343730626561
521.9890471533627
522.8359180824172
523.6744311359382
524.5040327577641
525.324151014292
526.1341824787911
526.9335446394767
527.7216303659285
528.4978592923833
529.2616246740768
530.012310247857
530.7493135949524
531.4720151391089
532.1798152031969
532.8720989031128
533.5482513557328
534.2076661701344
534.8497253968654
535.4738253283509
536.0793650148032
536.6657389213751
537.2323687864172
537.7786521596346
538.3040287578641
538.8079308799971
539.2898148412244
539.7491574672342
540.185437290435
540.5981682247768
540.9868654847775
541.3510573208301
541.6903053762984
542.0041791687437
542.2922920526148
542.5542762912849
542.7897691459607
542.9984446963684
543.1799711641207
543.3340375990633
543.4603690255054
543.5587089087828
543.6288389997666
543.6705333737749
543.6836282542395
543.6679739071726
543.6234457716965
543.5499532128531
543.4474308736396
543.3158522513394
543.1552127373335
542.9655368172058
542.7468984921004
542.499387246521
542.2231422862268
541.9183169161704
541.5850688395554
541.2235978202388
540.8341105280795
540.416854979147
539.9721065191737
539.5001601897577
539.0013689491662
538.4761011367217
537.9247747991961
537.3478243197317
536.7456996873331
536.1188962122625
535.467912098303
534.7933089996288
534.0956656704003
533.3755732359507
532.6336587113835
531.8705581537647
531.0869445196832
530.2835051134807
529.4609473946009
528.6200069922228
527.7614228265227
526.8859469697046
525.9943540953324
525.0874356991565
524.1659988361811
523.2308338759173
522.2827695751674
521.322629747681
520.3512489644581
519.3694795632101
518.3781616772094
517.378161259316
516.3703315592983
515.355524913044
514.3346001050294
513.3083924934597
512.2777564514012
511.24352021729356
510.2065216804128
509.1675986573688
508.1275464488928
507.0871713760363
506.04725681863596
505.00857970049293
503.9719096530974
502.9379775382594
501.90751820406354
500.8812368100559
499.85983223691255
498.84399683100787
497.8343768757867
496.83162029479877
495.8363411793856
494.8491414142079
493.87061292263763
492.90130486945935
491.94177391621673
490.99253617734945
490.05408924232455
489.12692320748783
488.2114946058385
487.30825516961124
486.4176391513172
485.5400661816558
484.67595319457945
483.8256827569058
482.9896546967919
482.1682350061219
481.3617857480909
480.5706599575018
479.79519424827475
479.03571677520495
478.29252638930467
477.5659171696888
476.8561896443773
476.16362034224517
475.48849020587164
474.83106235399487
474.19159460060877
473.5703762179933
472.96768440352895
472.3838313422321
471.8191245422887
471.27385780054925
470.74832803125224
470.2428124263891
469.7576175865181
469.29302340745653
468.8493139645745
468.4267862000112
468.02570369381016
467.64634374830086
467.2889738857862
466.95385884062665
466.64126297931625
466.3514040825964
466.0844981067458
465.84074647813304
465.6203628648423
465.42360768496843
465.25071926123803
465.1019598254897
464.9775616817183
464.87773049102884
464.80266354873964
464.7525019391939
464.7273628431766
464.7273250279756
464.7524421779342
464.80276707481414
464.8783037492932
464.9790517584211
465.10495409495087
465.2559278505289
465.43186436751165
465.63260555020895
465.8579726711302
466.1077472342224
466.38166958799746
466.67944649305025
467.00073478048796
467.34516027912383
467.7123087680816
468.1017126314573
468.51287245368627
468.9452329544712
469.3982140595117
469.87117866640745
470.3634529186286
470.8743181862944
471.4030029478993
471.9487119617511
472.5106075412667
473.08781075280336
473.67942039209913
474.28448394622126
474.90204101687976
475.531090469647
476.17060596226764
476.8195273452416
477.4767605940287
478.14121957606824
478.81179164366415
479.48735379178385
480.1667714461499
480.8488862863177
481.5325500284737
482.2166012256372
482.899881489342
483.58124293565334
484.2595315753204
484.93362783455177
485.60241272139973
486.2647777236057
486.9196454578409
487.56595302244904
488.20267710377726
488.8288085351461
489.4433813651512
490.0454759174375
490.6341912069413
491.2086762088721
491.76812146628157
492.3117548345621
492.83885443037616
493.34872616516003
493.8407487332593
494.3143416900271
494.7689728136294
495.20418275997275
495.61954619581525
496.0147049507154
496.3893660224726
496.74330883514244
497.0763819107568
497.3884754852562
497.6795530186248
497.9496212763919
498.19874595400745
498.42705591984014
498.6346898913255
498.82184919468386
498.98877088220206
499.1357507830403
499.2631447279432
499.3713525192511
499.4608460076442
499.53212522296894
499.58574254543834
499.62230080287077
499.6424142732713
499.6467683622872
499.63605257614563
499.6109829227635
499.57230417269284
499.52077667602356
499.45720946509437
499.3824215702801
499.2972513126783
499.2025366211874
499.0990679798681
498.9876582121683
498.86909339868356
498.74417773835734
498.6137352460005
498.4785750893016
498.3395255329424
498.1974141209717
498.0530574585775
497.90727115144404
497.76081200724497
497.6144337646113
497.4688660659026
497.32481354991563
497.18295941484973
497.0439491988583
496.9084163468154
496.7769531049166
496.65012286907853
496.5284593927553
496.41245728020766
496.3025864821061
496.19928280441206
496.10295609416954
496.01398993965097
495.9327174137374
495.8594580318395
495.7945002532162
495.73810847785444
495.6905216118004
495.65194100612496
495.6225491352699
495.6025063494607
495.59193469177904
495.5909477943326
495.5996173510461
495.6180118084199
495.6461650014448
495.68409287106044
495.7318057919935
495.78928611785875
495.85651830101443
495.9334641222629
496.0200641213493
496.11626283056944
496.22198365932337
496.3371608734427
496.4617212533699
496.5955789217569
496.7386563114603
496.89085454141684
497.0520893005617
497.2222696586397
497.40129428422375
497.58908699233723
497.785551281095
497.9906012820012
498.20415524943184
498.4261247023319
498.6564229844744
498.894951471407
499.1416294047442
499.39638008306355
499.6591214930565
499.92978758834437
500.20830160475754
500.49461091388093
500.78864320206407
501.0903126778701
501.3995478792744
501.71624045037476
502.04030087088336
502.3716222483995
502.7100876850142
503.0555708553751
503.40791235003394
503.7669636336258
504.13255233370205
504.5045026290762
504.88262308389227
505.2666901354381
505.656484384831
506.0517593732853
506.45224758243273
506.85766638048216
507.26768678337226
507.68197210050477
508.10013759722455
508.5217822947023
508.94648147740116
509.3737573654588
509.80312854872295
510.23406320037327
510.6660243785836
511.09845252335646
511.5307462142889
511.9622889299078
512.3924343445617
512.820518336291
513.2458560380584
513.6677238368235
514.0854162780465
514.4981830591447
514.9052623727717
515.3058724169971
515.699198163725
516.0844217092924
516.4607065906788
516.8272016399517
517.1830623207421
517.5274151887317
517.8594210463924
518.1782291211921
518.4829836579273
518.772861077323
519.0470265456526
519.3046760202909
519.5450126893098
519.767258581146
519.9706617500677
520.1544838086038
520.3180224909333
520.4606034484369
520.5815830342796
520.6803575402747
520.7563526691787
520.8090503661078
520.8379609107828
520.8426384212095
520.822689488266
520.7777554895964
520.7075408258886
520.6117928460689
520.4902899963272
520.3428884598543
520.1694833249353
519.9700441895452
519.7445893976488
519.4931952210097
519.216011541859
518.9132337143831
518.5851446252062
518.2320782287633
517.8544268900745
517.4526707174203
517.0273283057079
516.5790037412811
516.1083592793278
515.6161186831042
515.1030947326315
514.5701557961787
514.0182626649005
513.4484488289153
512.8617857421524
512.259430915371
511.64256150841646
511.0124360539585
510.3703678249733
509.7177193966673
509.0559402791669
508.3865256341169
507.7110469248898
507.0311164426982
506.34838836394687
505.6645807919952
504.98143813951293
504.30077393018223
503.62443668774125
502.95432620509627
502.2924057438045
501.6406577080387
501.0011205912868
500.37585390981417
499.76693168914875
499.1764444939688
498.60647696899946
498.0591420802752
497.53653192510063
497.0407337869808
496.573828346422
496.1378615002371
495.7348750801101
495.36687187782366
495.03581131867475
494.74361796255494
494.49213285539696
494.28315654734456
494.1183998867909
493.99950901558674
493.9280378137176
493.90543114279654
493.9330452949477
494.0121180867449
494.1437718935738
494.32899269639097
494.5686221442731
494.8633717885239
495.21378948284047
495.620256473011
496.08299767688703
496.6020485678841
497.1772927304777
497.8084037060959
498.4948836620671
499.2360460246055
500.03099890621206
500.8786620885213
501.77774763642026
502.7267697171176
503.7240422359519
504.7676597936155
505.85553414210335
506.98536806405804
508.15467832401447
509.3608023651728
510.6008665346925
511.8718360773342
513.1704938433562
514.4934636134029
515.8372279546467
517.1981012606947
518.5722911209049
519.9558797249102
521.3448325797461
522.7350319711292
524.1222607919319
525.5022460394277
526.870652486559
528.2231184634173
529.555268102009
530.8627064935706
532.141067651473
533.3860256002798
534.5933147575678
535.7587664428389
536.8782648212882
537.9478205590281
538.963565296544
539.9217656568474
540.8188674397192
541.6514648417264
542.4163541264578
543.1105203836472
543.7311668180923
544.2757450912857
544.7419231590495
545.1276436000877
545.431101670828
545.6507655499056
545.7853884918376
545.8339841938117
545.7958636299982
545.6705976550064
545.4580362581634
545.1583700046396
544.7720793819244
544.2999912755072
543.7432305563578
543.10321962206
542.381684283116
541.5805933805082
540.702213337027
539.7490547452927
538.7238950124733
537.6297744839765
536.4699376279017
535.2478676523061
533.9672217747737
532.6318309493307
531.2456959909642
529.8129297888795
528.3377855939543
526.8246073913976
525.2778271163472
523.7019697663322
522.1016079654934
520.4813755025541
518.8459173421337
517.1998769182146
515.5478878520885
513.8945262894491
512.2443401053621
510.60178007684004
508.97121016783143
507.3569074350783
505.7630037737074
504.19352056515606
502.6523256112983
501.14312849606125
499.6694573676353
498.2346475439779
496.8418575174136
495.49404041086086
494.1939320471731
492.94406199041754
491.74673309766814
490.6040287370741
489.51780801962707
488.4897111456182
487.521159818914
486.61332823268026
485.76718061123205
484.9834505084845
484.2626649474921
483.60513901356785
483.0109734204739
482.4800813004507
482.0121763362106
481.6067900000329
481.2632760691549
480.9808264696987
480.7584878394434
480.59516332717266
480.4896169160072
480.4404976065467
480.4463220802424
480.50552745706176
480.616458479236
480.7773832832006
480.9865112405197
481.2419711832167
481.54188132473206
481.88430734260675
482.26728568623446
482.6888595442332
483.1470444778974
483.63988110258595
484.1654172442486
484.7217313128531
485.30693549705734
485.9191565132881
486.55657906375205
487.2174403997606
487.90001987989604
488.60265394115703
489.32371720134626
490.06168827974506
490.8150950703694
491.5825271883777
492.3626608546944
493.1542175703999
493.95600980600614
494.7669163539035
495.58588802195595
496.41195531476944
497.2441941912451
498.0817747083874
498.92391563308934
499.7698979854783
500.61907174026953
501.47083193105897
502.3246430374446
503.1800196824979
504.0365383980289
504.89383015920674
505.75153754953334
506.6093434285707
507.4669419698006
508.3240461412035
509.1803881520734
510.0357019013441
510.88976218019224
511.7423319606477
512.593185993178
513.4421013622913
514.288828013861
515.1331336111953
515.974760989069
516.8134536680773
517.6489535295987
518.4809683358143
519.3092163252173
520.1333905775944
520.953172261593
521.7682313853703
522.5781951438793
523.3826800150225
524.1812671554881
524.9735042719662
525.75893405388
526.537048662539
527.307340776822
528.0692585047506
528.8222393866689
529.565705390018
530.2990295361443
531.0215856427541
531.7327150503697
532.4317414079516
533.1179767309189
533.7907124655816
534.4492369828608
535.0928136190786
535.720695743122
536.3321374794571
536.9263716449652
537.5026335154414
538.060160557103
538.5981746850731
539.1158992090554
539.6125536261864
540.0873770726749
540.539614791628
540.9685112227432
541.3733270640679
541.7533190392768
542.1077764949935
542.4359902117569
542.7372694312951
543.0109544358291
543.2563965303202
543.4729686253282
543.6600712110334
543.8171142739959
543.943555955076
544.0388558783892
544.1025335432685
544.1341283000861
544.1332053077186
544.0993722144123
544.0322518606945
543.9315359581739
543.7969316293322
543.6281865782721
543.4251054726876
543.1875050238372
542.9152717551194
542.6083191309804
542.2666036618242
541.8901363347808
541.4789524212435
541.0331558158523
540.5528912169701
540.0383379810775
539.4897343532122
538.9073514181106
538.291526167706
537.6426242515532
536.9610616450619
536.2473067198578
535.5018558556013
534.7252679227782
533.9181462529999
533.0811294083979
532.2149124321882
531.3202132538142
530.3978112485279
529.4485046020499
528.4731440597741
527.4726295385396
526.4478761666293
525.3998501493244
524.329545425419
523.237986445226
522.1262373810137
520.9953763501626
519.846526445595
518.680829855072
517.4994569644374
516.3036045022127
515.0944785028315
513.8733165928368
512.6413619413269
511.3998787830704
510.15014830845615
508.8934447774171
507.63107281551487
506.36432597146216
505.0945064687581
503.82292510619726
502.55088151058976
501.2796839685367
500.010627593722
498.74500079943965
497.4840940248645
496.2291647243035
494.9814789098331
493.74227619813047
492.51277646335313
491.29419747070557
490.0877069683689
488.89447984926375
487.71564602357665
486.5523149299065
485.4055672453064
484.276439954143
483.1659574882267
482.0751017851686
481.00481967517806
479.9560171300486
478.9295554955539
477.9262718859136
476.94694955040376
475.9923430350281
475.0631641620928
474.16007040065244
473.28368168722267
472.4345710527957
471.6132617779777
470.8202488286208
470.05596163221463
469.3207924123377
468.6150850137194
467.93912822357026
467.2931754676903
466.67742086773495
466.0920323516096
465.5371104926248
465.0127195172402
464.5188900341159
464.0555847298476
463.62274060119086
463.2202457065315
462.8479444141204
462.50565597677615
462.1931319914144
461.91011444663616
461.65628446490143
461.431287458441
461.2347517519524
461.0662571563541
460.9253693977201
460.8116066363721
460.7244584547015
460.66339833464497
460.6278588397938
460.6172704862324
460.6310219826908
460.66848817625583
460.7290383814623
460.8119965956696
460.916691334404
461.0424310373568
461.18851229516974
461.3542281730713
461.5388458478487
461.74164539548264
461.9618907869213
462.1988358192341
462.4517408114918
462.7198608271003
463.00246255097585
463.298808358319
463.6081532702338
463.9297768204936
464.26294053389057
464.6069394317667
464.9610595019245
465.3246074124576
465.6969029245673
466.0772558327667
466.4650149970862
466.85953651152283
467.2601957681633
467.66638643352826
468.07750181526444
468.4929707727754
468.91223226477626
469.3347448533064
469.7599916843836
470.18745692931265
470.6166700042254
471.0471732164946
471.47852889843557
471.91032202431035
472.34214508605817
472.7736353414146
473.20443544756273
473.6342241186385
474.0627118868541
474.489606294782
474.91465337919277
475.3376243702399
475.7583069772252
476.1765250310043
476.5921011552918
477.00490910609267
477.41482548193676
477.82175141140004
478.2256231661898
478.62637241708444
479.02397396935817
479.4184101711688
479.80968779309717
480.1978440273741
480.58292196365215
480.96500081934886
481.34416705487087
481.72051826641365
482.09418220453017
482.46530089554057
482.8340302395222
483.2005305231718
483.5649895663618
483.9275999359975
484.28855790288435
484.6480885658039
485.0064317530565
485.36383042112504
485.7205364708519
486.076792115672
486.4328724292225
486.7890449698989
487.145579598807
487.5027559832203
487.86084268114917
488.2201264238462
488.5808801133851
488.9433812685981
489.3079063844325
489.6747119479637
490.04407018549387
490.4162283677005
490.79142707775725
491.1699029579261
491.5518717590251
491.93755325285167
492.32714149455876
492.7208210830744
493.1187705011216
493.5211238507079
493.9280089881715
494.3395242264606
494.7557456502074
495.1767476931767
495.60256055504885
496.0331933015035
496.4686238992898
496.90880904750895
497.35368551571685
497.8031364910474
498.25703457294037
498.715212643998
499.1774719174591
499.6435900202533
500.1133008717201
500.5863185633936
501.0623174805195
501.5409344063759
502.0217927128758
502.5044699277717
502.9885092276544
503.47342424071434
503.9586951737401
504.44378714571326
504.92811181672226
505.4110744288661
505.8920377428805
506.37034742178054
506.84533358289895
507.3162775288569
507.7824638927706
508.2431386402434
508.6975282661504
509.1448457414487
509.58428121286414
510.01502577926584
510.4362625495497
510.8471600786819
511.2468922393844
511.63460336926556
512.0094653232557
512.370631696525
512.717262000272
513.0485349250299
513.36363128548
513.6617588362232
513.942126710124
514.2039657382444
514.4465311919301
514.6690747093269
514.8709036912811
515.0513357195464
515.2097162063103
515.3454424277479
515.4579198392795
515.5466233565197
515.6110382376688
515.6507036248856
515.665216620732
515.6541904763906
515.6173088998727
515.5542926937694
515.4649011901072
515.3489572905426
515.2063108772317
515.03688951236
514.8406592968591
514.6176469455366
514.367953208885
514.0917183552334
513.7891488102895
513.4605198274267
513.106163293207
512.7264774240894
512.3219102827005
511.8930004182537
511.4403280092126
510.9645293828908
510.46632664993285
509.94649435627747
509.40590300398486
508.84548835342406
508.2662563257399
507.6692771908902
507.0556662890708
506.42661227864727
505.7833388661812
505.12713329839374
504.45935644270094
503.78143266149505
503.09485919702155
502.4011823879761
501.70200841825306
500.99900918662814
500.29388373311417
499.5884019312345
498.8843863432976
498.18371154487
497.4883165370015
496.8001756437781
496.1213375871987
495.4538863525217
494.7999351908256
494.1616402050016
493.5411479689642
492.94063677828115
492.36230283949254
491.80834628405313
491.2809722164553
490.7823694020934
490.3147324844275
489.88024688785214
489.4810737152555
489.1193521152075
488.7971575381282
488.5165339134317
488.2794685108139
488.0878818761199
487.94363731087907
487.84849977989774
487.8041514044533
487.8121872143002
487.87408902354315
487.9912320851764
488.1648479057767
488.3960549097729
488.68582354874957
489.0349722313134
489.44416782626644
489.9138868383667
490.44446883354857
491.0360567521679
491.6886122242973
492.40191613719367
493.175539290486
494.0088597158255
494.9010544084177
495.85107207892486
496.8576656328693
497.9193553786471
499.0344742121957
500.2011240540832
501.41720318378884
502.6804018121875
503.98818978041913
505.33784234481186
506.72644070588456
508.1508649880202
509.6078232801417
511.09382683115643
512.6052473892473
514.1382815401543
515.6889926331768
517.253312274772
518.8270272708972
520.4058438784081
521.9853522060968
523.5610767427632
525.12848168989
526.6829613282409
528.2199096867818
529.734705554651
531.2227440900284
532.6794736816978
534.1003635040314
535.480971952671
536.8169274774015
538.103961807263
539.3379384979536
540.5148328041588
541.6308027072915
542.6821652255501
543.6654155414324
544.57727541137
545.4146596065575
546.1747439522139
546.8549180447043
547.4528436013959
547.9664654644844
548.3939708107305
548.7338602904753
548.9848903580565
549.1460942820206
549.216818421348
549.1967134391509
549.0857752310459
548.8843156026367
548.5929877500081
548.2127681600607
547.744918550719
547.1909927182738
546.5528290139641
545.8325550615718
545.0325985265179
544.1556407324376
543.2046554071011
542.1828311098036
541.0935777853309
539.9405187014602
538.7274438157663
537.4583161798344
536.1372370146427
534.7684396724042
533.3563043249285
531.9052865594346
530.419963542469
528.9049837174553
527.3650361717317
525.8048481992613
524.2291565761029
522.6426900499645
521.0501520073657
519.4561703449382
517.865321686276
516.2820836742064
514.7108582091886
513.1559322760756
511.6214573106252
510.1114471481772
508.62974416859396
507.18002810391863
505.7657976674263
504.3903533626909
503.0568055479971
501.7680379457118
500.5267359405232
499.33536583857654
498.19615992212266
497.1111356766918
496.0820637428683
495.1105050026591
494.19777863631157
493.3449772231325
492.5529786746838
491.8224218919624
491.15374241825833
490.54716088009974
490.0026852255781
489.5201443558571
489.09916134769963
488.73920170644124
488.4395435319167
488.19930940907284
488.0174767173592
487.8928708653363
487.82419816819703
487.810050424224
487.84889210836207
487.93911971714647
488.0790227374931
488.26683870650396
488.50073149002816
488.77881752400634
489.09917640615777
489.45984582584384
489.85886437240794
490.2942504362745
490.76402669559155
491.26622892889065
491.79889672487093
492.3601117892777
492.9479809356617
493.56064239610026
494.1962866242508
494.85311931696475
495.5294308282362
496.22355560900155
496.93388799642247
497.6588996049277
498.39710586479123
499.1471174695858
499.9075885419533
500.6772539797964
501.4549316523957
502.23948053485566
503.0298591279386
503.82507213587803
504.6242067949923
505.42641888811755
506.23089884237584
507.0369339872476
507.8438526780868
508.65105179350854
509.45799182379324
510.2641612192616
511.06910579186416
511.8723939983818
512.6736231779817
513.4724162670045
514.2684090244517
515.0612764227419
515.850708767001
516.6364161232052
517.4181280936139
518.19555387939
518.9684250906778
519.7364507277927
520.4993575991995
521.2568743314382
522.0087114033854
522.7545875978724
523.4942177640576
524.227305675337
524.9535616033936
525.6726524974531
526.3842620198415
527.0880373047592
527.783601485573
528.4705708145187
529.148524050922
529.8170287287667
530.4756348374447
531.1238644977399
531.7612501364914
532.3872856565239
533.001463048358
533.6032521800423
534.1921002421037
534.7674530358543
535.3287261031718
535.8753392703928
536.4066965102511
536.9221965011026
537.4212387780626
537.9031992710544
538.3674692606921
538.8134352791718
539.2404632554365
539.6479436398424
540.0352490259526
540.401775020786
540.7469241851044
541.070092213753
541.3706999614121
541.6481619137496
541.9019203348322
542.1314247515447
542.3361420980785
542.515562510023
542.6691788362576
542.796518579772
542.8971122547928
542.9705272912561
543.0163561465257
543.0342000415332
543.0237051041504
542.9845373445929
542.9163815896632
542.8189775993897
542.692066564539
542.5354403200369
542.348911677044
542.1323240191152
541.8855673416612
541.6085505096955
541.3012392255943
540.9636174420176
540.5957032463491
540.1975622809081
539.7692862246901
539.3110238501956
538.8229530726042
538.3052835475385
537.7582743544122
537.1822011780965
536.5774132122093
535.9442764080708
535.2831975453796
534.5946328583208
533.879052825124
533.1369855451868
532.3689855011135
531.575648337467
530.7576102958667
529.9155299203162
529.0501201553657
528.1621125416405
527.2522737944892
526.3214069415354
525.3703281679049
524.3999159344854
523.4110551495856
522.4046577422412
521.3816677463178
520.3430445319851
519.2897942987826
518.2229360131379
517.143504527096
516.0525623402832
514.9511718753884
513.8404178766308
512.7213967445128
511.5952234788266
510.46303221658883
509.32594391616317
508.18510839930286
507.04166098922656
505.89674685433914
504.75152112062574
503.6071162519375
502.4646816219796
501.3253618204458
500.19029052228603
499.06060629110414
497.9374136476169
496.82182505908037
495.71492403911725
494.61778068651154
493.5314563672664
492.4569778038375
491.3953725667837
490.34763032419676
489.3147187426259
488.29759069422806
487.29715433199925
486.314302305522
485.34989072676166
484.40474436751225
483.47966198648413
482.5753866844519
481.6926484484316
480.8321323971973
479.9944909767441
479.1803409852308
478.39024090485856
477.62472949522873
476.8842966633227
476.1693872047302
475.48042886355745
474.8177731299213
474.18175841864735
473.57267494913003
472.99075603640216
472.4362131485887
471.9091944956505
471.4098245783766
470.9381738309699
470.49427645243605
470.078130786643
469.68968453548905
469.32885950049445
468.99553266060775
468.6895480723137
468.4107091192267
468.15877721390274
467.9334903737337
467.73454682092256
467.56161048849447
467.41432326198094
467.29227552041135
467.19505321783845
467.1222064565795
467.0732554067651
467.04771591669993
467.04505739373906
467.0647416791746
467.1062048260817
467.1688718761153
467.2521544586786
467.3554329019765
467.47809505302257
467.6195051010976
467.77902278384903
467.9560118096692
468.14981118897805
468.3597721548142
468.58523133508027
468.8255232514818
469.07999942079806
469.34798831775646
469.62885601132626
469.92195534297343
470.22664504098015
470.54230641733113
470.86831637086124
471.2040750490123
471.5489896088945
471.90247980956866
472.2639945417046
472.63298240570265
473.00892791814346
473.3913174452414
473.7796618573164
474.1735038976584
474.5723927591621
474.97591552063517
475.3836736585583
475.79528130772286
476.2103961581743
476.628682490685
477.0498487102622
477.473623677376
477.8997570665378
478.3280348028878
478.7582397136158
479.1901973213099
479.62375566558626
480.0587915413342
480.4952103363166
480.93291267011784
481.37185488351247
481.81199363840744
482.2533046296387
482.6957988322955
483.13948193442343
483.58440120829925
484.0306157783812
484.4781998320777
484.92725023433525
485.3778546930795
485.83012753908645
486.2841861765234
486.74015607153774
487.1981779291519
487.65837753171286
488.12090107510664
488.5858914458046
489.0534886826542
489.5238412532042
489.9970714635685
490.4733218569366
490.9527140898034
491.4353537549716
491.9213393398093
492.4107426067669
492.9036459775351
493.40010137534955
493.90014165705486
494.40379203278974
494.91102901940155
495.4218423744096
495.93617252625415
496.45393324892075
496.9750278448168
497.49930872060554
498.0266201413449
498.55675794019857
499.0894971572946
499.62458259547606
500.1617107914222
500.700557956848
501.24076205356073
501.78192474358013
502.32362222929225
502.86539008032986
503.40673674845
503.94713535292124
504.4860177571299
505.02279933276765
505.55685365897057
506.0875400874811
506.61416796809294
507.1360285602518
507.65240313404803
508.16251886482803
508.6655987604547
509.16084604918376
509.64743308511794
510.1245296214932
510.59127879921874
511.046830287483
511.4903099357668
511.920833184079
512.3375249264527
512.7394869397118
513.1258442366865
513.4957280669506
513.8482657139674
514.1826185463492
514.4979260468925
514.7933766866137
515.0681539237437
515.3214741151303
515.552587339601
515.7607497236471
515.9452633761491
516.105457120621
516.240686825832
516.350363924202
516.4339225495866
516.4908610795362
516.5207158549806
516.5230655219718
516.497550472593
516.4438395509532
516.3616709634257
516.2508251216815
516.1111255797052
515.942476859593
515.7448080344809
515.5181253874398
515.26248384083
514.9780042466188
514.6648754699629
514.3233214737073
513.953664679532
513.5562782061902
513.1315885016592
512.6800975031426
512.2023569116297
511.6990084701521
511.1707391047862
510.6183172342308
510.04257701318215
509.44439604056515
508.8247539830636
508.18469094868357
507.52529681830146
506.8477244097857
506.15315823632017
505.4428569357962
504.7181270813624
503.9803224175369
503.23088175220846
502.471285610347
501.7030916002306
500.92789064675736
500.14731723285314
499.3630719489483
498.576875658849
497.79053494347494
497.00588491570755
496.2248107913436
495.44926517356885
494.68122893957786
493.92274472170124
493.17586521600083
492.4426736640746
491.7252823004763
491.02579332769346
490.3463513856664
489.6890884495684
489.05614507551206
488.4496717173467
487.8717947454274
487.32465676177435
486.8103649864943
486.3310117715216
485.8886511040467
485.4852899496247
485.12290997697477
484.8034258151879
484.52868892809255
484.3004911014545
484.120534916329
483.99044559200996
483.91175423212565
483.88588757843394
483.91418187612055
483.9978268244368
484.13790559951144
484.3353560694439
484.59098492638014
484.9054535395574
485.27924642360546
485.712703574776
486.20598977920184
486.75908826253914
487.37181892927936
488.0437916342145
488.7744497228637
489.5630267636914
490.4085630543605
491.30991202829586
492.2656993057825
493.27437216271824
494.33417112744945
495.44311771275636
496.599055450688
497.79960203442755
499.0422184913099
500.3241547775335
501.64248383045657
502.9941081227027
504.375745279485
505.7839781804768
507.215223096056
508.6657599978809
510.1317594882948
511.60924954049443
513.0941682655912
514.5823472346319
516.069543413948
517.5514696453229
519.0237690231763
520.482079505618
521.922022519811
523.339235982635
524.7294015979703
526.0882157942585
527.411463653319
528.6949967587922
529.9347612787473
531.1268190188389
532.2673438562138
533.3526767509504
534.3792988647652
535.3438801622717
536.2432856359453
537.0745716130358
537.8350288143122
538.522164936779
539.1337272815438
539.6677126933726
540.1223713988499
540.4962357457306
540.7880792959456
540.9969348942666
541.1221459387702
541.1633467685648
541.1205085701804
540.9939045393972
540.7841101134746
540.4920162283325
540.1187567545569
539.665759433641
539.1347234473502
538.5276271580881
537.8467422820446
537.0945624563354
536.273851587506
535.3875686641626
534.4388897105802
533.4311912836911
532.3679908944189
531.252981848296
530.0899787718436
528.8829361208118
527.6359372734065
526.3531545892228
525.0388727529531
523.6974244149584
522.3331912066176
520.9505937710861
519.5540358144889
518.147928981776
516.7366345104823
515.3244728610807
513.9157052803872
512.5145094929474
511.1249780738679
509.75108247264546
508.3966773698002
507.06548871808684
505.76107008770754
504.48682555100197
503.24598545582575
502.0415900465692
500.87650704541005
499.7533782256803
498.67467234291223
497.64262995101546
496.659288151163
495.7264803347701
494.845793444144
494.0186224531351
493.24614939088116
492.52934129994
491.8689559036515
491.265521727856
490.71938671284806
490.2306953889244
489.79940201742517
489.4252910997282
489.10795039994224
488.84682560829543
488.6411967690927
488.49018138043994
488.39278593164147
488.34786156164665
488.35416282249645
488.4103210730717
488.5148769865315
488.66629567730524
488.8629533922002
489.10317451409486
489.38521568533776
489.70730215698677
490.06762903511196
490.4643445709603
490.8956073312226
491.3595643409632
491.85437058472905
492.3781971138712
492.9292122072972
493.5056428566075
494.10573305768776
494.727764963662
495.3700638146029
496.0309822989149
496.70894767015915
497.4024273078343
498.1099526939633
498.83012542824576
499.56158564875483
500.30306082141993
501.0533331629886
501.81125277226386
502.5757415572942
503.34577730581935
504.12041492852546
504.8987615380383
505.67998418525474
506.4633306232753
507.2480868355685
508.03360893652354
508.81930460558493
509.60463677523427
510.3891364713366
511.17235208423267
511.953876757933
512.7333201477338
513.5103143974542
514.284523941955
515.0556022294419
515.82326191421
516.5872248268789
517.3472178127124
518.1029856978289
518.8542446984764
519.6007384094412
520.3421953604318
521.0783546429553
521.8089548085587
522.5337099774622
523.2523587057054
523.964623928456
524.670224032497
525.3688757658671
526.060255899154
526.7440418064605
527.4198821206792
528.0874070876692
528.7462392205655
529.395969183441
530.0361934064616
530.6664755353132
531.2863693485169
531.8954221854505
532.4931501792207
533.0790682831795
533.6526699718167
534.2134354306023
534.7608396918835
535.2943278969602
535.8133649905745
536.3173980930848
536.805862627806
537.2782102263969
537.7338578685644
538.1722463173325
538.5928021378743
538.9949631651464
539.3781690136424
539.7418447724606
540.0854503821107
540.4084426382303
540.7102741835087
540.990418544198
541.2483514917776
541.4835873817312
541.6956434711354
541.8840369857088
542.0483213006441
542.1880366720789
542.302770289509
542.3921156572858
542.4556822675241
542.4931228415808
542.504084008062
542.4882575364677
542.4453550029584
542.3751131425101
542.27730363092
542.1517033887021
541.9981325134496
541.8164374642586
541.6064962217728
541.3682255825994
541.1015513029677
540.8064569991956
540.4829410494049
540.131032461692
539.7508065342381
539.3423611711803
538.905848131423
538.4414297265979
537.9493095956993
537.4297349709602
536.8829705323124
536.3093335032736
535.7091738791673
535.0828722855207
534.430850891047
533.7535468537021
533.0514602296977
532.3251143904905
531.5750667854868
530.8019240555341
530.0062936242273
529.1888378003042
528.3502445183972
527.4912332611664
526.6125697590476
525.7150126940309
524.79938041889
523.8665060219172
522.9172426410366
521.952483920459
520.9731297944776
519.9801244960688
518.9744311910814
517.9570263310916
516.9289135779406
515.8910938029801
514.8446183106958
513.7905284286976
512.7298758443238
511.66373617670547
510.5931787432857
509.5192998806619
508.44319068805385
507.3659440697656
506.2886594129711
505.2124208886372
504.1383327192691
503.0674822325513
502.0009488032025
500.9398193557255
499.8851535970868
498.83801946817977
497.79946302237175
496.7705110459862
495.7521912115485
494.74548672962095
493.7513784115298
492.7708121941263
491.80471495211617
490.8539972435142
489.9195166894005
489.0021222276638
488.1026305167337
487.22182230713275
486.3604520722854
485.519229133655
484.6988449700521
