510.1415824507344
510.14033124836897
510.1390798207078
510.1378281678003
510.13657628969554
510.13532418644286
510.1340718580916
510.13281930469134
510.1315665262914
510.1303135229414
510.1290602946906
510.1278068415886
510.126553163685
510.12529926102934
510.1240451336714
510.122790781661
510.1215362050482
510.1202814038827
510.11902637821436
510.1177711280932
510.1165156535692
510.1152599546922
510.1140040315124
510.1127478840797
510.11149151244354
510.11023491665355
510.1089780967593
510.1077210528101
510.10646378485535
510.1052062929448
510.103948577128
510.10269063745477
510.1014324739749
510.1001740867382
510.09891547579423
510.09765664119254
510.09639758298295
510.095138301215
510.0938787959383
510.09261906720235
510.0913591150568
510.09009893955135
510.0888385407359
510.08757791866014
510.0863170733737
510.0850560049262
510.08379471336707
510.082533198746
510.08127146111246
510.0800095005161
510.07874731700645
510.0774849106331
510.07622228144555
510.0749594294937
510.07369635482723
510.0724330574958
510.0711695375487
510.06990579503554
510.0686418300056
510.0673776425083
510.0661132325929
510.0648486003088
510.0635837457055
510.06231866883263
510.06105336973974
510.0597878484766
510.05852210509306
510.05725613963864
510.0559899521627
510.0547235427148
510.0534569113447
510.05219005810227
510.050922983037
510.0496556861988
510.0483881676373
510.04712042740243
510.04585246554393
510.0445842821118
510.0433158771559
510.0420472507262
510.040778402873
510.03950933364627
510.03824004309627
510.0369705312735
510.0357007982284
510.0344308440117
510.0331606686741
510.0318902722663
510.03061965483903
510.02934881644296
510.02807775712904
510.02680647694797
510.02553497595045
510.0242632541874
510.0229913117098
510.021719148569
510.0204467648166
510.019174160504
510.01790133568284
510.0166282904049
510.0153550247221
510.01408153868647
510.0128078323503
510.0115339057661
510.0102597589862
510.00898539206287
510.00771080504865
510.0064359979958
510.0051609709569
510.0038857239847
510.0026102571319
510.00133457045126
510.00005866399556
509.99878253781753
509.9975061919697
509.9962296265044
509.99495284147406
509.99367583693106
509.9923986129277
509.99112116951596
509.9898435067478
509.98856562467495
509.98728752334955
509.98600920282365
509.9847306631493
509.98345190437885
509.9821729265643
509.980893729758
509.9796143140122
509.9783346793788
509.9770548259096
509.9757747536564
509.9744944626714
509.9732139530065
509.9719332247139
509.97065227784583
509.96937111245484
509.9680897285932
509.9668081263135
509.9655263056684
509.9642442667107
509.96296200949314
509.9616795340685
509.9603968404897
509.95911392881
509.9578307990828
509.95654745136176
509.9552638857008
509.95398010215376
509.9526961007746
509.9514118816171
509.9501274447355
509.948842790184
509.9475579180171
509.9462728282888
509.94498752105324
509.9437019963648
509.942416254278
509.94113029484765
509.9398441181286
509.9385577241758
509.9372711130445
509.93598428479027
509.93469723946873
509.9334099771354
509.93212249784574
509.930834801655
509.92954688861846
509.9282587587911
509.9269704122278
509.92568184898346
509.9243930691132
509.923104072672
509.9218148597149
509.9205254302972
509.91923578447427
509.91794592230167
509.91665584383486
509.9153655491293
509.91407503824075
509.91278431122464
509.9114933681367
509.9102022090326
509.90891083396787
509.90761924299795
509.9063274361781
509.90503541356384
509.9037431752106
509.90245072117364
509.90115805150845
509.8998651662705
509.8985720655153
509.8972787492985
509.8959852176756
509.8946914707019
509.8933975084326
509.8921033309232
509.89080893822916
509.8895143304062
509.88821950751003
509.88692446959635
509.8856292167209
509.8843337489395
509.88303806630825
509.88174216888274
509.8804460567187
509.87914972987187
509.8778531883979
509.87655643235234
509.8752594617906
509.8739622767682
509.87266487734064
509.8713672635631
509.8700694354909
509.86877139317926
509.86747313668343
509.86617466605867
509.8648759813602
509.8635770826436
509.8622779699642
509.8609786433776
509.8596791029395
509.8583793487053
509.8570793807305
509.85577919907087
509.8544788037823
509.8531781949207
509.8518773725423
509.85057633670294
509.8492750874584
509.8479736248646
509.8466719489775
509.8453700598527
509.8440679575465
509.84276564211495
509.8414631136145
509.84016037210154
509.83885741763265
509.8375542502645
509.83625087005385
509.8349472770576
509.83364347133283
509.83233945293705
509.8310352219278
509.8297307783628
509.8284261223
509.8271212537975
509.82581617291316
509.82451087970503
509.82320537423084
509.82189965654834
509.82059372671506
509.8192875847883
509.8179812308256
509.8166746648842
509.81536788702124
509.81406089729353
509.8127536957579
509.8114462824715
509.8101386574913
509.8088308208744
509.8075227726779
509.80621451295883
509.8049060417741
509.80359735918046
509.8022884652346
509.80097935999333
509.7996700435133
509.7983605158513
509.7970507770642
509.79574082720865
509.7944306663412
509.79312029451853
509.79180971179744
509.790498918235
509.7891879138883
509.78787669881444
509.78656527307044
509.7852536367136
509.7839417898015
509.78262973239134
509.78131746454073
509.7800049863074
509.7786922977491
509.77737939892336
509.77606628988815
509.77475297070146
509.77343944142126
509.77212570210554
509.7708117528125
509.76949759360014
509.76818322452664
509.7668686456502
509.76555385702886
509.76423885872055
509.7629236507835
509.76160823327587
509.7602926062557
509.75897676978093
509.75766072390957
509.7563444686998
509.7550280042101
509.7537113304986
509.7523944476236
509.75107735564325
509.74976005461576
509.74844254459913
509.7471248256511
509.74580689782965
509.74448876119254
509.7431704157975
509.74185186170257
509.7405330989661
509.7392141276464
509.7378949478016
509.73657555949035
509.7352559627716
509.7339361577042
509.73261614434705
509.73129592275905
509.7299754929991
509.7286548551258
509.7273340091981
509.7260129552751
509.72469169341593
509.7233702236799
509.7220485461264
509.72072666081453
509.7194045678034
509.7180822671519
509.7167597589189
509.71543704316355
509.7141141199447
509.7127909893213
509.7114676513522
509.7101441060963
509.7088203536125
509.7074963939599
509.7061722271974
509.7048478533836
509.7035232725775
509.70219848483816
509.7008734902247
509.69954828879645
509.698222880613
509.6968972657339
509.695571444219
509.69424541612807
509.69291918152067
509.6915927404564
509.690266092995
509.68893923919654
509.68761217912106
509.6862849128288
509.6849574403798
509.6836297618338
509.68230187725044
509.68097378668926
509.67964549020985
509.67831698787177
509.6769882797346
509.6756593658579
509.67433024630145
509.6730009211253
509.67167139038975
509.670341654155
509.6690117124815
509.6676815654298
509.66635121306035
509.6650206554334
509.6636898926092
509.66235892464806
509.66102775160994
509.6596963735549
509.6583647905427
509.65703300263294
509.6557010098852
509.6543688123593
509.65303641011496
509.6517038032116
509.65037099170877
509.6490379756658
509.64770475514206
509.64637133019687
509.6450377008896
509.64370386727956
509.6423698294261
509.64103558738884
509.6397011412273
509.6383664910011
509.63703163676973
509.63569657859307
509.63436131653066
509.6330258506423
509.631690180988
509.63035430762807
509.6290182306225
509.62768195003105
509.6263454659138
509.62500877833054
509.6236718873413
509.6223347930063
509.62099749538584
509.61965999454014
509.6183222905295
509.6169843834141
509.61564627325447
509.6143079601111
509.61296944404444
509.611630725115
509.61029180338346
509.60895267891055
509.6076133517572
509.60627382198436
509.60493408965317
509.60359415482503
509.6022540175618
509.6009136779253
509.5995731359776
509.5982323917808
509.5968914453972
509.5955502968891
509.594208946319
509.59286739374943
509.5915256392434
509.5901836828641
509.58884152467476
509.5874991647386
509.5861566031185
509.5848138398776
509.58347087507923
509.5821277087871
509.5807843410648
509.5794407719761
509.57809700158464
509.57675302995426
509.5754088571491
509.5740644832331
509.5727199082701
509.5713751323242
509.57003015545956
509.5686849777403
509.56733959923054
509.5659940199946
509.56464824009686
509.56330225960187
509.56195607857444
509.5606096970796
509.5592631151826
509.5579163329487
509.5565693504434
509.5552221677326
509.5538747848825
509.5525272019595
509.55117941902995
509.5498314361603
509.5484832534171
509.5471348708668
509.54578628857575
509.54443750661017
509.54308852503596
509.54173934391883
509.5403899633245
509.53904038331893
509.53769060396826
509.53634062533865
509.5349904474963
509.5336400705073
509.5322894944379
509.53093871935425
509.5295877453225
509.5282365724088
509.5268852006793
509.52553363020024
509.52418186103796
509.52282989325863
509.5214777269282
509.5201253621128
509.51877279887844
509.517420037291
509.51606707741666
509.51471391932137
509.51336056307105
509.51200700873187
509.51065325637
509.5092993060516
509.50794515784287
509.50659081181016
509.50523626801987
509.50388152653863
509.50252658743307
509.50117145077
509.4998161166161
509.49846058503795
509.49710485610217
509.4957489298754
509.49439280642423
509.4930364858151
509.49167996811457
509.49032325338976
509.48896634170774
509.4876092331358
509.48625192774125
509.4848944255916
509.4835367267542
509.4821788312963
509.48082073928526
509.4794624507881
509.4781039658719
509.4767452846038
509.47538640705056
509.47402733327885
509.4726680633555
509.4713085973474
509.4699489353211
509.4685890773435
509.4672290234814
509.46586877380196
509.4645083283724
509.46314768725983
509.46178685053155
509.46042581825486
509.4590645904973
509.4577031673264
509.45634154880963
509.4549797350146
509.4536177260086
509.45225552185866
509.45089312263235
509.4495305283974
509.4481677392216
509.4468047551727
509.44544157631844
509.4440782027266
509.4427146344651
509.44135087160225
509.439986914206
509.43862276234427
509.4372584160849
509.43589387549537
509.434529140643
509.4331642115951
509.431799088419
509.43043377118215
509.42906825995215
509.4277025547967
509.4263366557834
509.42497056297975
509.42360427645326
509.4222377962715
509.42087112250215
509.4195042552128
509.4181371944712
509.41676994034515
509.41540249290233
509.41403485221053
509.4126670183375
509.41129899135126
509.40993077132
509.4085623583121
509.4071937523961
509.40582495364015
509.4044559621125
509.4030867778815
509.40171740101596
509.40034783158444
509.39897806965587
509.3976081152989
509.396237968582
509.3948676295738
509.393497098343
509.3921263749585
509.3907554594891
509.38938435200384
509.3880130525715
509.38664156126106
509.38526987814157
509.38389800328196
509.38252593675134
509.3811536786184
509.37978122895174
509.37840858782033
509.37703575529304
509.37566273143875
509.37428951632614
509.37291611002365
509.37154251259994
509.3701687241239
509.36879474466446
509.36742057429024
509.36604621307015
509.3646716610731
509.3632969183682
509.36192198502476
509.36054686111197
509.35917154669914
509.35779604185564
509.356420346651
509.3550444611551
509.35366838543814
509.3522921195706
509.35091566362325
509.349539017667
509.34816218177275
509.3467851560117
509.3454079404553
509.3440305351746
509.34265294024135
509.3412751557271
509.33989718170346
509.3385190182421
509.33714066541484
509.3357621232933
509.3343833919489
509.3330044714528
509.33162536187615
509.33024606329013
509.3288665757659
509.32748689937443
509.32610703418663
509.32472698027345
509.32334673770583
509.3219663065547
509.32058568689104
509.31920487878574
509.31782388230977
509.3164426975345
509.31506132453137
509.31367976337174
509.312298014127
509.3109160768688
509.3095339516685
509.30815163859756
509.30676913772754
509.30538644912986
509.3040035728757
509.30262050903616
509.3012372576827
509.29985381888696
509.29847019272074
509.2970863792559
509.29570237856433
509.2943181907176
509.29293381578714
509.2915492538443
509.2901645049608
509.28877956920815
509.287394446658
509.28600913738205
509.28462364145184
509.2832379589388
509.2818520899143
509.2804660344498
509.2790797926166
509.27769336448637
509.2763067501305
509.2749199496204
509.2735329630275
509.2721457904231
509.2707584318789
509.2693708874665
509.2679831572573
509.26659524132265
509.2652071397338
509.26381885256205
509.26243037987865
509.26104172175496
509.2596528782624
509.25826384947254
509.25687463545705
509.25548523628777
509.25409565203654
509.2527058827752
509.2513159285754
509.2499257895088
509.2485354656469
509.24714495706144
509.2457542638242
509.2443633860073
509.24297232368303
509.2415810769237
509.24018964580137
509.2387980303881
509.23740623075605
509.23601424697745
509.2346220791246
509.2332297272699
509.2318371914855
509.23044447184384
509.2290515684174
509.2276584812789
509.2262652105012
509.2248717561572
509.2234781183199
509.22208429706257
509.2206902924586
509.2192961045814
509.21790173350473
509.2165071793022
509.2151124420475
509.2137175218145
509.2123224186771
509.21092713270923
509.20953166398454
509.2081360125767
509.2067401785598
509.2053441620078
509.2039479629948
509.2025515815949
509.201155017882
509.19975827193
509.19836134381285
509.1969642336044
509.19556694137873
509.19416946721026
509.1927718111733
509.1913739733427
509.18997595379324
509.18857775259994
509.1871793698376
509.1857808055811
509.1843820599054
509.1829831328853
509.1815840245956
509.1801847351112
509.1787852645066
509.17738561285637
509.17598578023535
509.17458576671834
509.17318557238036
509.1717851972967
509.17038464154257
509.1689839051933
509.16758298832383
509.1661818910095
509.1647806133258
509.16337915534837
509.1619775171532
509.1605756988163
509.1591737004135
509.157771522021
509.15636916371477
509.1549666255705
509.1535639076642
509.1521610100717
509.15075793286906
509.14935467613213
509.14795123993713
509.1465476243602
509.1451438294773
509.14373985536463
509.14233570209853
509.14093136975544
509.1395268584115
509.1381221681429
509.1367172990258
509.13531225113616
509.1339070245499
509.132501619343
509.1310960355913
509.1296902733709
509.12828433275786
509.1268782138284
509.1254719166586
509.1240654413248
509.1226587879032
509.12125195647036
509.1198449471026
509.11843775987677
509.11703039486974
509.11562285215814
509.1142151318186
509.1128072339279
509.11139915856324
509.1099909058016
509.1085824757206
509.1071738683979
509.10576508391136
509.1043561223389
509.10294698375856
509.1015376682483
509.1001281758861
509.0987185067497
509.0973086609167
509.09589863846486
509.09448843947166
509.09307806401466
509.0916675121716
509.09025678402054
509.0888458796396
509.0874347991071
509.08602354250115
509.08461210990004
509.0832005013822
509.0817887170258
509.08037675690935
509.0789646211117
509.077552309712
509.0761398227894
509.0747271604232
509.07331432269257
509.0719013096764
509.0704881214533
509.0690747581018
509.0676612197001
509.06624750632636
509.0648336180591
509.0634195549769
509.06200531715876
509.0605909046835
509.0591763176301
509.0577615560776
509.05634662010516
509.0549315097919
509.053516225217
509.0521007664595
509.05068513359856
509.04926932671356
509.04785334588405
509.0464371911896
509.0450208627101
509.0436043605255
509.04218768471605
509.0407708353621
509.0393538125436
509.0379366163404
509.0365192468323
509.03510170409913
509.0336839882209
509.03226609927765
509.03084803734987
509.02942980251805
509.02801139486246
509.0265928144636
509.0251740614019
509.02375513575817
509.02233603761283
509.0209167670462
509.01949732413846
509.0180777089697
509.01665792162
509.01523796216907
509.013817830697
509.01239752728384
509.0109770520096
509.0095564049543
509.00813558619825
509.0067145958217
509.0052934339044
509.00387210052645
509.00245059576764
509.0010289197078
508.99960707242667
508.9981850540041
508.9967628645204
508.9953405040558
508.9939179726907
508.9924952705053
508.9910723975793
508.9896493539925
508.988226139825
508.98680275515676
508.9853792000679
508.9839554746384
508.9825315789485
508.98110751307854
508.97968327710873
508.9782588711196
508.97683429519157
508.9754095494052
508.97398463384116
508.97255954857997
508.97113429370233
508.9697088692892
508.9682832754215
508.96685751218024
508.96543157964584
508.9640054778988
508.96257920701964
508.9611527670886
508.95972615818596
508.95829938039196
508.9568724337871
508.9554453184521
508.9540180344677
508.9525905819148
508.9511629608744
508.9497351714274
508.94830721365474
508.9468790876376
508.9454507934572
508.94402233119445
508.94259370093005
508.9411649027445
508.9397359367183
508.93830680293195
508.9368775014657
508.9354480324
508.93401839581543
508.9325885917922
508.93115862041054
508.9297284817508
508.92829817589336
508.92686770291857
508.92543706290667
508.92400625593814
508.9225752820935
508.92114414145317
508.9197128340977
508.9182813601078
508.9168497195642
508.91541791254735
508.91398593913755
508.91255379941526
508.9111214934612
508.9096890213559
508.90825638318006
508.9068235790144
508.90539060893934
508.90395747303523
508.90252417138254
508.90109070406174
508.89965707115334
508.8982232727376
508.896789308895
508.89535517970603
508.8939208852514
508.8924864256121
508.89105180086904
508.8896170111029
508.8881820563945
508.8867469368249
508.8853116524756
508.8838762034277
508.8824405897626
508.88100481156175
508.87956886890674
508.87813276187944
508.8766964905619
508.8752600550363
508.8738234553846
508.87238669168914
508.8709497640325
508.86951267249697
508.86807541716485
508.86663799811845
508.86520041543986
508.8637626692109
508.8623247595135
508.86088668642924
508.85944845003974
508.85801005042686
508.85657148767245
508.8551327618586
508.8536938730674
508.85225482138094
508.8508156068815
508.8493762296514
508.8479366897732
508.8464969873294
508.84505712240275
508.8436170950763
508.84217690543323
508.8407365535568
508.83929603953015
508.8378553634368
508.83641452535994
508.83497352538257
508.83353236358766
508.83209104005823
508.83064955487725
508.82920790812796
508.82776609989355
508.8263241302575
508.82488199930367
508.823439707116
508.8219972537786
508.82055463937604
508.81911186399316
508.81766892771475
508.8162258306256
508.8147825728106
508.81333915435425
508.81189557534117
508.81045183585616
508.80900793598425
508.80756387581073
508.80611965542107
508.80467527490055
508.8032307343342
508.8017860338073
508.80034117340506
508.7988961532128
508.7974509733158
508.79600563379927
508.7945601347483
508.79311447624764
508.7916686583824
508.7902226812373
508.7887765448975
508.7873302494479
508.78588379497364
508.7844371815597
508.7829904092914
508.7815434782542
508.7800963885336
508.77864914021507
508.7772017333839
508.77575416812533
508.7743064445244
508.7728585626662
508.77141052263573
508.769962324518
508.7685139683981
508.7670654543613
508.76561678249277
508.7641679528781
508.76271896560274
508.76126982075243
508.7598205184129
508.75837105867004
508.75692144160985
508.7554716673185
508.75402173588213
508.75257164738696
508.75112140191914
508.74967099956507
508.74822044041116
508.7467697245438
508.74531885204965
508.74386782301553
508.7424166375281
508.74096529567373
508.7395137975386
508.73806214320916
508.73661033277176
508.7351583663128
508.73370624391873
508.7322539656757
508.73080153167007
508.7293489419883
508.72789619671676
508.72644329594164
508.7249902397491
508.72353702822534
508.7220836614565
508.720630139529
508.7191764625295
508.7177226305448
508.7162686436618
508.71481450196734
508.71336020554827
508.7119057544912
508.71045114888307
508.7089963888109
508.7075414743615
508.7060864056216
508.704631182678
508.70317580561755
508.70172027452713
508.7002645894934
508.6988087506031
508.69735275794324
508.6958966116006
508.694440311662
508.69298385821435
508.69152725134427
508.6900704911386
508.68861357768424
508.687156511068
508.6856992913765
508.68424191869644
508.6827843931146
508.6813267147181
508.6798688835943
508.6784108998306
508.67695276351446
508.6754944747331
508.6740360335739
508.6725774401241
508.6711186944708
508.6696597967009
508.66820074690145
508.66674154515977
508.6652821915634
508.66382268619986
508.6623630291567
508.66090322052105
508.65944326037993
508.6579831488207
508.6565228859306
508.655062471797
508.653601906507
508.65214119014786
508.6506803228067
508.6492193045706
508.6477581355266
508.64629681576184
508.64483534536316
508.64337372441764
508.6419119530128
508.64045003123624
508.63898795917567
508.6375257369191
508.63606336455473
508.6346008421708
508.63313816985556
508.6316753476974
508.6302123757846
508.62874925420533
508.62728598304784
508.6258225624006
508.6243589923522
508.6228952729916
508.621431404408
508.6199673866902
508.61850321992733
508.6170389042088
508.61557443962397
508.6141098262624
508.61264506421367
508.6111801535674
508.6097150944131
508.60824988684044
508.60678453093897
508.6053190267985
508.6038533745091
508.6023875741605
508.60092162584283
508.5994555296461
508.59798928566056
508.5965228939765
508.5950563546842
508.59358966787363
508.5921228336349
508.5906558520578
508.5891887232326
508.58772144724935
508.58625402419807
508.5847864541686
508.5833187372507
508.5818508735347
508.5803828631108
508.5789147060693
508.5774464025005
508.57597795249467
508.57450935614224
508.57304061353375
508.57157172475945
508.57010268990985
508.56863350907565
508.5671641823476
508.5656947098166
508.5642250915737
508.56275532770997
508.56128541831663
508.5598153634851
508.55834516330674
508.55687481787277
508.5554043272741
508.55393369160174
508.5524629109468
508.55099198540074
508.5495209150547
508.5480497000003
508.546578340329
508.54510683613194
508.5436351875003
508.54216339452546
508.5406914572991
508.5392193759128
508.53774715045824
508.53627478102726
508.5348022677117
508.5333296106037
508.53185680979504
508.53038386537787
508.5289107774445
508.5274375460874
508.52596417139944
508.5244906534733
508.52301699240184
508.52154318827775
508.52006924119405
508.51859515124397
508.51712091852073
508.51564654311755
508.5141720251279
508.51269736464496
508.5112225617622
508.5097476165729
508.50827252917
508.5067972996467
508.50532192809624
508.5038464146121
508.50237075928817
508.50089496221835
508.49941902349656
508.4979429432167
508.49646672147287
508.494990358359
508.4935138539688
508.49203720839637
508.4905604217356
508.48908349408043
508.4876064255252
508.4861292161645
508.48465186609315
508.48317437540595
508.48169674419773
508.4802189725633
508.4787410605975
508.47726300839486
508.47578481605024
508.47430648365844
508.47282801131405
508.47134939911143
508.46987064714517
508.46839175550986
508.46691272429985
508.4654335536097
508.46395424353454
508.46247479416934
508.46099520560915
508.4595154779495
508.45803561128605
508.4565556057146
508.45507546133103
508.4535951782316
508.45211475651263
508.4506341962708
508.44915349760277
508.44767266060535
508.4461916853752
508.44471057200917
508.44322932060413
508.44174793125694
508.4402664040647
508.43878473912446
508.43730293653357
508.43582099638934
508.4343389187891
508.4328567038299
508.43137435160884
508.42989186222303
508.4284092357698
508.4269264723466
508.4254435720511
508.4239605349808
508.4224773612332
508.4209940509061
508.41951060409724
508.41802702090445
508.4165433014259
508.4150594457601
508.41357545400547
508.4120913262607
508.41060706262465
508.4091226631965
508.4076381280754
508.40615345736023
508.4046686511497
508.4031837095424
508.40169863263736
508.4002134205332
508.3987280733286
508.39724259112245
508.39575697401347
508.3942712221001
508.39278533548054
508.3912993142528
508.3898131585147
508.3883268683637
508.3868404438979
508.3853538852154
508.3838671924145
508.38238036559346
508.38089340485044
508.3794063102839
508.3779190819921
508.37643172007324
508.37494422462555
508.37345659574726
508.3719688335366
508.370480938092
508.3689929095117
508.3675047478939
508.3660164533369
508.36452802593885
508.36303946579824
508.36155077301373
508.36006194768424
508.3585729899089
508.35708389978686
508.355594677417
508.354105322898
508.3526158363288
508.35112621780854
508.3496364674363
508.3481465853115
508.34665657153323
508.3451664262009
508.3436761494138
508.3421857412716
508.34069520187404
508.339204531321
508.3377137297125
508.3362227971488
508.3347317337302
508.3332405395572
508.33174921473005
508.330257759349
508.3287661735146
508.32727445732735
508.3257826108879
508.3242906342973
508.32279852765646
508.3213062910661
508.31981392462717
508.31832142844064
508.3168288026077
508.31533604722927
508.31384316240656
508.31235014824097
508.3108570048337
508.3093637322859
508.30787033069873
508.30637680017344
508.30488314081117
508.30338935271334
508.30189543598135
508.3004013907166
508.2989072170203
508.2974129149934
508.29591848473706
508.2944239263529
508.29292923994285
508.2914344256087
508.2899394834524
508.2884444135757
508.28694921608053
508.2854538910685
508.2839584386413
508.28246285890054
508.28096715194783
508.2794713178848
508.27797535681316
508.27647926883446
508.2749830540506
508.2734867125637
508.27199024447555
508.27049364988807
508.26899692890333
508.26750008162344
508.26600310815047
508.2645060085863
508.26300878303255
508.26151143159086
508.2600139543631
508.2585163514509
508.25701862295614
508.25552076898066
508.25402278962633
508.252524684995
508.2510264551888
508.2495281003096
508.2480296204594
508.24653101574063
508.24503228625554
508.24353343210646
508.24203445339595
508.2405353502263
508.2390361226999
508.23753677091895
508.2360372949861
508.23453769500384
508.23303797107474
508.23153812330156
508.2300381517871
508.2285380566341
508.22703783794555
508.2255374958247
508.22403703037503
508.2225364417002
508.22103572990386
508.21953489508974
508.2180339373615
508.2165328568228
508.2150316535776
508.2135303277298
508.2120288793835
508.2105273086429
508.2090256156123
508.2075238003963
508.20602186309975
508.2045198038277
508.20301762268514
508.20151531977695
508.2000128952079
508.1985103490831
508.1970076815078
508.1955048925872
508.1940019824267
508.1924989511317
508.19099579880753
508.18949252555944
508.1879891314927
508.18648561671307
508.184981981326
508.18347822543683
508.18197434915055
508.18047035257246
508.1789662358078
508.17746199896214
508.17595764214093
508.17445316545013
508.1729485689955
508.17144385288293
508.16993901721867
508.1684340621089
508.16692898765973
508.1654237939774
508.16391848116814
508.16241304933783
508.1609074985927
508.15940182903887
508.1578960407826
508.1563901339298
508.1548841085862
508.1533779648578
508.1518717028507
508.15036532267095
508.14885882442445
508.14735220821694
508.1458454741544
508.14433862234273
508.14283165288793
508.14132456589596
508.139817361473
508.13831003972496
508.1368026007574
508.135295044676
508.1337873715863
508.1322795815938
508.130771674804
508.1292636513226
508.1277555112556
508.12624725470914
508.1247388817894
508.1232303926024
508.12172178725405
508.1202130658503
508.11870422849734
508.1171952753018
508.1156862063701
508.1141770218089
508.1126677217246
508.11115830622384
508.10964877541346
508.1081391294001
508.10662936829067
508.10511949219176
508.10360950121003
508.10209939545234
508.1005891750258
508.09907884003746
508.09756839059423
508.0960578268032
508.0945471487714
508.0930363566058
508.091525450413
508.09001443029956
508.0885032963722
508.08699204873756
508.08548068750247
508.0839692127738
508.0824576246587
508.0809459232646
508.07943410869916
508.0779221810699
508.0764101404843
508.07489798705
508.07338572087474
508.0718733420663
508.0703608507324
508.06884824698136
508.0673355309211
508.0658227026597
508.06430976230513
508.06279670996537
508.0612835457489
508.05977026976416
508.05825688211985
508.0567433829249
508.05522977228816
508.0537160503186
508.0522022171251
508.05068827281684
508.0491742175029
508.0476600512925
508.0461457742947
508.0446313866187
508.04311688837356
508.0416022796687
508.0400875606133
508.03857273131644
508.03705779188726
508.03554274243515
508.0340275830697
508.03251231390027
508.0309969350362
508.02948144658694
508.02796584866223
508.0264501413724
508.02493432482765
508.0234183991381
508.021902364414
508.02038622076543
508.01886996830217
508.01735360713405
508.0158371373709
508.01432055912255
508.01280387249903
508.0112870776104
508.0097701745665
508.0082531634771
508.00673604445205
508.0052188176012
508.0037014830343
508.00218404086104
508.00066649119094
507.9991488341334
507.99763106979776
507.99611319829364
507.99459521973085
507.99307713421945
507.99155894186924
507.9900406427903
507.98852223709264
507.98700372488634
507.98548510628166
507.9839663813889
507.98244755031806
507.98092861317946
507.97940957008336
507.9778904211403
507.9763711664607
507.97485180615513
507.9733323403343
507.97181276910896
507.97029309259005
507.96877331088876
507.9672534241165
507.9657334323847
507.96421333580497
507.96269313448875
507.96117282854743
507.9596524180927
507.9581319032359
507.95661128408824
507.95509056076094
507.95356973336516
507.9520488020123
507.9505277668136
507.9490066278802
507.94748538532303
507.9459640392529
507.94444258978024
507.94292103701537
507.94139938106855
507.93987762205006
507.93835576006995
507.9368337952383
507.93531172766484
507.9337895574597
507.93226728473314
507.9307449095952
507.92922243215594
507.9276998525254
507.92617717081384
507.92465438713134
507.9231315015884
507.9216085142957
507.9200854253638
507.9185622349032
507.9170389430244
507.9155155498379
507.9139920554542
507.91246845998376
507.9109447635369
507.90942096622416
507.9078970681562
507.90637306944404
507.9048489701988
507.903324770532
507.9018004705549
507.9002760703793
507.8987515701165
507.89722696987747
507.895702269773
507.89417746991376
507.8926525704105
507.8911275713738
507.889602472914
507.888077275142
507.88655197816865
507.88502658210496
507.88350108706186
507.8819754931503
507.8804498004811
507.87892400916485
507.8773981193124
507.8758721310344
507.8743460444414
507.87281985964387
507.87129357675235
507.86976719587756
507.86824071713045
507.8667141406222
507.86518746646425
507.8636606947682
507.86213382564597
507.8606068592094
507.85907979557055
507.85755263484157
507.85602537713453
507.85449802256176
507.85297057123535
507.8514430232674
507.84991537877
507.84838763785547
507.84685980063614
507.84533186722433
507.84380383773214
507.8422757122719
507.8407474909561
507.83921917389716
507.83769076120734
507.8361622529992
507.8346336493855
507.83310495047886
507.83157615639175
507.830047267237
507.8285182831273
507.82698920417533
507.82546003049333
507.82393076219387
507.8224013993895
507.82087194219275
507.8193423907162
507.8178127450724
507.81628300537386
507.8147531717334
507.8132232442638
507.811693223078
507.8101631082891
507.80863290001025
507.80710259835496
507.80557220343667
507.80404171536884
507.80251113426493
507.80098046023863
507.79944969340363
507.79791883387384
507.79638788176294
507.7948568371846
507.7933257002526
507.7917944710805
507.7902631497823
507.7887317364721
507.7872002312638
507.78566863427113
507.78413694560777
507.7826051653874
507.78107329372347
507.77954133072967
507.7780092765199
507.7764771312079
507.77494489490755
507.77341256773275
507.7718801497979
507.77034764121754
507.7688150421068
507.7672823525809
507.7657495727551
507.76421670274453
507.76268374266397
507.76115069262823
507.75961755275216
507.75808432315057
507.7565510039383
507.75501759523036
507.75348409714184
507.751950509788
507.75041683328436
507.74888306774665
507.7473492132906
507.7458152700319
507.74428123808616
507.742747117569
507.74121290859625
507.73967861128335
507.73814422574605
507.73660975209987
507.7350751904603
507.7335405409433
507.73200580366506
507.7304709787418
507.72893606628963
507.72740106642505
507.7258659792644
507.7243308049242
507.722795543521
507.7212601951717
507.7197247599929
507.71818923810133
507.71665362961335
507.7151179346454
507.71358215331384
507.71204628573537
507.7105103320266
507.7089742923042
507.7074381666848
507.70590195528484
507.7043656582207
507.70282927560856
507.70129280756464
507.69975625420534
507.6982196156471
507.6966828920065
507.69514608340023
507.69360918994494
507.692072211757
507.6905351489529
507.688998001649
507.6874607699615
507.6859234540068
507.68438605390133
507.6828485697615
507.68131100170376
507.6797733498445
507.6782356143001
507.67669779518724
507.67515989262256
507.6736219067227
507.67208383760453
507.6705456853847
507.66900745017983
507.66746913210704
507.66593073128365
507.664392247827
507.6628536818546
507.6613150334838
507.65977630283214
507.6582374900172
507.65669859515697
507.65515961836945
507.6536205597729
507.6520814194855
507.6505421976253
507.64900289431034
507.64746350965856
507.6459240437882
507.64438449681757
507.6428448688648
507.64130516004843
507.6397653704871
507.6382255002993
507.6366855496037
507.63514551851904
507.63360540716394
507.6320652156571
507.63052494411727
507.6289845926633
507.62744416141413
507.62590365048845
507.6243630600052
507.62282239008346
507.62128164084265
507.61974081240214
507.6181999048813
507.6166589183995
507.6151178530761
507.61357670903067
507.61203548638287
507.6104941852525
507.6089528057594
507.60741134802333
507.6058698121644
507.6043281983027
507.60278650655823
507.6012447370513
507.59970288990235
507.59816096523195
507.5966189631606
507.59507688380904
507.5935347272982
507.5919924937489
507.590450183282
507.58890779601825
507.58736533207866
507.58582279158463
507.5842801746576
507.5827374814187
507.58119471198916
507.57965186648994
507.578108945042
507.57656594776654
507.57502287478496
507.57347972621847
507.57193650218824
507.5703932028157
507.5688498282225
507.5673063785305
507.56576285386154
507.56421925433756
507.56267558008017
507.5611318312108
507.55958800785083
507.5580441101222
507.5565001381467
507.55495609204627
507.553411971943
507.55186777795893
507.55032351021646
507.54877916883765
507.5472347539444
507.5456902656588
507.54414570410336
507.5426010694007
507.54105636167355
507.5395115810445
507.5379667276361
507.5364218015709
507.53487680297144
507.5333317319603
507.5317865886602
507.53024137319426
507.5286960856854
507.52715072625665
507.5256052950308
507.52405979213086
507.52251421768005
507.5209685718014
507.5194228546179
507.5178770662526
507.51633120682845
507.5147852764685
507.51323927529575
507.5116932034334
507.510147061005
507.5086008481337
507.5070545649428
507.5055082115555
507.5039617880948
507.50241529468394
507.5008687314464
507.49932209850544
507.49777539598426
507.4962286240061
507.4946817826942
507.4931348721718
507.49158789256217
507.4900408439885
507.488493726574
507.486946540442
507.48539928571586
507.4838519625191
507.4823045709752
507.4807571112076
507.4792095833393
507.4776619874933
507.4761143237927
507.47456659236036
507.4730187933196
507.4714709267937
507.46992299290605
507.46837499178014
507.46682692353966
507.4652787883083
507.4637305862102
507.46218231736975
507.4606339819113
507.45908557995926
507.457537111638
507.45598857707205
507.4544399763863
507.4528913097056
507.4513425771552
507.4497937788608
507.44824491494796
507.4466959855422
507.4451469907692
507.4435979307548
507.4420488056244
507.44049961550354
507.43895036051754
507.4374010407919
507.4358516564521
507.43430220762366
507.4327526944321
507.4312031170027
507.4296534754608
507.42810376993157
507.4265540005406
507.42500416741314
507.4234542706747
507.4219043104508
507.4203542868672
507.4188042000494
507.4172540501229
507.4157038372132
507.414153561446
507.41260322294715
507.41105282184253
507.40950235825835
507.4079518323208
507.40640124415586
507.4048505938895
507.4032998816474
507.4017491075556
507.40019827174
507.39864737432663
507.39709641544187
507.3955453952119
507.39399431376273
507.3924431712203
507.39089196771033
507.38934070335836
507.3877893782899
507.3862379926304
507.38468654650546
507.383135040041
507.381583473363
507.3800318465976
507.3784801598706
507.3769284133077
507.3753766070349
507.37382474117817
507.37227281586365
507.37072083121734
507.3691687873652
507.3676166844334
507.3660645225482
507.36451230183593
507.3629600224233
507.3614076844369
507.35985528800325
507.3583028332487
507.35675032029985
507.35519774928366
507.35364512032675
507.35209243355575
507.35053968909733
507.3489868870781
507.347434027625
507.3458811108651
507.34432813692547
507.34277510593347
507.3412220180164
507.3396688733019
507.3381156719174
507.3365624139908
507.33500909965005
507.33345572902294
507.3319023022375
507.3303488194217
507.3287952807036
507.3272416862112
507.3256880360723
507.32413433041484
507.3225805693669
507.32102675305646
507.3194728816118
507.3179189551613
507.31636497383397
507.3148109377587
507.31325684706417
507.31170270187886
507.31014850233146
507.3085942485509
507.3070399406661
507.30548557880616
507.3039311631003
507.3023766936774
507.30082217066615
507.2992675941955
507.2977129643946
507.29615828139254
507.294603545319
507.2930487563035
507.2914939144755
507.2899390199641
507.28838407289845
507.2868290734077
507.28527402162126
507.28371891766847
507.28216376167893
507.28060855378203
507.2790532941076
507.27749798278523
507.27594261994454
507.27438720571513
507.2728317402266
507.27127622360854
507.2697206559908
507.26816503750297
507.26660936827466
507.26505364843547
507.26349787811523
507.26194205744423
507.26038618655275
507.2588302655711
507.2572742946295
507.2557182738583
507.25416220338775
507.25260608334816
507.25104991386956
507.24949369508204
507.24793742711563
507.2463811101004
507.2448247441664
507.2432683294437
507.24171186606236
507.24015535415265
507.2385987938451
507.2370421852704
507.2354855285596
507.2339288238438
507.2323720712543
507.23081527092245
507.2292584229797
507.22770152755743
507.22614458478733
507.2245875948013
507.2230305577309
507.2214734737079
507.2199163428638
507.2183591653304
507.21680194123905
507.2152446707214
507.2136873539089
507.2121299909329
507.2105725819249
507.2090151270163
507.20745762633874
507.20590008002387
507.20434248820334
507.2027848510086
507.20122716857145
507.19966944102384
507.19811166849786
507.1965538511256
507.19499598903894
507.19343808237
507.19188013125085
507.19032213581363
507.1887640961904
507.18720601251357
507.1856478849156
507.18408971352915
507.1825314984867
507.18097323992083
507.1794149379641
507.1778565927491
507.17629820440834
507.1747397730742
507.17318129887894
507.17162278195474
507.17006422243367
507.16850562044806
507.1669469761305
507.1653882896137
507.1638295610303
507.1622707905128
507.16071197819383
507.1591531242059
507.1575942286818
507.15603529175405
507.1544763135555
507.1529172942189
507.1513582338773
507.1497991326637
507.1482399907113
507.14668080815386
507.145121585125
507.14356232175874
507.1420030181889
507.1404436745495
507.13888429097483
507.1373248675991
507.1357654045562
507.13420590198007
507.1326463600044
507.1310867787629
507.12952715838924
507.12796749901736
507.12640780078164
507.1248480638162
507.1232882882555
507.1217284742338
507.12016862188557
507.11860873134515
507.11704880274715
507.1154888362262
507.11392883191706
507.11236878995464
507.110808710474
507.1092485936101
507.10768843949836
507.106128248274
507.10456802007207
507.1030077550274
507.1014474532751
507.0998871149502
507.09832674018776
507.0967663291233
507.0952058818923
507.0936453986301
507.0920848794717
507.09052432455223
507.0889637340067
507.0874031079702
507.0858424465778
507.0842817499645
507.0827210182654
507.081160251616
507.07959945015205
507.07803861400953
507.0764777433242
507.07491683823196
507.0733558988686
507.0717949253699
507.0702339178715
507.06867287650925
507.06711180141883
507.065550692736
507.06398955059626
507.06242837513514
507.0608671664884
507.0593059247917
507.0577446501809
507.0561833427919
507.05462200276065
507.05306063022294
507.0514992253147
507.049937788172
507.0483763189309
507.0468148177274
507.0452532846973
507.0436917199763
507.0421301237002
507.04056849600465
507.0390068370257
507.03744514689924
507.0358834257613
507.03432167374785
507.0327598909946
507.0311980776373
507.02963623381197
507.0280743596543
507.0265124553
507.0249505208851
507.02338855654557
507.0218265624176
507.02026453863755
507.0187024853419
507.0171404026671
507.01557829074954
507.01401614972565
507.0124539797321
507.0108917809057
507.0093295533834
507.0077672973025
507.00620501280036
507.00464270001453
507.00308035908256
507.00151799014225
506.9999555933316
506.9983931687884
506.9968307166507
506.9952682370565
506.9937057301438
506.9921431960504
506.99058063491384
506.98901804687193
506.9874554320627
506.9858927906241
506.984330122694
506.98276742840994
506.98120470790946
506.9796419613301
506.9780791888095
506.97651639048513
506.9749535664946
506.9733907169755
506.9718278420653
506.97026494190163
506.9687020166223
506.9671390663648
506.9655760912667
506.96401309146586
506.9624500670998
506.96088701830604
506.9593239452224
506.9577608479867
506.9561977267367
506.9546345816102
506.953071412745
506.9515082202788
506.94994500434973
506.9483817650955
506.94681850265374
506.94525521716196
506.94369190875796
506.9421285775793
506.94056522376354
506.939001847448
506.9374384487701
506.93587502786727
506.93431158487715
506.9327481199375
506.93118463318615
506.92962112476084
506.9280575947994
506.92649404343933
506.92493047081825
506.9233668770737
506.9218032623435
506.9202396267656
506.91867597047803
506.91711229361886
506.91554859632606
506.9139848787379
506.9124211409926
506.9108573832284
506.9092936055838
506.90772980819725
506.90616599120744
506.9046021547533
506.903038298974
506.9014744240085
506.8999105299956
506.8983466170746
506.89678268538455
506.8952187350649
506.89365476625494
506.8920907790939
506.8905267737209
506.88896275027514
506.8873987088957
506.8858346497216
506.88427057289164
506.88270647854506
506.881142366821
506.8795782378588
506.87801409179815
506.8764499287786
506.8748857489395
506.8733215524203
506.87175733936056
506.8701931098999
506.86862886417794
506.86706460233427
506.86550032450873
506.8639360308414
506.8623717214725
506.86080739654244
506.8592430561914
506.85767870055975
506.85611432978794
506.85454994401675
506.85298554338715
506.85142112804033
506.8498566981177
506.848292253761
506.84672779511175
506.8451633223117
506.84359883550246
506.84203433482594
506.840469820424
506.8389052924383
506.8373407510105
506.83577619628204
506.8342116283943
506.83264704748854
506.83108245370613
506.82951784718875
506.82795322807806
506.8263885965159
506.82482395264424
506.8232592966051
506.8216946285406
506.8201299485929
506.8185652569041
506.8170005536165
506.8154358388722
506.81387111281333
506.8123063755818
506.81074162731943
506.8091768681679
506.8076120982689
506.80604731776384
506.8044825267939
506.80291772550027
506.80135291402416
506.7997880925068
506.79822326108933
506.7966584199128
506.79509356911785
506.7935287088453
506.7919638392359
506.79039896043037
506.78883407256944
506.7872691757941
506.78570427024556
506.7841393560652
506.78257443339476
506.7810095023758
506.7794445631498
506.7778796158582
506.77631466064236
506.77474969764353
506.7731847270031
506.7716197488626
506.7700547633633
506.7684897706465
506.7669247708536
506.76535976412606
506.76379475060526
506.7622297304324
506.7606647037485
506.75909967069424
506.7575346314104
506.75596958603796
506.7544045347179
506.7528394775911
506.7512744147989
506.7497093464824
506.74814427278284
506.7465791938414
506.7450141097993
506.74344902079747
506.7418839269769
506.7403188284784
506.7387537254426
506.73718861801035
506.73562350632255
506.7340583905202
506.7324932707445
506.73092814713664
506.72936301983805
506.72779788899015
506.7262327547346
506.72466761721284
506.7231024765663
506.72153733293635
506.71997218646425
506.7184070372912
506.7168418855583
506.7152767314067
506.7137115749774
506.712146416412
506.71058125585205
506.70901609343946
506.70745092931634
506.705885763625
506.7043205965076
506.70275542810623
506.7011902585632
506.6996250880211
506.6980599166227
506.6964947445108
506.6949295718284
506.6933643987186
506.6917992253243
506.6902340517886
506.6886688782547
506.6871037048661
506.68553853176627
506.6839733590989
506.6824081870077
506.68084301563636
506.6792778451286
506.6777126756281
506.67614750727853
506.67458234022365
506.67301717460737
506.6714520105736
506.6698868482665
506.6683216878305
506.6667565294099
506.66519137314936
506.6636262191937
506.662061067688
506.6604959187771
506.6589307726056
506.65736562931806
506.6558004890594
506.6542353519749
506.6526702182098
506.6511050879096
506.64953996122017
506.6479748382869
506.6464097192552
506.64484460427025
506.64327949347717
506.641714387021
506.6401492850471
506.6385841877011
506.6370190951286
506.6354540074749
506.63388892488547
506.63232384750586
506.6307587754818
506.62919370895906
506.6276286480834
506.6260635930007
506.62449854385727
506.6229335007995
506.621368463974
506.61980343352775
506.61823840960756
506.6166733923603
506.6151083819327
506.61354337847183
506.611978382125
506.6104133930396
506.60884841136317
506.6072834372435
506.60571847082883
506.60415351226766
506.60258856170844
506.60102361929967
506.5994586851898
506.59789375952755
506.5963288424616
506.5947639341407
506.59319903471373
506.59163414432965
506.5900692631376
506.58850439128673
506.5869395289262
506.585374676205
506.5838098332722
506.5822450002772
506.58068017736923
506.5791153646974
506.5775505624108
506.5759857706589
506.5744209895911
506.57285621935694
506.57129146010607
506.5697267119883
506.56816197515377
506.5665972497525
506.5650325359343
506.56346783384924
506.56190314364744
506.56033846547894
506.55877379949357
506.55720914584117
506.5556445046718
506.5540798761356
506.55251526038273
506.5509506575638
506.5493860678296
506.547821491331
506.54625692821924
506.54469237864555
506.54312784276135
506.54156332071807
506.53999881266736
506.5384343187609
506.5368698391503
506.5353053739875
506.5337409234244
506.532176487613
506.530612066706
506.5290476608559
506.52748327021527
506.5259188949367
506.5243545351732
506.5227901910778
506.52122586280325
506.5196615505024
506.51809725432804
506.5165329744332
506.5149687109713
506.5134044640961
506.51184023396104
506.51027602071986
506.508711824526
506.507147645533
506.50558348389427
506.5040193397633
506.5024552132936
506.5008911046384
506.4993270139514
506.4977629413863
506.49619888709685
506.49463485123647
506.49307083395865
506.49150683541734
506.48994285576623
506.4883788951588
506.48681495374854
506.4852510316889
506.4836871291336
506.4821232462366
506.48055938315224
506.47899554003493
506.4774317170393
506.4758679143197
506.4743041320303
506.472740370325
506.4711766293583
506.46961290928425
506.4680492102573
506.46648553243176
506.4649218759621
506.4633582410024
506.4617946277069
506.46023103622974
506.45866746672505
506.457103919347
506.45554039424974
506.45397689158744
506.45241341151427
506.4508499541844
506.44928651975215
506.447723108372
506.44615972019824
506.44459635538533
506.44303301408786
506.44146969646044
506.4399064026579
506.43834313283514
506.4367798871467
506.4352166657475
506.43365346879204
506.4320902964348
506.43052714883015
506.42896402613246
506.4274009284959
506.4258378560751
506.4242748090246
506.4227117874991
506.42114879165274
506.41958582163943
506.4180228776131
506.4164599597275
506.4148970681365
506.4133342029943
506.41177136445503
506.4102085526729
506.4086457678022
506.4070830099972
506.40552027941203
506.40395757620104
506.40239490051886
506.4008322525201
506.39926963235916
506.3977070401902
506.3961444761676
506.39458194044573
506.39301943317923
506.3914569545225
506.38989450462986
506.388332083656
506.38676969175526
506.38520732908205
506.3836449957905
506.3820826920348
506.3805204179689
506.37895817374647
506.3773959595212
506.37583377544684
506.3742716216773
506.3727094983665
506.3711474056681
506.36958534373616
506.3680233127245
506.3664613127871
506.3648993440779
506.36333740675104
506.3617755009607
506.3602136268612
506.358651784607
506.3570899743527
506.35552819625286
506.3539664504624
506.3524047371361
506.35084305642863
506.3492814084948
506.34771979348966
506.34615821156854
506.3445966628867
506.34303514759927
506.3414736658615
506.33991221782867
506.33835080365634
506.3367894235
506.33522807751524
506.3336667658575
506.3321054886824
506.33054424614534
506.32898303840193
506.3274218656079
506.3258607279188
506.3242996254901
506.32273855847734
506.3211775270363
506.3196165313225
506.3180555714914
506.3164946476986
506.31493376009985
506.3133729088511
506.3118120941083
506.31025131602746
506.30869057476457
506.3071298704758
506.3055692033174
506.3040085734458
506.3024479810174
506.30088742618864
506.29932690911596
506.297766429956
506.2962059888655
506.29464558600125
506.2930852215202
506.29152489557896
506.28996460833423
506.28840435994266
506.2868441505609
506.28528398034564
506.2837238494535
506.2821637580412
506.28060370626554
506.2790436942837
506.277483722253
506.2759237903308
506.27436389867444
506.27280404744147
506.27124423678947
506.2696844668758
506.26812473785776
506.26656504989296
506.26500540313873
506.2634457977524
506.2618862338918
506.26032671171515
506.2587672313807
506.25720779304675
506.25564839687127
506.2540890430121
506.25252973162696
506.25097046287397
506.2494112369109
506.24785205389526
506.2462929139849
506.24473381733765
506.2431747641115
506.2416157544649
506.24005678855656
506.23849786654523
506.2369389885894
506.23538015484723
506.2338213654773
506.23226262063804
506.23070392048794
506.2291452651855
506.2275866548889
506.22602808975626
506.2244695699453
506.2229110956139
506.22135266691953
506.2197942840196
506.21823594707143
506.2166776562326
506.2151194116609
506.21356121351414
506.2120030619501
506.21044495712704
506.2088868992032
506.2073288883371
506.20577092468716
506.2042130084121
506.20265513967047
506.2010973186211
506.199539545423
506.1979818202351
506.1964241432163
506.1948665145253
506.19330893432084
506.19175140276184
506.190193920007
506.1886364862153
506.1870791015456
506.1855217661566
506.18396448020735
506.18240724385646
506.18085005726243
506.179292920584
506.1777358339798
506.1761787976088
506.1746218116298
506.1730648762016
506.17150799148317
506.1699511576337
506.1683943748126
506.1668376431792
506.16528096289335
506.16372433411516
506.1621677570047
506.160611231722
506.15905475842715
506.15749833728046
506.155941968442
506.1543856520718
506.1528293883298
506.15127317737574
506.1497170193695
506.14816091447096
506.14660486284015
506.1450488646369
506.1434929200216
506.1419370291542
506.14038119219504
506.1388254093047
506.1372696806436
506.1357140063724
506.1341583866515
506.13260282164174
506.13104731150406
506.1294918563992
506.127936456488
506.1263811119311
506.1248258228891
506.12327058952224
506.1217154119911
506.12016029045617
506.118605225078
506.1170502160171
506.115495263434
506.11394036748925
506.11238552834334
506.1108307461566
506.1092760210893
506.10772135330194
506.10616674295557
506.10461219021136
506.10305769523075
506.10150325817494
506.09994887920516
506.0983945584828
506.0968402961694
506.09528609242625
506.0937319474149
506.0921778612967
506.09062383423316
506.08906986638567
506.0875159579157
506.08596210898463
506.08440831975395
506.08285459038484
506.08130092103875
506.0797473118773
506.0781937630625
506.0766402747563
506.07508684712093
506.07353348031825
506.07198017451014
506.0704269298585
506.06887374652547
506.06732062467313
506.0657675644636
506.0642145660595
506.06266162962356
506.06110875531886
506.0595559433086
506.0580031937561
506.0564505068246
506.05489788267755
506.05334532147845
506.05179282339077
506.05024038857823
506.0486880172043
506.0471357094325
506.0455834654265
506.04403128535023
506.0424791693674
506.0409271176418
506.039375130337
506.0378232076166
506.03627134964404
506.0347195565828
506.0331678285961
506.0316161658475
506.0300645685004
506.0285130367181
506.02696157066384
506.0254101705011
506.0238588363934
506.02230756850395
506.02075636699624
506.01920523203376
506.01765416378
506.0161031623984
506.0145522280525
506.01300136090595
506.01145056112273
506.00989982886676
506.0083491643022
506.00679856759325
506.005248038904
506.0036975783985
506.00214718624056
506.00059686259465
505.99904660762536
505.9974964214971
505.995946304374
505.9943962564205
505.99284627780094
505.99129636867997
505.98974652922243
505.98819675959317
505.986647059957
505.9850974304791
505.98354787132484
505.98199838265964
505.980448964649
505.9788996174582
505.97735034125253
505.97580113619733
505.9742520024579
505.97270294019995
505.9711539495895
505.96960503079254
505.96805618397525
505.9665074093041
505.9649587069455
505.9634100770661
505.9618615198326
505.9603130354117
505.95876462396996
505.9572162856741
505.95566802069084
505.954119829187
505.9525717113297
505.95102366728634
505.94947569722444
505.9479278013114
505.9463799797145
505.9448322326009
505.94328456013795
505.9417369624932
505.9401894398345
505.9386419923294
505.9370946201457
505.9355473234509
505.9340001024127
505.9324529571984
505.9309058879751
505.9293588949097
505.9278119781691
505.92626513792015
505.92471837433004
505.9231716875661
505.92162507779585
505.9200785451869
505.9185320899071
505.9169857121244
505.9154394120071
505.91389318972347
505.9123470454417
505.91080097933013
505.9092549915572
505.9077090822916
505.9061632517021
505.90461749995734
505.9030718272263
505.9015262336777
505.89998071948
505.8984352848015
505.8968899298104
505.8953446546748
505.89379945956284
505.8922543446429
505.89070931008314
505.8891643560519
505.8876194827176
505.88607469024873
505.8845299788138
505.88298534858154
505.88144079972085
505.8798963324009
505.87835194679064
505.876807643059
505.87526342137517
505.8737192819085
505.87217522482865
505.8706312503052
505.8690873585076
505.86754354960544
505.8659998237681
505.8644561811652
505.8629126219664
505.8613691463413
505.8598257544595
505.8582824464904
505.85673922260366
505.8551960829691
505.85365302775676
505.85211005713677
505.8505671712794
505.84902437035475
505.8474816545329
505.8459390239839
505.84439647887757
505.8428540193838
505.84131164567225
505.8397693579127
505.8382271562748
505.8366850409284
505.83514301204355
505.8336010697906
505.8320592143398
505.83051744586146
505.8289757645264
505.82743417050506
505.82589266396803
505.82435124508606
505.82280991403013
505.821268670971
505.8197275160794
505.81818644952614
505.81664547148216
505.8151045821187
505.81356378160694
505.81202307011813
505.81048244782346
505.8089419148939
505.8074014715007
505.80586111781486
505.8043208540075
505.80278068024995
505.80124059671334
505.79970060356914
505.7981607009888
505.7966208891439
505.7950811682065
505.79354153834834
505.7920019997414
505.7904625525575
505.78892319696865
505.78738393314666
505.78584476126343
505.7843056814911
505.7827666940018
505.78122779896717
505.7796889965589
505.77815028694863
505.77661167030783
505.77507314680815
505.7735347166215
505.77199637992
505.77045813687573
505.76891998766087
505.7673819324473
505.7658439714071
505.76430610471243
505.7627683325354
505.76123065504817
505.7596930724228
505.758155584831
505.7566181924444
505.75508089543473
505.75354369397337
505.75200658823155
505.7504695783807
505.7489326645921
505.7473958470366
505.74585912588554
505.74432250130985
505.7427859734803
505.7412495425674
505.7397132087417
505.73817697217396
505.7366408330349
505.73510479149513
505.7335688477251
505.73203300189516
505.7304972541756
505.72896160473647
505.7274260537481
505.725890601381
505.72435524780553
505.7228199931917
505.7212848377094
505.71974978152844
505.7182148248187
505.71667996774977
505.7151452104913
505.71361055321313
505.7120759960851
505.7105415392773
505.70900718296
505.70747292730334
505.70593877247757
505.7044047186532
505.70287076600107
505.70133691469186
505.69980316489614
505.69826951678465
505.6967359705279
505.6952025262967
505.6936691842618
505.6921359445937
505.69060280746294
505.68906977304005
505.6875368414958
505.6860040130009
505.6844712877262
505.68293866584213
505.6814061475193
505.6798737329284
505.67834142224
505.67680921562464
505.67527711325306
505.673745115296
505.67221322192404
505.6706814333079
505.6691497496183
505.6676181710259
505.66608669770085
505.66455532981354
505.66302406753425
505.6614929110333
505.65996186048096
505.65843091604734
505.6569000779027
505.6553693462172
505.6538387211608
505.65230820290367
505.6507777916156
505.6492474874665
505.6477172906259
505.6461872012633
505.6446572195482
505.6431273456501
505.6415975797386
505.6400679219828
505.6385383725524
505.63700893161695
505.6354795993461
505.6339503759093
505.63242126147566
505.6308922562141
505.6293633602936
505.6278345738831
505.6263058971515
505.62477733026776
505.6232488734008
505.62172052671986
505.620192290394
505.6186641645927
505.6171361494853
505.6156082452412
505.61408045202984
505.6125527700208
505.6110251993837
505.60949774028836
505.6079703929047
505.6064431574025
505.60491603395144
505.60338902272133
505.60186212388203
505.60033533760316
505.59880866405456
505.5972821034063
505.5957556558287
505.59422932149187
505.5927031005658
505.59117699322064
505.58965099962666
505.58812511995393
505.58659935437254
505.58507370305256
505.58354816616406
505.5820227438769
505.58049743636116
505.5789722437869
505.5774471663244
505.57592220414404
505.57439735741605
505.57287262631075
505.5713480109987
505.5698235116504
505.5682991284366
505.5667748615281
505.5652507110956
505.56372667730966
505.5622027603413
505.56067896036143
505.5591552775411
505.55763171205126
505.55610826406314
505.5545849337482
505.553061721278
505.55153862682437
505.5500156505591
505.5484927926543
505.54697005328217
505.5454474326143
505.54392493082264
505.5424025480788
505.54088028455476
505.53935814042234
505.5378361158532
505.5363142110193
505.5347924260923
505.5332707612438
505.5317492166455
505.5302277924691
505.5287064888862
505.52718530606853
505.5256642441875
505.52414330341435
505.52262248392026
505.52110178587645
505.5195812094544
505.51806075482546
505.51654042216114
505.5150202116329
505.51350012341186
505.5119801576693
505.5104603145762
505.50894059430357
505.50742099702234
505.5059015229033
505.5043821721174
505.50286294483544
505.50134384122794
505.4998248614652
505.4983060057175
505.49678727415494
505.4952686669476
505.49375018426576
505.49223182627975
505.49071359315985
505.4891954850764
505.48767750219963
505.4861596446999
505.48464191274775
505.4831243065137
505.48160682616844
505.48008947188305
505.47857224382847
505.4770551421757
505.47553816709546
505.47402131875833
505.47250459733505
505.4709880029966
505.4694715359137
505.46795519625744
505.46643898419893
505.4649228999094
505.46340694356013
505.46189111532226
505.460375415367
505.45885984386564
505.45734440098954
505.4558290869104
505.45431390179965
505.45279884582874
505.4512839191689
505.44976912199127
505.44825445446736
505.4467399167686
505.44522550906663
505.44371123153314
505.4421970843398
505.44068306765803
505.4391691816593
505.437655426515
505.4361418023964
505.43462830947465
505.43311494792124
505.43160171790737
505.43008861960425
505.4285756531831
505.4270628188151
505.42555011667173
505.4240375469244
505.4225251097448
505.4210128053046
505.41950063377567
505.41798859533014
505.41647669014037
505.4149649183787
505.4134532802175
505.41194177582906
505.4104304053858
505.40891916906
505.4074080670239
505.4058970994497
505.40438626650985
505.4028755683769
505.4013650052234
505.39985457722173
505.39834428454424
505.39683412736304
505.39532410585025
505.393814220178
505.3923044705184
505.3907948570434
505.389285379925
505.3877760393352
505.3862668354459
505.3847577684289
505.383248838456
505.38174004569873
505.3802313903286
505.3787228725171
505.37721449243554
505.37570625025546
505.3741981461483
505.37269018028564
505.37118235283924
505.36967466398073
505.36816711388155
505.3666597027134
505.3651524306474
505.3636452978551
505.36213830450765
505.3606314507765
505.3591247368331
505.3576181628489
505.35611172899553
505.3546054354449
505.35309928236893
505.3515932699395
505.35008739832847
505.3485816677078
505.3470760782491
505.34557063012403
505.3440653235043
505.34256015856135
505.3410551354666
505.33955025439127
505.33804551550634
505.3365409189828
505.3350364649916
505.3335321537036
505.3320279852894
505.3305239599199
505.3290200777658
505.32751633899784
505.3260127437868
505.32450929230345
505.32300598471875
505.32150282120347
505.31999980192836
505.3184969270642
505.3169941967815
505.31549161125054
505.31398917064143
505.31248687512425
505.31098472486906
505.30948272004616
505.30798086082564
505.30647914737756
505.30497757987223
505.30347615847995
505.30197488337126
505.3004737547167
505.29897277268674
505.29747193745175
505.29597124918223
505.2944707080487
505.292970314222
505.2914700678725
505.28996996917044
505.2884700182858
505.2869702153887
505.28547056064895
505.2839710542364
505.2824716963207
505.2809724870717
505.279473426659
505.27797451525225
505.27647575302103
505.274977140135
505.2734786767637
505.27198036307686
505.27048219924404
505.26898418543465
505.26748632181807
505.2659886085635
505.2644910458398
505.262993633816
505.26149637266076
505.2599992625428
505.2585023036306
505.25700549609246
505.2555088400966
505.254012335811
505.2525159834038
505.2510197830429
505.24952373489646
505.2480278391322
505.2465320959179
505.24503650542147
505.2435410678106
505.24204578325293
505.240550651916
505.2390556739674
505.2375608495747
505.2360661789055
505.23457166212734
505.233077299408
505.2315830909156
505.23008903681784
505.2285951372826
505.22710139247783
505.22560780257163
505.2241143677318
505.22262108812583
505.2211279639216
505.2196349952869
505.21814218238956
505.2166495253973
505.215157024478
505.2136646797992
505.21217249152846
505.2106804598334
505.2091885848813
505.2076968668398
505.2062053058762
505.2047139021581
505.2032226558531
505.2017315671285
505.2002406361514
505.198749863089
505.19725924810837
505.1957687913766
505.19427849306066
505.1927883533274
505.1912983723437
505.18980855027644
505.18831888729255
505.18682938355914
505.18534003924333
505.18385085451223
505.18236182953274
505.1808729644715
505.17938425949524
505.1778957147708
505.1764073304648
505.1749191067438
505.17343104377437
505.1719431417232
505.17045540075696
505.1689678210421
505.167480402745
505.1659931460322
505.16450605107025
505.16301911802566
505.1615323470646
505.1600457383531
505.1585592920569
505.1570730083415
505.155586887372
505.1541009293135
505.15261513433074
505.1511295025889
505.149644034253
505.14815872948793
505.1466735884585
505.14518861132956
505.1437037982662
505.1422191494337
505.1407346649971
505.1392503451218
505.13776618997304
505.1362821997161
505.13479837451655
505.1333147145399
505.13183121995144
505.13034789091625
505.12886472759965
505.1273817301669
505.12589889878336
505.12441623361406
505.1229337348241
505.1214514025785
505.11996923704214
505.11848723837966
505.11700540675565
505.11552374233474
505.1140422452813
505.1125609157598
505.1110797539345
505.1095987599699
505.10811793403036
505.10663727628
505.1051567868831
505.1036764660039
505.10219631380687
505.1007163304564
505.0992365161169
505.09775687095294
505.0962773951294
505.0947980888109
505.093318952162
505.0918399853474
505.0903611885317
505.0888825618797
505.0874041055565
505.085925819727
505.08444770455617
505.0829697602096
505.0814919868528
505.08001438465135
505.0785369537705
505.0770596943755
505.075582606632
505.0741056907052
505.07262894676023
505.07115237496214
505.0696759754758
505.0681997484662
505.0667236940983
505.06524781253665
505.0637721039459
505.06229656849064
505.0608212063355
505.0593460176449
505.05787100258317
505.05639616131475
505.0549214940038
505.05344700081446
505.0519726819109
505.0504985374571
505.0490245676167
505.04755077255345
505.0460771524313
505.04460370741435
505.0431304376666
505.04165734335197
505.0401844246344
505.0387116816778
505.0372391146461
505.0357667237031
505.0342945090124
505.032822470738
505.0313506090438
505.02987892409374
505.02840741605155
505.0269360850807
505.02546493134423
505.02399395500515
505.0225231562265
505.02105253517107
505.01958209200143
505.01811182688016
505.0166417399696
505.0151718314321
505.01370210143
505.01223255012565
505.01076317768116
505.00929398425865
505.00782497002
505.00635613512736
505.0048874797428
505.0034190040283
505.0019507081456
505.00048259225673
504.9990146565235
504.99754690110785
504.9960793261714
504.99461193187585
504.99314471838306
504.9916776858547
504.99021083445245
504.98874416433796
504.98727767567266
504.98581136861776
504.98434524333425
504.9828792999831
504.9814135387253
504.97994795972136
504.9784825631316
504.9770173491163
504.97555231783576
504.9740874694505
504.9726228041209
504.97115832200734
504.96969402327045
504.96822990807095
504.9667659765696
504.9653022289274
504.9638386653048
504.96237528586244
504.960912090761
504.95944908016077
504.9579862542221
504.9565236131052
504.9550611569705
504.95359888597795
504.9521368002877
504.95067490005977
504.949213185454
504.94775165663054
504.94629031374916
504.94482915696994
504.9433681864532
504.94190740235945
504.940446804849
504.9389863940821
504.9375261702189
504.9360661334192
504.93460628384287
504.9331466216497
504.9316871469996
504.9302278600519
504.928768760966
504.92730984990135
504.92585112701727
504.92439259247294
504.92293424642753
504.92147608903997
504.9200181204692
504.91856034087414
504.91710275041373
504.9156453492467
504.9141881375317
504.9127311154275
504.91127428309255
504.90981764068533
504.9083611883643
504.90690492628823
504.90544885461577
504.9039929735054
504.90253728311586
504.90108178360583
504.8996264751338
504.898171357858
504.89671643193674
504.895261697528
504.89380715479
504.8923528038806
504.8908986449576
504.8894446781785
504.88799090370117
504.88653732168336
504.8850839322829
504.8836307356578
504.88217773196607
504.88072492136575
504.8792723040149
504.87781988007123
504.8763676496926
504.8749156130368
504.8734637702614
504.87201212152377
504.8705606669812
504.86910940679104
504.86765834111065
504.86620747009715
504.8647567939079
504.8633063127004
504.86185602663204
504.8604059358602
504.85895604054235
504.8575063408359
504.85605683689823
504.85460752888685
504.85315841695933
504.85170950127326
504.8502607819862
504.84881225925574
504.8473639332394
504.84591580409483
504.84446787197953
504.8430201370511
504.8415725994671
504.84012525938465
504.8386781169611
504.83723117235354
504.8357844257191
504.83433787721515
504.8328915269992
504.8314453752289
504.829999422062
504.82855366765625
504.8271081121693
504.82566275575846
504.8242175985813
504.8227726407954
504.8213278825581
504.8198833240267
504.81843896535884
504.81699480671205
504.8155508482437
504.81410709011107
504.81266353247133
504.8112201754818
504.8097770193001
504.80833406408374
504.8068913099901
504.80544875717646
504.8040064058
504.8025642560176
504.8011223079859
504.7996805618616
504.79823901780105
504.79679767596076
504.79535653649714
504.7939155995664
504.7924748653247
504.79103433392856
504.7895940055346
504.7881538802992
504.7867139583791
504.78527423993114
504.78383472511223
504.7823954140795
504.78095630699
504.7795174040009
504.7780787052693
504.7766402109521
504.7752019212062
504.77376383618844
504.77232595605574
504.770888280965
504.76945081107306
504.7680135465371
504.7665764875144
504.7651396341623
504.76370298663824
504.762266545099
504.76083030970153
504.7593942806029
504.7579584579605
504.75652284193166
504.7550874326737
504.75365223034396
504.75221723510003
504.75078244709925
504.74934786649897
504.7479134934563
504.7464793281283
504.74504537067196
504.7436116212439
504.7421780800007
504.74074474709937
504.7393116226965
504.737878706949
504.73644600001376
504.7350135020479
504.7335812132085
504.7321491336527
504.7307172635378
504.729285603021
504.72785415225917
504.7264229114094
504.72499188062875
504.7235610600742
504.72213044990235
504.7207000502699
504.7192698613335
504.71783988325
504.71641011617635
504.7149805602694
504.71355121568627
504.7121220825841
504.7106931611197
504.70926445145005
504.70783595373223
504.7064076681231
504.7049795947794
504.70355173385747
504.702124085514
504.70069664990547
504.699269427188
504.6978424175177
504.6964156210504
504.6949890379424
504.69356266834984
504.692136512429
504.69071057033625
504.68928484222806
504.6878593282611
504.68643402859175
504.6850089433767
504.6835840727724
504.6821594169355
504.68073497602245
504.6793107501894
504.6778867395924
504.67646294438714
504.6750393647292
504.673616000774
504.6721928526772
504.670769920594
504.6693472046795
504.6679247050886
504.6665024219758
504.665080355496
504.6636585058038
504.66223687305364
504.66081545739985
504.6593942589966
504.6579732779978
504.65655251455746
504.6551319688292
504.6537116409668
504.65229153112386
504.65087163945395
504.6494519661105
504.6480325112468
504.6466132750161
504.64519425757135
504.64377545906564
504.64235687965174
504.64093851948223
504.6395203787097
504.6381024574864
504.63668475596455
504.635267274296
504.63385001263237
504.6324329711249
504.63101614992433
504.62959954918165
504.6281831690478
504.62676700967404
504.6253510712113
504.62393535381034
504.6225198576219
504.62110458279676
504.6196895294854
504.6182746978384
504.6168600880062
504.6154457001396
504.61403153438937
504.612617590906
504.61120386984
504.6097903713421
504.6083770955631
504.60696404265354
504.60555121276366
504.60413860604376
504.60272622264415
504.6013140627149
504.59990212640605
504.5984904138677
504.59707892524966
504.59566766070157
504.594256620373
504.5928458044136
504.591435212973
504.5900248462008
504.58861470424654
504.5872047872597
504.58579509538936
504.58438562878473
504.58297638759495
504.58156737196896
504.5801585820557
504.57875001800403
504.57734167996273
504.57593356808025
504.5745256825048
504.5731180233847
504.5717105908684
504.57030338510435
504.5688964062406
504.5674896544249
504.56608312980507
504.5646768325289
504.5632707627442
504.56186492059874
504.5604593062401
504.5590539198156
504.5576487614728
504.5562438313593
504.5548391296227
504.5534346564107
504.5520304118709
504.55062639615085
504.54922260939793
504.5478190517597
504.5464157233839
504.5450126244184
504.54360975501095
504.5422071153091
504.54080470546046
504.5394025256128
504.5380005759141
504.5365988565122
504.5351973675547
504.5337961091893
504.53239508156366
504.5309942848253
504.529593719122
504.52819338460176
504.52679328141244
504.52539340970156
504.52399376961694
504.5225943613061
504.52119518491645
504.51979624059527
504.5183975284899
504.51699904874795
504.51560080151694
504.51420278694445
504.51280500517805
504.5114074563653
504.510010140654
504.5086130581917
504.507216209126
504.50581959360443
504.5044232117748
504.5030270637849
504.5016311497825
504.5002354699152
504.4988400243303
504.4974448131752
504.49604983659697
504.4946550947427
504.49326058775955
504.4918663157948
504.49047227899587
504.48907847751025
504.48768491148553
504.4862915810693
504.48489848640907
504.48350562765245
504.482113004947
504.4807206184405
504.4793284682805
504.47793655461487
504.4765448775913
504.4751534373577
504.4737622340617
504.4723712678515
504.47098053887476
504.4695900472793
504.468199793213
504.46680977682377
504.4654199982597
504.46403045766874
504.4626411551992
504.4612520909991
504.4598632652164
504.45847467799945
504.45708632949595
504.4556982198535
504.4543103492192
504.4529227177404
504.45153532556446
504.45014817283845
504.4487612597093
504.4473745863238
504.4459881528287
504.4446019593704
504.4432160060951
504.44183029314877
504.4404448206776
504.43905958882806
504.4376745977463
504.4362898475781
504.4349053384692
504.4335210705656
504.43213704401296
504.4307532589569
504.42936971554263
504.4279864139155
504.42660335422056
504.4252205366031
504.42383796120816
504.4224556281806
504.42107353766505
504.4196916898061
504.4183100847481
504.4169287226355
504.4155476036126
504.4141667278236
504.4127860954129
504.4114057065251
504.41002556130456
504.4086456598959
504.40726600244375
504.4058865890927
504.4045074199871
504.4031284952712
504.40174981508926
504.4003713795855
504.3989931889041
504.3976152431892
504.3962375425849
504.39486008723543
504.39348287728467
504.39210591287633
504.3907291941539
504.3893527212606
504.3879764943399
504.3866005135353
504.3852247789903
504.38384929084805
504.38247404925164
504.3810990543441
504.37972430626814
504.3783498051664
504.376975551181
504.37560154445373
504.37422778512655
504.3728542733411
504.37148100923923
504.37010799296263
504.3687352246527
504.3673627044511
504.36599043249953
504.3646184089398
504.36324663391383
504.3618751075635
504.3605038300309
504.3591328014579
504.3577620219862
504.35639149175745
504.35502121091304
504.3536511795944
504.35228139794276
504.3509118660993
504.3495425842052
504.34817355240193
504.3468047708309
504.3454362396335
504.34406795895075
504.3426999289236
504.34133214969256
504.33996462139817
504.3385973441807
504.33723031818045
504.33586354353747
504.3344970203916
504.3331307488827
504.33176472915034
504.33039896133414
504.3290334455737
504.32766818200867
504.3263031707784
504.324938412022
504.32357390587845
504.32220965248644
504.3208456519849
504.3194819045127
504.31811841020885
504.31675516921223
504.31539218166176
504.31402944769616
504.31266696745433
504.31130474107545
504.30994276869865
504.3085810504631
504.30721958650815
504.305858376973
504.30449742199653
504.3031367217177
504.3017762762754
504.30041608580837
504.29905615045527
504.2976964703546
504.2963370456446
504.2949778764637
504.29361896295063
504.2922603052441
504.2909019034828
504.2895437578054
504.28818586835087
504.2868282352579
504.2854708586649
504.2841137387104
504.28275687553264
504.2814002692696
504.28004392005937
504.27868782803966
504.2773319933483
504.27597641612306
504.27462109650173
504.2732660346221
504.271911230622
504.27055668463936
504.2692023968125
504.2678483672794
504.26649459617784
504.26514108364563
504.26378782982033
504.2624348348395
504.26108209884046
504.25972962196056
504.2583774043369
504.2570254461066
504.2556737474067
504.2543223083744
504.2529711291468
504.25162020986113
504.2502695506548
504.24891915166495
504.2475690130286
504.2462191348827
504.24486951736435
504.2435201606106
504.2421710647584
504.24082222994457
504.2394736563058
504.2381253439785
504.23677729309907
504.23542950380374
504.2340819762285
504.232734710509
504.2313877067811
504.2300409651805
504.2286944858429
504.22734826890405
504.22600231449974
504.2246566227657
504.2233111938374
504.22196602785016
504.22062112493904
504.2192764852391
504.2179321088852
504.2165879960123
504.2152441467556
504.21390056125006
504.21255723963077
504.21121418203256
504.2098713885903
504.20852885943873
504.207186594713
504.2058445945479
504.2045028590783
504.2031613884392
504.20182018276546
504.20047924219193
504.19913856685343
504.1977981568846
504.1964580124197
504.19511813359327
504.1937785205398
504.1924391733942
504.1911000922912
504.18976127736573
504.1884227287526
504.1870844465868
504.1857464310033
504.1844086821368
504.18307120012196
504.1817339850934
504.1803970371857
504.17906035653345
504.1777239432711
504.1763877975327
504.17505191945224
504.17371630916386
504.1723809668017
504.1710458924997
504.16971108639154
504.1683765486107
504.1670422792904
504.16570827856367
504.16437454656307
504.1630410834209
504.16170788926934
504.1603749642404
504.1590423084665
504.1577099220799
504.1563778052132
504.15504595799916
504.1537143805706
504.15238307306026
504.15105203560097
504.1497212683257
504.14839077136753
504.1470605448594
504.1457305889346
504.1444009037266
504.1430714893686
504.14174234599386
504.14041347373563
504.13908487272715
504.13775654310166
504.13642848499217
504.1351006985319
504.13377318385415
504.1324459410921
504.1311189703788
504.12979227184724
504.1284658456302
504.1271396918605
504.1258138106707
504.1244882021931
504.12316286656005
504.12183780390365
504.120513014356
504.11918849804897
504.1178642551142
504.11654028568364
504.11521658988886
504.11389316786153
504.11257001973354
504.11124714563675
504.1099245457026
504.10860222006227
504.1072801688472
504.10595839218854
504.10463689021753
504.10331566306536
504.101994710863
504.10067403374137
504.09935363183126
504.0980335052634
504.0967136541685
504.0953940786769
504.09407477891887
504.0927557550244
504.09143700712366
504.0901185353466
504.08880033982336
504.0874824206837
504.08616477805754
504.08484741207485
504.0835303228655
504.0822135105591
504.080896975285
504.0795807171726
504.07826473635123
504.0769490329501
504.0756336070981
504.0743184589239
504.07300358855605
504.07168899612316
504.07037468175395
504.0690606455771
504.06774688772134
504.06643340831556
504.06512020748846
504.06380728536874
504.0624946420851
504.06118227776597
504.0598701925401
504.0585583865361
504.0572468598825
504.0559356127078
504.0546246451404
504.0533139573088
504.0520035493412
504.05069342136585
504.049383573511
504.04807400590494
504.0467647186756
504.04545571195104
504.04414698585924
504.04283854052824
504.04153037608626
504.04022249266177
504.03891489038324
504.03760756937913
504.0363005297779
504.03499377170783
504.0336872952969
504.0323811006731
504.03107518796423
504.0297695572981
504.02846420880223
504.027159142604
504.02585435883043
504.0245498576087
504.02324563906586
504.0219417033293
504.02063805052603
504.01933468078323
504.0180315942275
504.01672879098555
504.01542627118397
504.0141240349492
504.01282208240764
504.0115204136855
504.0102190289085
504.00891792820244
504.007617111693
504.00631657950566
504.005016331766
504.0037163685995
504.00241669013144
504.00111729648665
503.99981818778997
503.99851936416644
503.9972208257409
503.99592257263794
503.99462460498216
503.9933269228982
503.99202952651035
503.9907324159433
503.9894355913216
503.98813905276984
503.98684280041243
503.9855468343735
503.9842511547772
503.9829557617477
503.9816606554091
503.98036583588555
503.9790713033012
503.97777705778003
503.9764830994459
503.9751894284225
503.9738960448335
503.97260294880243
503.9713101404525
503.9700176199067
503.96872538728803
503.96743344271954
503.96614178632376
503.964850418223
503.96355933853965
503.96226854739575
503.96097804491365
503.95968783121566
503.95839790642435
503.95710827066205
503.95581892405085
503.9545298667131
503.95324109877083
503.9519526203462
503.9506644315611
503.94937653253737
503.9480889233971
503.9468016042624
503.94551457525563
503.94422783649884
503.9429413881139
503.94165523022275
503.9403693629472
503.9390837864091
503.9377985007302
503.93651350603204
503.9352288024363
503.93394439006465
503.9326602690387
503.9313764394801
503.93009290151053
503.92880965525137
503.92752670082405
503.92624403835
503.9249616679506
503.9236795897468
503.92239780385967
503.92111631041007
503.919835109519
503.9185542013074
503.9172735858963
503.91599326340634
503.91471323395854
503.9134334976736
503.9121540546721
503.9108749050747
503.9095960490022
503.90831748657524
503.9070392179144
503.9057612431402
503.9044835623731
503.90320617573366
503.90192908334234
503.90065228531967
503.89937578178615
503.89809957286207
503.8968236586679
503.89554803932447
503.8942727149522
503.8929976856716
503.89172295160324
503.8904485128676
503.8891743695849
503.88790052187505
503.8866269698576
503.8853537136522
503.8840807533786
503.8828080891567
503.8815357211058
503.8802636493451
503.87899187399375
503.8777203951706
503.87644921299466
503.8751783275843
503.8739077390578
503.8726374475334
503.8713674531291
503.87009775596243
503.86882835615097
503.86755925381203
503.86629044906294
503.8650219420208
503.8637537328027
503.8624858215255
503.8612182083059
503.85995089326025
503.85868387650453
503.8574171581545
503.85615073832537
503.85488461713226
503.8536187946902
503.8523532711142
503.8510880465194
503.84982312102056
503.8485584947325
503.8472941677701
503.8460301402479
503.8447664122805
503.8435029839825
503.84223985546873
503.8409770268538
503.8397144982523
503.8384522697786
503.83719034154706
503.83592871367205
503.8346673862675
503.83340635944705
503.83214563332444
503.83088520801334
503.8296250836272
503.8283652602795
503.8271057380832
503.8258465171514
503.824587597597
503.82332897953324
503.8220706630734
503.82081264833096
503.8195549354191
503.81829752445105
503.8170404155401
503.81578360879917
503.8145271043411
503.81327090227865
503.81201500272414
503.81075940578967
503.8095041115871
503.80824912022854
503.80699443182607
503.80574004649156
503.80448596433666
503.803232185473
503.80197871001224
503.8007255380662
503.7994726697468
503.7982201051657
503.7969678444342
503.7957158876636
503.79446423496483
503.7932128864486
503.7919618422259
503.7907111024074
503.78946066710387
503.7882105364258
503.7869607104835
503.78571118938726
503.7844619732473
503.7832130621737
503.7819644562767
503.78071615566637
503.77946816045255
503.7782204707453
503.77697308665483
503.7757260082917
503.7744792357662
503.77323276918855
503.77198660866884
503.7707407543171
503.7694952062434
503.7682499645575
503.76700502936933
503.7657604007886
503.7645160789252
503.76327206388896
503.7620283557894
503.760784954736
503.75954186083777
503.7582990742037
503.7570565949429
503.75581442316434
503.75457255897686
503.7533310024894
503.75208975381065
503.7508488130495
503.7496081803147
503.7483678557146
503.74712783935774
503.74588813135256
503.7446487318075
503.7434096408308
503.74217085853047
503.74093238501473
503.7396942203916
503.7384563647688
503.7372188182542
503.73598158095524
503.73474465297954
503.73350803443464
503.73227172542806
503.73103572606715
503.7298000364592
503.72856465671134
503.72732958693064
503.7260948272242
503.7248603776993
503.7236262384631
503.72239240962267
503.7211588912851
503.7199256835572
503.7186927865457
503.7174602003572
503.7162279250981
503.7149959608746
503.7137643077931
503.71253296596024
503.7113019354824
503.71007121646585
503.7088408090167
503.7076107132409
503.70638092924446
503.7051514571333
503.7039222970134
503.70269344899043
503.7014649131702
503.70023668965837
503.6990087785607
503.6977811799827
503.6965538940294
503.6953269208059
503.69410026041714
503.692873912968
503.69164787856334
503.6904221573079
503.6891967493068
503.6879716546648
503.68674687348675
503.68552240587746
503.68429825194175
503.68307441178445
503.6818508855106
503.68062767322544
503.6794047750341
503.67818219104174
503.67695992135395
503.67573796607576
503.6745163253122
503.6732949991683
503.67207398774895
503.67085329115866
503.6696329095016
503.6684128428817
503.6671930914026
503.6659736551678
503.6647545342805
503.66353572884395
503.6623172389611
503.6610990647348
503.6598812062675
503.6586636636616
503.6574464370194
503.65622952644344
503.655012932036
503.65379665389924
503.6525806921354
503.6513650468469
503.65014971813594
503.6489347061047
503.6477200108552
503.6465056324896
503.64529157110996
503.6440778268184
503.6428643997169
503.6416512899077
503.6404384974926
503.63922602257367
503.638013865253
503.6368020256325
503.6355905038138
503.63437929989846
503.63316841398796
503.63195784618324
503.630747596585
503.62953766529404
503.62832805241123
503.62711875803734
503.62590978227263
503.62470112521737
503.62349278697184
503.62228476763585
503.6210770673092
503.61986968609153
503.6186626240824
503.6174558813816
503.61624945808876
503.61504335430345
503.6138375701255
503.61263210565494
503.61142696099137
503.61022213623437
503.6090176314831
503.60781344683664
503.6066095823942
503.6054060382546
503.60420281451707
503.6029999112809
503.60179732864526
503.6005950667095
503.59939312557253
503.5981915053335
503.5969902060915
503.5957892279457
503.59458857099503
503.5933882353381
503.5921882210737
503.59098852830016
503.5897891571158
503.58859010761853
503.5873913799062
503.5861929740763
503.5849948902262
503.58379712845317
503.58259968885454
503.5814025715272
503.58020577656794
503.5790093040732
503.577813154139
503.5766173268612
503.575421822336
503.5742266406596
503.57303178192797
503.5718372462368
503.5706430336818
503.56944914435894
503.5682555783642
503.56706233579325
503.56586941674163
503.56467682130483
503.56348454957856
503.5622926016588
503.5611009776417
503.5599096776234
503.55871870169995
503.55752804996723
503.55633772252077
503.55514771945604
503.55395804086857
503.5527686868538
503.5515796575073
503.55039095292454
503.5492025732012
503.5480145184331
503.54682678871586
503.54563938414503
503.5444523048161
503.5432655508246
503.54207912226593
503.54089301923545
503.5397072418282
503.5385217901394
503.5373366642641
503.5361518642974
503.53496739033426
503.53378324246955
503.53259942079785
503.5314159254135
503.53023275641067
503.5290499138832
503.5278673979253
503.5266852086313
503.5255033460953
503.52432181041127
503.5231406016733
503.5219597199755
503.520779165412
503.519598938077
503.5184190380646
503.5172394654687
503.51606022038277
503.5148813029
503.5137027131136
503.51252445111686
503.51134651700295
503.5101689108651
503.50899163279655
503.5078146828905
503.50663806124
503.50546176793773
503.5042858030761
503.5031101667473
503.50193485904333
503.50075988005597
503.49958522987686
503.49841090859763
503.49723691630993
503.49606325310515
503.4948899190747
503.4937169143095
503.49254423890034
503.4913718929379
503.49019987651286
503.4890281897158
503.4878568326369
503.4866858053665
503.4855151079946
503.48434474061105
503.4831747033054
503.48200499616723
503.4808356192859
503.4796665727506
503.4784978566504
503.4773294710744
503.4761614161116
503.4749936918506
503.4738262983799
503.47265923578766
503.47149250416214
503.4703261035918
503.4691600341646
503.4679942959683
503.4668288890905
503.4656638136189
503.4644990696411
503.46333465724433
503.4621705765162
503.4610068275442
503.45984341041617
503.4586803252196
503.4575175720415
503.4563551509691
503.4551930620894
503.4540313054895
503.45286988125645
503.4517087894774
503.45054803023913
503.4493876036281
503.4482275097305
503.44706774863266
503.44590832042104
503.444749225182
503.443590463002
503.4424320339674
503.4412739381646
503.4401161756798
503.43895874659916
503.43780165100884
503.43664488899503
503.4354884606439
503.4343323660414
503.4331766052733
503.4320211784252
503.4308660855827
503.42971132683147
503.42855690225724
503.42740281194574
503.42624905598245
503.42509563445265
503.42394254744136
503.4227897950336
503.42163737731425
503.42048529436806
503.41933354627986
503.41818213313445
503.4170310550164
503.41588031201013
503.41472990420016
503.41357983167086
503.41243009450636
503.4112806927908
503.4101316266085
503.4089828960439
503.4078345011808
503.40668644210314
503.40553871889506
503.4043913316407
503.4032442804239
503.4020975653284
503.40095118643785
503.3998051438357
503.39865943760515
503.39751406782966
503.3963690345927
503.39522433797765
503.3940799780678
503.3929359549463
503.39179226869624
503.39064891940006
503.3895059071401
503.38836323199826
503.3872208940563
503.38607889339573
503.3849372300979
503.3837959042444
503.3826549159169
503.3815142651972
503.38037395216725
503.3792339769086
503.37809433950247
503.3769550400302
503.3758160785733
503.37467745521326
503.373539170032
503.3724012231114
503.3712636145333
503.3701263443793
503.36898941273125
503.36785281967104
503.3667165652803
503.36558064964015
503.36444507283204
503.3633098349371
503.3621749360366
503.3610403762116
503.3599061555433
503.35877227411265
503.3576387320006
503.3565055292879
503.355372666055
503.3542401423822
503.35310795834994
503.35197611403873
503.35084460952885
503.34971344490054
503.34858262023386
503.3474521356086
503.34632199110433
503.3451921868002
503.34406272277533
503.3429335991086
503.34180481587873
503.3406763731641
503.3395482710432
503.33842050959447
503.33729308889633
503.33616600902724
503.3350392700654
503.33391287208906
503.3327868151762
503.331661099405
503.3305357248537
503.32941069160074
503.3282859997246
503.32716164930343
503.3260376404155
503.324913973139
503.32379064755196
503.3226676637323
503.32154502175786
503.3204227217061
503.3193007636546
503.3181791476809
503.31705787386227
503.3159369422758
503.3148163529984
503.3136961061068
503.31257620167776
503.31145663978737
503.3103374205118
503.3092185439275
503.3081000101106
503.30698181913704
503.305863971083
503.30474646602465
503.30362930403817
503.3025124851997
503.30139600958546
503.30027987727135
503.2991640883331
503.2980486428464
503.2969335408868
503.2958187825295
503.29470436785004
503.29359029692364
503.29247656982557
503.29136318663086
503.29025014741455
503.2891374522517
503.2880251012168
503.2869130943843
503.28580143182853
503.2846901136238
503.2835791398445
503.28246851056474
503.2813582258584
503.2802482857992
503.27913869046097
503.2780294399174
503.276920534242
503.2758119735081
503.2747037577892
503.27359588715854
503.2724883616895
503.2713811814556
503.27027434652996
503.26916785698563
503.2680617128956
503.26695591433236
503.2658504613685
503.2647453540767
503.2636405925298
503.26253617680027
503.2614321069602
503.2603283830815
503.259225005236
503.258121973495
503.2570192879298
503.25591694861123
503.2548149556103
503.2537133089977
503.25261200884415
503.25151105522013
503.25041044819613
503.2493101878424
503.248210274229
503.2471107074259
503.2460114875032
503.2449126145307
503.2438140885779
503.2427159097142
503.24161807800897
503.2405205935315
503.23942345635123
503.2383266665372
503.23723022415857
503.23613412928444
503.2350383819837
503.2339429823255
503.23284793037897
503.2317532262132
503.2306588698975
503.22956486150133
503.22847120109395
503.2273778887445
503.22628492452236
503.22519230849684
503.2241000407371
503.2230081213122
503.2219165502913
503.22082532774357
503.21973445373783
503.2186439283432
503.21755375162866
503.2164639236628
503.2153744445145
503.2142853142525
503.21319653294563
503.2121081006628
503.2110200174727
503.20993228344355
503.2088448986433
503.20775786313993
503.20667117700145
503.20558484029584
503.2044988530906
503.2034132154529
503.2023279274497
503.2012429891479
503.2001584006141
503.19907416191495
503.19799027311706
503.19690673428704
503.1958235454913
503.19474070679644
503.1936582182691
503.1925760799759
503.1914942919832
503.1904128543574
503.18933176716496
503.1882510304722
503.1871706443453
503.18609060885024
503.1850109240529
503.1839315900188
503.1828526068134
503.18177397450245
503.1806956931516
503.17961776282664
503.1785401835932
503.17746295551706
503.1763860786639
503.1753095530994
503.1742333788893
503.1731575560991
503.1720820847945
503.1710069650412
503.1699321969047
503.16885778045025
503.1677837157431
503.16671000284873
503.16563664183263
503.1645636327603
503.16349097569696
503.16241867070767
503.16134671785767
503.1602751172122
503.1592038688366
503.1581329727958
503.15706242915485
503.1559922379786
503.15492239933155
503.1538529132781
503.1527837798824
503.1517149992085
503.1506465713203
503.14957849628195
503.14851077415733
503.14744340501034
503.1463763889044
503.14530972590273
503.1442434160683
503.1431774594639
503.14211185615227
503.14104660619614
503.1399817096585
503.13891716660237
503.13785297709023
503.13678914118464
503.1357256589481
503.1346625304434
503.13359975573326
503.1325373348802
503.13147526794705
503.13041355499604
503.12935219608926
503.12829119128855
503.1272305406558
503.12617024425276
503.1251103021416
503.1240507143841
503.12299148104216
503.1219326021776
503.12087407785225
503.119815908128
503.1187580930666
503.1177006327298
503.1166435271791
503.11558677647577
503.1145303806809
503.11347433985566
503.11241865406123
503.11136332335855
503.11030834780854
503.1092537274719
503.1081994624094
503.1071455526817
503.10609199834926
503.10503879947237
503.1039859561115
503.1029334683267
503.10188133617794
503.1008295597253
503.099778139029
503.09872707414934
503.0976763651463
503.0966260120799
503.09557601501024
503.09452637399727
503.09347708910104
503.0924281603816
503.0913795878985
503.09033137171104
503.0892835118784
503.0882360084597
503.0871888615138
503.08614207109963
503.085095637276
503.0840495601019
503.0830038396359
503.0819584759363
503.0809134690612
503.0798688190689
503.07882452601734
503.0777805899643
503.07673701096724
503.07569378908374
503.0746509243713
503.0736084168875
503.0725662666898
503.0715244738358
503.07048303838246
503.06944196038694
503.0684012399065
503.06736087699846
503.0663208717201
503.06528122412874
503.0642419342812
503.06320300223456
503.06216442804543
503.06112621177067
503.0600883534669
503.05905085319046
503.05801371099756
503.05697692694434
503.05594050108675
503.0549044334807
503.05386872418194
503.0528333732459
503.0517983807283
503.05076374668465
503.0497294711704
503.048695554241
503.04766199595224
503.04662879636
503.04559595551996
503.04456347348787
503.0435313503194
503.04249958607056
503.0414681807972
503.0404371345553
503.039406447401
503.03837611939025
503.0373461505792
503.0363165410238
503.0352872907797
503.0342583999027
503.0332298684482
503.03220169647193
503.0311738840294
503.03014643117626
503.02911933796804
503.0280926044602
503.027066230708
503.02604021676643
503.02501456269056
503.02398926853516
503.02296433435504
503.02193976020453
503.020915546138
503.01989169220974
503.01886819847414
503.0178450649853
503.0168222917973
503.0157998789641
503.01477782653956
503.01375613457753
503.01273480313193
503.0117138322564
503.01069322200465
503.00967297243005
503.00865308358607
503.0076335555257
503.0066143883016
503.00559558196665
503.0045771365735
503.003559052175
503.00254132882355
503.0015239665713
503.00050696547055
502.99949032557356
502.99847404693287
502.997458129601
502.99644257363025
502.9954273790727
502.99441254598014
502.99339807440447
502.9923839643973
502.99137021600995
502.9903568292939
502.98934380430046
502.9883311410813
502.98731883968776
502.98630690017126
502.98529532258317
502.9842841069749
502.98327325339756
502.9822627619026
502.9812526325411
502.9802428653643
502.9792334604231
502.97822441776793
502.97721573744934
502.97620741951755
502.9751994640228
502.97419187101536
502.97318464054524
502.97217777266246
502.9711712674168
502.9701651248581
502.9691593450357
502.96815392799886
502.9671488737972
502.9661441824801
502.96513985409683
502.9641358886968
502.9631322863295
502.9621290470445
502.9611261708915
502.96012365791967
502.9591215081782
502.958119721716
502.9571182985819
502.9561172388246
502.9551165424923
502.9541162096334
502.95311624029637
502.9521166345296
502.95111739238155
502.95011851390086
502.9491199991362
502.948121848136
502.94712406094845
502.94612663762155
502.94512957820325
502.94413288274154
502.94313655128417
502.94214058387865
502.9411449805723
502.9401497414126
502.93915486644687
502.9381603557222
502.93716620928535
502.93617242718346
502.93517900946335
502.93418595617163
502.9331932673549
502.9322009430598
502.9312089833329
502.9302173882206
502.92922615776956
502.92823529202656
502.92724479103845
502.9262546548516
502.9252648835122
502.92427547706666
502.92328643556107
502.9222977590416
502.92130944755445
502.92032150114596
502.91933391986254
502.91834670375033
502.91735985285527
502.91637336722283
502.9153872468985
502.9144014919277
502.913416102356
502.912431078229
502.91144641959227
502.9104621264912
502.9094781989711
502.90849463707696
502.90751144085357
502.9065286103455
502.9055461455973
502.9045640466534
502.90358231355776
502.9026009463546
502.901619945088
502.90063930980205
502.8996590405404
502.89867913734656
502.8976996002639
502.8967204293358
502.8957416246053
502.89476318611537
502.89378511390896
502.89280740802906
502.89183006851886
502.89085309542133
502.8898764887797
502.88890024863736
502.887924375038
502.886948868025
502.8859737276416
502.884998953931
502.8840245469364
502.883050506701
502.882076833268
502.88110352668036
502.88013058698084
502.87915801421195
502.87818580841576
502.87721396963457
502.8762424979104
502.8752713932854
502.87430065580133
502.87333028549983
502.87236028242273
502.87139064661187
502.8704213781091
502.869452476956
502.86848394319395
502.86751577686414
502.8665479780077
502.8655805466658
502.8646134828796
502.86364678668997
502.8626804581379
502.8617144972641
502.86074890410896
502.8597836787128
502.85881882111585
502.8578543313579
502.8568902094785
502.8559264555172
502.8549630695136
502.8540000515072
502.8530374015377
502.85207511964404
502.85111320586543
502.8501516602407
502.8491904828088
502.84822967360856
502.8472692326786
502.8463091600577
502.8453494557841
502.8443901198964
502.8434311524329
502.8424725534319
502.8415143229313
502.8405564609691
502.839598967583
502.83864184281083
502.83768508669004
502.83672869925795
502.8357726805516
502.83481703060806
502.8338617494644
502.83290683715745
502.8319522937238
502.8309981191999
502.83004431362156
502.82909087702456
502.82813780944457
502.82718511091707
502.82623278147753
502.8252808211614
502.82432923000397
502.82337800804044
502.82242715530583
502.82147667183494
502.82052655766233
502.81957681282233
502.8186274373493
502.8176784312777
502.816729794642
502.8157815274767
502.81483362981635
502.8138861016955
502.81293894314877
502.8119921542109
502.8110457349169
502.81009968530157
502.8091540053997
502.80820869524587
502.8072637548746
502.8063191843203
502.8053749836172
502.8044311527999
502.803487691903
502.8025446009608
502.8016018800074
502.8006595290765
502.79971754820167
502.7987759374166
502.797834696755
502.7968938262504
502.7959533259366
502.7950131958471
502.79407343601565
502.79313404647564
502.7921950272603
502.7912563784023
502.7903180999342
502.78938019188854
502.7884426542978
502.7875054871945
502.78656869061115
502.7856322645803
502.7846962091344
502.783760524306
502.7828252101274
502.78189026663085
502.7809556938487
502.78002149181293
502.77908766055543
502.77815420010756
502.7772211105005
502.7762883917651
502.77535604393233
502.7744240670331
502.7734924610984
502.7725612261588
502.7716303622449
502.7706998693868
502.7697697476149
502.7688399969593
502.7679106174505
502.76698160911906
502.7660529719949
502.76512470610805
502.7641968114888
502.7632692881673
502.76234213617363
502.7614153555378
502.7604889462898
502.75956290845943
502.75863724207625
502.7577119471696
502.756787023769
502.75586247190404
502.7549382916043
502.75401448289927
502.75309104581856
502.7521679803915
502.7512452866472
502.7503229646147
502.7494010143232
502.7484794358015
502.7475582290783
502.746637394182
502.7457169311408
502.7447968399829
502.7438771207362
502.74295777342854
502.74203879808715
502.7411201947391
502.74020196341166
502.7392841041319
502.73836661692667
502.73744950182277
502.7365327588468
502.73561638802516
502.734700389384
502.7337847629494
502.7328695087476
502.73195462680474
502.7310401171467
502.7301259797996
502.72921221478964
502.7282988221425
502.72738580188366
502.7264731540388
502.72556087863336
502.7246489756926
502.7237374452418
502.7228262873059
502.7219155019095
502.7210050890774
502.72009504883454
502.719185381206
502.7182760862165
502.7173671638909
502.7164586142537
502.7155504373293
502.71464263314215
502.7137352017169
502.7128281430778
502.7119214572492
502.7110151442557
502.71010920412186
502.7092036368722
502.70829844253126
502.7073936211232
502.7064891726718
502.7055850972008
502.7046813947336
502.7037780652936
502.7028751089042
502.70197252558864
502.70107031536986
502.70016847827105
502.6992670143152
502.6983659235252
502.6974652059241
502.6965648615346
502.6956648903797
502.6947652924823
502.69386606786543
502.6929672165518
502.69206873856433
502.6911706339258
502.690272902659
502.68937554478657
502.6884785603311
502.6875819493148
502.68668571175976
502.6857898476883
502.68489435712263
502.68399924008486
502.6831044965968
502.6822101266803
502.6813161303569
502.680422507648
502.6795292585748
502.67863638315816
502.677743881419
502.67685175337783
502.67595999905507
502.6750686184712
502.6741776116464
502.67328697860125
502.6723967193559
502.6715068339304
502.6706173223447
502.66972818461886
502.6688394207729
502.667951030827
502.6670630148012
502.66617537271554
502.66528810459
502.66440121044434
502.66351469029837
502.66262854417187
502.6617427720844
502.66085737405547
502.6599723501047
502.6590877002516
502.65820342451593
502.657319522918
502.656435995478
502.6555528422159
502.65467006315157
502.6537876583045
502.6529056276943
502.65202397134044
502.65114268926254
502.65026178148014
502.649381248013
502.64850108888095
502.64762130410395
502.646741893702
502.6458628576952
502.64498419610345
502.6441059089466
502.6432279962444
502.6423504580166
502.64147329428306
502.6405965050635
502.6397200903775
502.63884405024464
502.6379683846844
502.6370930937162
502.63621817735884
502.6353436356312
502.6344694685522
502.63359567614066
502.63272225841524
502.6318492153946
502.63097654709713
502.63010425354105
502.62923233474453
502.62836079072576
502.62748962150295
502.6266188270938
502.62574840751586
502.6248783627864
502.6240086929224
502.62313939794103
502.6222704778593
502.62140193269397
502.6205337624622
502.61966596718094
502.6187985468673
502.61793150153835
502.6170648312111
502.61619853590264
502.61533261563
502.6144670704102
502.61360190026016
502.61273710519663
502.6118726852362
502.61100864039554
502.61014497069095
502.6092816761386
502.60841875675465
502.6075562125552
502.60669404355644
502.6058322497747
502.6049708312264
502.60410978792765
502.6032491198946
502.6023888271434
502.6015289096897
502.6006693675495
502.5998102007386
502.598951409273
502.5980929931684
502.5972349524402
502.5963772871039
502.59551999717496
502.5946630826686
502.5938065435996
502.59295037998277
502.5920945918326
502.5912391791635
502.59038414198994
502.58952948032606
502.58867519418595
502.5878212835837
502.5869677485334
502.5861145890492
502.5852618051449
502.58440939683464
502.58355736413273
502.58270570705326
502.5818544256101
502.58100351981693
502.58015298968735
502.5793028352348
502.5784530564724
502.57760365341323
502.57675462606994
502.57590597445505
502.5750576985806
502.5742097984587
502.5733622741013
502.5725151255201
502.57166835272665
502.5708219557323
502.56997593454844
502.56913028918643
502.5682850196579
502.5674401259746
502.56659560814865
502.5657514661923
502.5649077001176
502.5640643099366
502.5632212956614
502.5623786573037
502.56153639487525
502.56069450838754
502.559852997852
502.5590118632799
502.5581711046825
502.55733072207113
502.5564907154569
502.555651084851
502.5548118302645
502.5539729517086
502.55313444919443
502.5522963227329
502.5514585723347
502.5506211980105
502.54978419977056
502.54894757762486
502.54811133158364
502.54727546165714
502.5464399678556
502.54560485018897
502.5447701086671
502.54393574329947
502.5431017540957
502.5422681410653
502.5414349042178
502.5406020435628
502.5397695591096
502.5389374508675
502.5381057188458
502.5372743630537
502.5364433835002
502.53561278019424
502.5347825531446
502.53395270236
502.5331232278486
502.5322941296183
502.5314654076774
502.530637062034
502.52980909269604
502.52898149967154
502.5281542829682
502.5273274425938
502.526500978556
502.5256748908623
502.52484917952006
502.52402384453626
502.52319888591796
502.52237430367177
502.52155009780427
502.52072626832205
502.5199028152317
502.51907973853963
502.51825703825193
502.51743471437453
502.5166127669131
502.5157911958729
502.5149700012589
502.51414918307614
502.5133287413296
502.51250867602425
502.51168898716514
502.51086967475726
502.5100507388054
502.50923217931404
502.508413996288
502.50759618973234
502.50677875965175
502.50596170605104
502.50514502893475
502.5043287283074
502.5035128041734
502.50269725653675
502.50188208540135
502.50106729077106
502.5002528726495
502.49943883104015
502.4986251659461
502.4978118773704
502.4969989653157
502.49618642978453
502.49537427077917
502.4945624883019
502.49375108235495
502.49294005294087
502.4921294000619
502.4913191237206
502.4905092239194
502.4896997006608
502.4888905539474
502.48808178378135
502.487273390165
502.4864653731006
502.4856577325904
502.4848504686365
502.4840435812407
502.4832370704046
502.4824309361295
502.4816251784164
502.48081979726635
502.4800147926803
502.4792101646592
502.4784059132037
502.47760203831444
502.47679853999193
502.4759954182364
502.4751926730478
502.4743903044259
502.47358831237057
502.47278669688126
502.47198545795754
502.47118459559874
502.4703841098042
502.4695840005729
502.4687842679041
502.4679849117965
502.4671859322491
502.46638732926044
502.4655891028292
502.4647912529538
502.4639937796326
502.4631966828638
502.4623999626451
502.46160361897455
502.46080765185
502.46001206126925
502.45921684722975
502.458422009729
502.45762754876455
502.4568334643336
502.4560397564335
502.45524642506166
502.4544534702154
502.45366089189156
502.4528686900867
502.45207686479716
502.4512854160196
502.4504943437503
502.4497036479852
502.4489133287202
502.44812338595125
502.4473338196742
502.446544629885
502.4457558165793
502.4449673797526
502.4441793194003
502.4433916355176
502.4426043280996
502.441817397141
502.44103084263634
502.4402446645802
502.43945886296706
502.4386734377913
502.4378883890472
502.43710371672887
502.4363194208304
502.43553550134584
502.4347519582691
502.43396879159354
502.4331860013124
502.43240358741855
502.4316215499048
502.43083988876356
502.43005860398716
502.4292776955681
502.4284971634986
502.4277170077705
502.42693722837544
502.4261578253049
502.42537879855035
502.42460014810285
502.42382187395333
502.4230439760927
502.4222664545116
502.421489309201
502.4207125401515
502.4199361473536
502.41916013079776
502.41838449047464
502.4176092263747
502.4168343384881
502.4160598268047
502.41528569131424
502.41451193200646
502.41373854887115
502.41296554189785
502.41219291107586
502.41142065639406
502.41064877784083
502.4098772754048
502.40910614907443
502.40833539883783
502.407565024683
502.4067950265978
502.4060254045701
502.40525615858724
502.4044872886368
502.40371879470604
502.40295067678176
502.402182934851
502.4014155689008
502.4006485789182
502.39988196489
502.39911572680285
502.3983498646428
502.3975843783958
502.39681926804747
502.39605453358354
502.39529017498944
502.3945261922504
502.3937625853514
502.3929993542772
502.3922364990126
502.3914740195419
502.3907119158489
502.3899501879173
502.38918883573047
502.3884278592716
502.38766725852383
502.38690703347015
502.38614718409326
502.3853877103759
502.38462861230073
502.38386988985053
502.3831115430078
502.38235357175495
502.3815959760743
502.38083875594816
502.3800819113585
502.3793254422874
502.3785693487166
502.37781363062754
502.3770582880011
502.3763033208181
502.3755487290591
502.37479451270406
502.37404067173316
502.3732872061264
502.3725341158636
502.3717814009242
502.3710290612876
502.3702770969328
502.36952550783894
502.36877429398487
502.3680234553492
502.36727299191034
502.3665229036469
502.36577319053754
502.36502385256085
502.36427488969525
502.3635263019189
502.36277808920977
502.3620302515458
502.36128278890465
502.36053570126364
502.3597889885998
502.35904265088993
502.35829668811084
502.35755110023933
502.3568058872522
502.3560610491263
502.35531658583864
502.35457249736623
502.3538287836859
502.3530854447745
502.3523424806085
502.3515998911646
502.3508576764193
502.350115836349
502.3493743709296
502.3486332801367
502.34789256394606
502.3471522223331
502.34641225527275
502.34567266273984
502.3449334447089
502.3441946011542
502.3434561320498
502.34271803736965
502.3419803170875
502.3412429711768
502.34050599961074
502.33976940236244
502.3390331794051
502.3382973307116
502.33756185625475
502.33682675600744
502.3360920299426
502.335357678033
502.3346237002513
502.33389009657026
502.33315686696255
502.3324240114009
502.3316915298576
502.33095942230466
502.3302276887141
502.32949632905775
502.32876534330717
502.3280347314342
502.32730449341034
502.326574629207
502.32584513879556
502.3251160221471
502.32438727923227
502.32365891002155
502.32293091448514
502.32220329259326
502.32147604431566
502.3207491696221
502.3200226684821
502.31929654086525
502.31857078674057
502.3178454060769
502.3171203988429
502.31639576500675
502.31567150453634
502.3149476173994
502.3142241035637
502.3135009629966
502.3127781956657
502.312055801538
502.3113337805803
502.3106121327594
502.3098908580421
502.3091699563952
502.3084494277855
502.3077292721796
502.30700948954427
502.30629007984635
502.3055710430524
502.304852379129
502.3041340880425
502.3034161697592
502.3026986242455
502.3019814514678
502.30126465139256
502.3005482239864
502.29983216921596
502.2991164870475
502.2984011774472
502.29768624038115
502.2969716758155
502.2962574837163
502.2955436640493
502.2948302167799
502.2941171418736
502.2934044392957
502.2926921090118
502.291980150987
502.29126856518656
502.29055735157544
502.28984651011865
502.2891360407807
502.2884259435259
502.2877162183181
502.28700686512116
502.28629788389867
502.28558927461404
502.28488103723066
502.28417317171215
502.28346567802214
502.28275855612424
502.28205180598206
502.28134542755924
502.28063942081917
502.27993378572523
502.2792285222408
502.2785236303291
502.27781910995327
502.2771149610762
502.2764111836607
502.27570777766914
502.27500474306385
502.2743020798073
502.2735997878615
502.27289786718825
502.2721963177494
502.27149513950667
502.27079433242216
502.2700938964574
502.269393831574
502.2686941377335
502.2679948148975
502.26729586302736
502.26659728208415
502.2658990720288
502.2652012328217
502.2645037644231
502.26380666679324
502.26310993989205
502.2624135836795
502.26171759811564
502.2610219831604
502.2603267387733
502.2596318649137
502.2589373615408
502.258243228614
502.2575494660923
502.2568560739346
502.2561630520993
502.2554704005445
502.2547781192284
502.25408620810913
502.2533946671447
502.2527034962927
502.25201269551076
502.25132226475625
502.2506322039867
502.2499425131598
502.249253192233
502.2485642411639
502.24787565991005
502.2471874484288
502.24649960667716
502.2458121346117
502.245125032189
502.2444382993656
502.24375193609785
502.2430659423421
502.24238031805476
502.2416950631921
502.2410101777102
502.24032566156484
502.23964151471137
502.23895773710524
502.2382743287019
502.23759128945653
502.2369086193239
502.236226318259
502.2355443862166
502.23486282315116
502.23418162901726
502.23350080376895
502.2328203473601
502.23214025974426
502.2314605408749
502.23078119070533
502.2301022091888
502.22942359627837
502.22874535192705
502.2280674760875
502.2273899687125
502.22671282975466
502.2260360591665
502.22535965690054
502.2246836229094
502.2240079571459
502.2233326595624
502.2226577301112
502.22198316874415
502.22130897541297
502.2206351500695
502.21996169266527
502.2192886031519
502.2186158814809
502.2179435276039
502.2172715414722
502.21659992303694
502.21592867224876
502.2152577890581
502.21458727341496
502.21391712526906
502.21324734456994
502.2125779312669
502.21190888530896
502.211240206645
502.21057189522367
502.2099039509935
502.20923637390297
502.2085691639004
502.20790232093395
502.2072358449516
502.2065697359012
502.20590399373054
502.20523861838706
502.20457360981777
502.2039089679697
502.20324469278967
502.2025807842242
502.2019172422199
502.2012540667231
502.2005912576799
502.1999288150362
502.1992667387376
502.1986050287296
502.1979436849574
502.19728270736573
502.1966220958991
502.1959618505018
502.19530197111794
502.19464245769177
502.1939833101678
502.1933245284904
502.1926661126033
502.1920080624502
502.1913503779747
502.1906930591201
502.1900361058297
502.1893795180463
502.1887232957124
502.18806743877053
502.1874119471629
502.18675682083176
502.18610205971936
502.18544766376795
502.18479363291954
502.1841399671159
502.1834866662989
502.1828337304105
502.1821811593927
502.18152895318735
502.180877111736
502.18022563498016
502.17957452286123
502.1789237753203
502.1782733922985
502.1776233737369
502.1769737195764
502.17632442975764
502.17567550422154
502.17502694290897
502.1743787457608
502.1737309127177
502.1730834437203
502.1724363387093
502.1717895976253
502.1711432204088
502.17049720700015
502.1698515573398
502.169206271368
502.16856134902514
502.16791679025164
502.16727259498794
502.16662876317423
502.1659852947507
502.1653421896576
502.1646994478351
502.1640570692232
502.1634150537616
502.16277340139004
502.16213211204854
502.16149118567705
502.16085062221555
502.1602104216038
502.1595705837817
502.15893110868956
502.1582919962675
502.15765324645554
502.1570148591936
502.1563768344215
502.1557391720787
502.15510187210475
502.15446493443915
502.1538283590214
502.15319214579085
502.15255629468675
502.1519208056484
502.15128567861507
502.15065091352585
502.1500165103198
502.1493824689355
502.1487487893114
502.14811547138584
502.1474825150972
502.1468499203836
502.146217687183
502.14558581543315
502.1449543050712
502.14432315603426
502.14369236825905
502.1430619416824
502.14243187624106
502.14180217187163
502.14117282851066
502.1405438460947
502.1399152245601
502.13928696384323
502.13865906388014
502.13803152460696
502.13740434595957
502.1367775278736
502.13615107028454
502.13552497312753
502.13489923633756
502.1342738598494
502.1336488435975
502.1330241875164
502.1323998915407
502.13177595560455
502.13115237964234
502.1305291635881
502.1299063073757
502.12928381093866
502.12866167421066
502.12803989712484
502.12741847961433
502.1267974216123
502.1261767230517
502.1255563838654
502.1249364039861
502.1243167833461
502.1236975218774
502.1230786195117
502.12246007618046
502.12184189181494
502.12122406634626
502.1206065997053
502.1199894918225
502.11937274262823
502.11875635205297
502.1181403200269
502.11752464648
502.11690933134173
502.11629437454167
502.1156797760093
502.1150655356739
502.1144516534646
502.11383812931035
502.1132249631405
502.11261215488435
502.11199970447115
502.1113876118302
502.1107758768908
502.1101644995822
502.1095534798335
502.1089428175735
502.10833251273084
502.1077225652343
502.10711297501257
502.1065037419942
502.105894866108
502.1052863472826
502.1046781854466
502.1040703805286
502.1034629324572
502.1028558411608
502.102249106568
502.10164272860743
502.10103670720764
502.10043104229726
502.0998257338049
502.0992207816589
502.09861618578793
502.09801194612055
502.0974080625854
502.096804535111
502.09620136362605
502.0955985480589
502.0949960883379
502.094393984391
502.0937922361461
502.0931908435309
502.0925898064729
502.0919891248993
502.09138879873694
502.0907888279123
502.0901892123518
502.0895899519817
502.0889910467283
502.0883924965178
502.08779430127584
502.08719646092777
502.08659897539906
502.0860018446149
502.08540506850045
502.08480864698095
502.08421257998157
502.0836168674275
502.0830215092435
502.0824265053543
502.08183185568464
502.08123756015925
502.0806436187024
502.0800500312382
502.07945679769045
502.07886391798274
502.0782713920387
502.0776792197819
502.0770874011355
502.07649593602287
502.07590482436717
502.0753140660913
502.07472366111824
502.0741336093706
502.07354391077115
502.0729545652423
502.0723655727063
502.0717769330852
502.0711886463009
502.07060071227534
502.0700131309302
502.0694259021875
502.06883902596906
502.06825250219663
502.06766633079155
502.06708051167493
502.06649504476763
502.0659099299903
502.0653251672634
502.06474075650726
502.0641566976419
502.0635729905873
502.06298963526297
502.0624066315879
502.06182397948123
502.06124167886196
502.0606597296487
502.06007813176006
502.05949688511464
502.0589159896308
502.0583354452267
502.05775525182025
502.0571754093294
502.056595917672
502.056016776766
502.05543798652957
502.0548595468806
502.0542814577368
502.05370371901563
502.05312633063454
502.0525492925108
502.05197260456134
502.05139626670325
502.0508202788535
502.0502446409289
502.0496693528462
502.04909441452196
502.04851982587275
502.0479455868151
502.0473716972656
502.04679815714053
502.046224966356
502.0456521248277
502.04507963247124
502.0445074892025
502.0439356949373
502.0433642495916
502.042793153081
502.0422224053211
502.04165200622765
502.0410819557162
502.040512253702
502.0399429001002
502.03937389482576
502.03880523779344
502.03823692891797
502.0376689681141
502.0371013552965
502.03653409037975
502.0359671732783
502.03540060390674
502.03483438217904
502.0342685080093
502.03370298131154
502.0331378019996
502.0325729699873
502.0320084851885
502.03144434751675
502.0308805568859
502.0303171132098
502.0297540164022
502.02919126637676
502.02862886304706
502.0280668063267
502.02750509612906
502.0269437323675
502.02638271495516
502.02582204380496
502.0252617188296
502.0247017399415
502.02414210705297
502.02358282007594
502.02302387892223
502.0224652835036
502.0219070337316
502.02134912951783
502.02079157077355
502.0202343574099
502.01967748933794
502.0191209664688
502.01856478871355
502.0180089559833
502.01745346818893
502.01689832524085
502.0163435270497
502.01578907352587
502.0152349645798
502.0146812001219
502.01412778006215
502.01357470431026
502.01302197277573
502.0124695853681
502.0119175419968
502.0113658425712
502.0108144870005
502.01026347519405
502.00971280706085
502.00916248250974
502.0086125014493
502.0080628637879
502.00751356943374
502.00696461829466
502.0064160102784
502.0058677452921
502.0053198232431
502.0047722440386
502.00422500758555
502.003678113791
502.003131562562
502.00258535380544
502.0020394874282
502.001493963337
502.00094878143864
502.0004039416399
501.9998594438475
501.9993152879681
501.99877147390816
501.99822800157403
501.9976848708718
501.99714208170735
501.9965996339863
501.9960575276141
501.9955157624961
501.99497433853776
501.994433255644
501.99389251371963
501.9933521126693
501.99281205239777
501.99227233280976
501.99173295381
501.99119391530326
501.9906552171942
501.9901168593876
501.989578841788
501.9890411642998
501.9885038268271
501.987966829274
501.98743017154425
501.9868938535417
501.9863578751697
501.98582223633184
501.98528693693197
501.98475197687344
501.9842173560594
501.9836830743925
501.98314913177546
501.9826155281107
501.98208226330075
501.981549337248
501.98101674985514
501.9804845010249
501.97995259065965
501.97942101866147
501.97888978493233
501.978358889374
501.9778283318881
501.97729811237605
501.976768230739
501.9762386868781
501.9757094806944
501.9751806120887
501.97465208096196
501.9741238872152
501.9735960307496
501.97306851146595
501.9725413292647
501.972014484046
501.9714879757098
501.9709618041561
501.97043596928484
501.96991047099596
501.96938530918897
501.9688604837636
501.96833599461934
501.96781184165593
501.96728802477287
501.9667645438692
501.96624139884375
501.9657185895951
501.9651961160216
501.96467397802166
501.96415217549384
501.96363070833695
501.9631095764498
501.9625887797313
501.9620683180801
501.9615481913952
501.9610283995753
501.96050894251925
501.95998982012543
501.95947103229196
501.958952578917
501.9584344598984
501.9579166751337
501.95739922452003
501.9568821079549
501.9563653253358
501.9558488765599
501.95533276152446
501.9548169801269
501.95430153226494
501.9537864178358
501.95327163673664
501.95275718886455
501.9522430741167
501.9517292923906
501.9512158435832
501.95070272759153
501.95018994431257
501.9496774936433
501.94916537548033
501.94865358972015
501.9481421362591
501.9476310149935
501.9471202258196
501.94660976863383
501.9460996433327
501.9455898498127
501.9450803879704
501.94457125770236
501.9440624589049
501.94355399147435
501.943045855307
501.94253805029894
501.94203057634604
501.9415234333442
501.94101662118896
501.9405101397758
501.94000398899993
501.9394981687565
501.9389926789406
501.9384875194471
501.93798269017066
501.93747819100577
501.9369740218467
501.93647018258775
501.93596667312295
501.93546349334633
501.9349606431522
501.934458122435
501.93395593108903
501.93345406900835
501.93295253608676
501.93245133221785
501.9319504572952
501.93144991121244
501.9309496938629
501.9304498051397
501.92995024493575
501.92945101314376
501.92895210965617
501.9284535343654
501.92795528716397
501.92745736794404
501.92695977659764
501.92646251301676
501.9259655770934
501.92546896871977
501.9249726877879
501.9244767341895
501.9239811078162
501.9234858085597
501.9229908363118
501.92249619096447
501.92200187240974
501.9215078805396
501.92101421524603
501.9205208764213
501.9200278639578
501.9195351777478
501.9190428176835
501.9185507836571
501.9180590755609
501.91756769328686
501.91707663672696
501.9165859057732
501.9160955003174
501.91560542025127
501.9151156654664
501.91462623585426
501.91413713130623
501.9136483517136
501.9131598969677
501.91267176695965
501.91218396158047
501.9116964807215
501.91120932427384
501.91072249212834
501.91023598417564
501.9097498003064
501.90926394041117
501.9087784043804
501.90829319210457
501.90780830347376
501.9073237383782
501.9068394967078
501.90635557835276
501.90587198320327
501.9053887111495
501.9049057620816
501.9044231358896
501.90394083246315
501.903458851692
