492.1662270916228
492.1685614646666
492.170895941431
492.1732305216948
492.17556520523647
492.1778999918346
492.18023488126767
492.18256987331404
492.184904967752
492.1872401643599
492.18957546291574
492.1919108631977
492.19424636498377
492.1965819680521
492.19891767218076
492.20125347714736
492.20358938272955
492.2059253887045
492.2082614948491
492.2105977009404
492.2129340067553
492.2152704120707
492.21760691666384
492.21994352031186
492.2222802227917
492.22461702388057
492.2269539233556
492.2292909209938
492.231628016572
492.23396520986705
492.23630250065537
492.23863988871324
492.24097737381715
492.2433149557436
492.24565263426905
492.24799040917003
492.250328280223
492.2526662472043
492.25500430989007
492.25734246805666
492.2596807214803
492.2620190699371
492.264357513203
492.2666960510543
492.269034683267
492.271373409617
492.27371222987983
492.2760511438313
492.278390151247
492.28072925190224
492.28306844557244
492.28540773203247
492.28774711105723
492.2900865824214
492.29242614589987
492.29476580126754
492.2971055482991
492.299445386769
492.3017853164514
492.3041253371206
492.3064654485505
492.3088056505154
492.3111459427895
492.31348632514676
492.3158267973612
492.31816735920654
492.32050801045636
492.3228487508844
492.32518958026446
492.3275304983705
492.32987150497627
492.33221259985555
492.3345537827819
492.336895053529
492.33923641187096
492.34157785758146
492.3439193904343
492.3462610102032
492.34860271666173
492.3509445095832
492.3532863887407
492.35562835390704
492.35797040485534
492.3603125413582
492.3626547631883
492.3649970701182
492.36733946192055
492.369681938368
492.37202449923313
492.3743671442886
492.37670987330705
492.3790526860606
492.38139558232126
492.3837385618607
492.3860816244504
492.3884247698619
492.3907679978664
492.393111308235
492.3954547007387
492.3977981751485
492.4001417312355
492.4024853687705
492.40482908752426
492.4071728872674
492.40951676777
492.41186072880225
492.41420477013446
492.4165488915372
492.4188930927811
492.4212373736369
492.42358173387527
492.4259261732665
492.4282706915809
492.4306152885889
492.43295996406084
492.43530471776705
492.43764954947767
492.4399944589628
492.44233944599284
492.4446845103379
492.4470296517678
492.44937487005234
492.4517201649609
492.4540655362629
492.4564109837278
492.45875650712503
492.46110210622385
492.4634477807932
492.4657935306021
492.46813935541957
492.4704852550143
492.47283122915485
492.47517727760976
492.47752340014756
492.4798695965368
492.48221586654574
492.4845622099425
492.4869086264954
492.48925511597247
492.49160167814205
492.49394831277243
492.4962950196317
492.49864179848794
492.50098864910944
492.50333557126453
492.5056825647217
492.50802962924956
492.51037676461635
492.5127239705904
492.51507124694
492.5174185934335
492.51976600983915
492.5221134959253
492.5244610514602
492.5268086762122
492.52915636994965
492.5315041324408
492.5338519634537
492.53619986275646
492.53854783011695
492.540895865303
492.5432439680827
492.54559213822415
492.54794037549516
492.5502886796636
492.5526370504973
492.55498548776416
492.55733399123176
492.55968256066797
492.5620311958404
492.56437989651624
492.56672866246265
492.5690774934468
492.5714263892356
492.5737753495961
492.57612437429486
492.5784734630987
492.5808226157741
492.58317183208726
492.5855211118047
492.5878704546932
492.59021986051914
492.59256932904907
492.59491886004946
492.5972684532866
492.59961810852644
492.6019678255351
492.6043176040786
492.6066674439229
492.60901734483434
492.61136730657915
492.6137173289236
492.61606741163394
492.6184175544764
492.6207677572171
492.623118019622
492.6254683414569
492.62781872248763
492.6301691624798
492.6325196611989
492.6348702184106
492.63722083388063
492.6395715073751
492.64192223865973
492.6442730275004
492.64662387366286
492.6489747769127
492.65132573701555
492.6536767537367
492.6560278268415
492.6583789560956
492.66073014126425
492.66308138211264
492.6654326784061
492.66778402990997
492.6701354363894
492.67248689760925
492.67483841333444
492.67718998332964
492.67954160735974
492.6818932851894
492.6842450165833
492.6865968013061
492.6889486391225
492.6913005297969
492.6936524730937
492.69600446877723
492.6983565166116
492.70070861636066
492.70306076778786
492.70541297065677
492.7077652247307
492.71011752977313
492.7124698855474
492.71482229181686
492.71717474834475
492.7195272548946
492.72187981123
492.7242324171142
492.7265850723105
492.72893777658226
492.73129052969296
492.7336433314057
492.7359961814833
492.7383490796889
492.7407020257855
492.7430550195362
492.7454080607039
492.74776114905137
492.75011428434175
492.7524674663381
492.75482069480324
492.75717396949983
492.7595272901905
492.7618806566378
492.7642340686044
492.7665875258532
492.76894102814697
492.7712945752488
492.7736481669218
492.77600180292904
492.7783554830338
492.7807092069992
492.78306297458823
492.7854167855643
492.7877706396906
492.79012453673033
492.79247847644626
492.79483245860104
492.79718648295704
492.7995405492767
492.8018946573221
492.8042488068553
492.8066029976384
492.8089572294331
492.8113115020009
492.81366581510326
492.8160201685015
492.81837456195683
492.8207289952305
492.82308346808384
492.825437980278
492.82779253157435
492.83014712173383
492.8325017505175
492.8348564176864
492.8372111230018
492.8395658662249
492.8419206471168
492.8442754654385
492.84663032095125
492.8489852134161
492.85134014259404
492.85369510824614
492.85605011013297
492.8584051480151
492.86076022165287
492.86311533080664
492.86547047523675
492.86782565470355
492.8701808689674
492.8725361177886
492.8748914009276
492.8772467181449
492.87960206920104
492.8819574538562
492.88431287187075
492.88666832300476
492.88902380701836
492.8913793236719
492.89373487272576
492.89609045394025
492.8984460670757
492.90080171189254
492.90315738815104
492.90551309561135
492.9078688340336
492.91022460317765
492.91258040280366
492.9149362326715
492.91729209254106
492.91964798217225
492.9220039013252
492.92435984976
492.926715827237
492.92907183351656
492.93142786835904
492.933783931525
492.93614002277525
492.9384961418708
492.94085228857296
492.9432084626427
492.94556466384086
492.9479208919282
492.9502771466656
492.952633427814
492.9549897351345
492.9573460683879
492.95970242733495
492.9620588117365
492.96441522135285
492.9667716559444
492.96912811527125
492.9714845990935
492.97384110717155
492.9761976392655
492.9785541951354
492.98091077454126
492.9832673772431
492.98562400300113
492.9879806515752
492.99033732272517
492.99269401621075
492.9950507317918
492.99740746922805
492.9997642282791
493.00212100870465
493.0044778102641
493.00683463271696
493.0091914758224
493.0115483393396
493.0139052230278
493.016262126646
493.01861904995314
493.0209759927087
493.0233329546719
493.0256899356017
493.02804693525684
493.0304039533961
493.032760989778
493.0351180441611
493.0374751163041
493.0398322059658
493.04218931290495
493.0445464368803
493.0469035776508
493.0492607349753
493.05161790861246
493.05397509832085
493.05633230385877
493.0586895249845
493.06104676145617
493.0634040130318
493.0657612794695
493.0681185605273
493.0704758559631
493.0728331655347
493.07519048899974
493.07754782611585
493.07990517664064
493.0822625403317
493.08461991694674
493.0869773062433
493.08933470797876
493.09169212191057
493.0940495477961
493.0964069853925
493.09876443445694
493.1011218947466
493.10347936601863
493.10583684803
493.1081943405378
493.11055184329905
493.1129093560709
493.11526687861044
493.1176244106749
493.11998195202125
493.12233950240613
493.1246970615863
493.1270546293184
493.12941220535924
493.13176978946547
493.13412738139357
493.1364849808998
493.13884258774044
493.1412002016715
493.1435578224492
493.14591544982966
493.1482730835688
493.15063072342275
493.1529883691477
493.1553460204999
493.15770367723565
493.1600613391107
493.1624190058807
493.16477667730135
493.1671343531283
493.1694920331173
493.1718497170242
493.17420740460454
493.1765650956137
493.17892278980696
493.18128048693995
493.18363818676823
493.1859958890474
493.1883535935327
493.1907112999796
493.1930690081434
493.19542671777924
493.19778442864197
493.2001421404867
493.2024998530684
493.20485756614187
493.20721527946205
493.20957299278405
493.2119307058632
493.2142884184551
493.2166461303153
493.2190038411999
493.2213615508646
493.223719259065
493.2260769655567
493.2284346700952
493.23079237243644
493.23315007233634
493.23550776955096
493.23786546383656
493.2402231549494
493.24258084264545
493.2449385266808
493.2472962068117
493.2496538827944
493.2520115543854
493.2543692213411
493.2567268834181
493.259084540373
493.2614421919626
493.26379983794357
493.26615747807284
493.26851511210714
493.27087273980317
493.2732303609174
493.2755879752066
493.2779455824274
493.2803031823363
493.2826607746896
493.2850183592435
493.2873759357543
493.28973350397825
493.2920910636718
493.29444861459126
493.2968061564926
493.2991636891321
493.3015212122658
493.3038787256495
493.3062362290392
493.3085937221907
493.31095120485963
493.3133086768015
493.3156661377717
493.31802358752554
493.32038102581816
493.3227384524047
493.32509586704043
493.32745326948054
493.32981065948013
493.33216803679454
493.3345254011789
493.3368827523883
493.33924009017767
493.34159741430165
493.3439547245149
493.3463120205723
493.3486693022286
493.35102656923834
493.35338382135626
493.35574105833723
493.35809827993637
493.36045548590903
493.36281267601055
493.36516984999605
493.3675270076204
493.3698841486388
493.37224127280626
493.37459837987774
493.3769554696081
493.37931254175226
493.38166959606485
493.38402663230056
493.3863836502138
493.38874064955905
493.3910976300905
493.3934545915623
493.39581153372853
493.3981684563429
493.4005253591589
493.4028822419301
493.4052391044098
493.4075959463513
493.40995276750766
493.41230956763195
493.41466634647725
493.4170231037966
493.4193798393434
493.4217365528706
493.42409324413154
493.42644991287955
493.4288065588679
493.4311631818499
493.43351978157887
493.43587635780807
493.4382329102908
493.4405894387804
493.44294594303017
493.44530242279313
493.44765887782216
493.45001530787033
493.4523717126907
493.45472809203613
493.45708444565946
493.45944077331353
493.46179707475096
493.4641533497246
493.46650959798706
493.4688658192912
493.47122201339005
493.47357818003695
493.4759343189854
493.478290429989
493.4806465128014
493.4830025671762
493.4853585928669
493.487714589627
493.49007055721006
493.49242649537007
493.494782403861
493.49713828243637
493.4994941308497
493.50184994885433
493.50420573620374
493.5065614926515
493.5089172179513
493.51127291185696
493.5136285741222
493.5159842045008
493.5183398027465
493.52069536861325
493.5230509018546
493.52540640222435
493.5277618694762
493.53011730336414
493.5324727036424
493.53482807006515
493.53718340238663
493.5395387003608
493.5418939637415
493.5442491922821
493.54660438573626
493.5489595438579
493.5513146664008
493.5536697531187
493.5560248037656
493.5583798180952
493.5607347958613
493.56308973681746
493.56544464071715
493.5677995073139
493.57015433636127
493.572509127613
493.5748638808228
493.57721859574474
493.5795732721325
493.58192790973965
493.5842825083197
493.58663706762616
493.58899158741235
493.5913460674318
493.59370050743826
493.59605490718525
493.5984092664263
493.60076358491494
493.60311786240425
493.6054720986473
493.6078262933971
493.61018044640707
493.61253455743065
493.6148886262214
493.61724265253304
493.6195966361191
493.62195057673296
493.6243044741278
493.62665832805726
493.62901213827456
493.63136590453325
493.6337196265871
493.6360733041894
493.6384269370932
493.6407805250516
493.6431340678174
493.64548756514375
493.6478410167839
493.65019442249115
493.6525477820188
493.6549010951204
493.65725436154923
493.65960758105837
493.6619607534011
493.66431387833074
493.6666669556008
493.6690199849651
493.67137296617705
493.6737258989905
493.6760787831596
493.67843161843837
493.6807844045808
493.68313714134104
493.68548982847335
493.68784246573193
493.690195052871
493.69254758964473
493.69490007580737
493.6972525111131
493.69960489531593
493.70195722817004
493.7043095094299
493.7066617388497
493.7090139161834
493.711366041185
493.7137181136087
493.716070133209
493.71842209974
493.720774012956
493.7231258726114
493.7254776784604
493.727829430257
493.7301811277549
493.7325327707082
493.73488435887054
493.7372358919955
493.7395873698366
493.7419387921474
493.74429015868157
493.74664146919315
493.74899272343634
493.7513439211656
493.7536950621353
493.75604614609995
493.7583971728137
493.7607481420308
493.76309905350547
493.7654499069921
493.7678007022454
493.77015143901997
493.77250211707053
493.77485273615173
493.777203296018
493.77955379642356
493.7819042371226
493.78425461786935
493.786604938418
493.7889551985228
493.79130539793766
493.79365553641685
493.7960056137143
493.7983556295841
493.8007055837801
493.80305547605656
493.8054053061677
493.8077550738675
493.8101047789097
493.8124544210481
493.8148040000366
493.817153515629
493.81950296757907
493.8218523556403
493.8242016795665
493.82655093911137
493.8289001340289
493.8312492640729
493.83359832899725
493.835947328556
493.8382962625029
493.84064513059195
493.8429939325771
493.8453426682121
493.84769133725047
493.850039939446
493.8523884745524
493.85473694232326
493.8570853425123
493.859433674873
493.86178193915896
493.8641301351237
493.8664782625207
493.8688263211035
493.87117431062563
493.87352223084065
493.8758700815023
493.8782178623643
493.88056557318043
493.88291321370446
493.8852607836899
493.88760828289026
493.8899557110593
493.8923030679508
493.8946503533183
493.8969975669148
493.8993447084937
493.9016917778082
493.9040387746114
493.90638569865666
493.9087325496972
493.91107932748594
493.91342603177566
493.9157726623192
493.91811921886926
493.92046570117816
493.9228121089983
493.92515844208185
493.927504700181
493.92985088304783
493.9321969904346
493.9345430220934
493.9368889777762
493.9392348572345
493.94158066022
493.94392638648435
493.94627203577954
493.9486176078575
493.9509631024699
493.95330851936853
493.9556538583048
493.9579991190302
493.960344301296
493.96268940485345
493.96503442945357
493.9673793748474
493.9697242407857
493.9720690270193
493.974413733299
493.9767583593758
493.9791029050008
493.9814473699249
493.98379175389925
493.9861360566746
493.9884802780017
493.9908244176314
493.9931684753143
493.9955124508009
493.99785634384205
494.0002001541883
494.0025438815902
494.0048875257984
494.00723108656337
494.00957456363574
494.01191795676584
494.014261265704
494.0166044902006
494.018947630006
494.02129068487045
494.02363365454437
494.02597653877785
494.028319337321
494.03066204992444
494.0330046763387
494.03534721631434
494.0376896696022
494.0400320359528
494.0423743151167
494.0447165068448
494.0470586108878
494.04940062699677
494.05174255492295
494.0540843944176
494.05642614523197
494.0587678071173
494.06110937982487
494.0634508631059
494.0657922567117
494.0681335603932
494.07047477390154
494.07281589698766
494.07515692940285
494.07749787089836
494.07983872122566
494.082179480136
494.08452014738043
494.08686072270973
494.0892012058745
494.09154159662523
494.09388189471235
494.09622209988595
494.09856221189614
494.1009022304928
494.1032421554256
494.10558198644446
494.1079217232992
494.1102613657398
494.11260091351585
494.114940366377
494.1172797240732
494.1196189863541
494.12195815296957
494.1242972236695
494.1266361982035
494.1289750763211
494.1313138577717
494.13365254230473
494.1359911296694
494.13832961961486
494.1406680118904
494.1430063062452
494.1453445024282
494.14768260018843
494.1500205992751
494.15235849943736
494.1546963004247
494.1570340019865
494.1593716038723
494.1617091058316
494.1640465076142
494.1663838089695
494.1687210096467
494.17105810939495
494.17339510796353
494.1757320051016
494.1780688005582
494.18040549408204
494.18274208542164
494.18507857432553
494.18741496054224
494.1897512438203
494.1920874239082
494.19442350055454
494.196759473508
494.19909534251735
494.2014311073316
494.2037667676999
494.2061023233713
494.20843777409493
494.2107731196203
494.213108359697
494.2154434940745
494.2177785225023
494.2201134447297
494.2224482605062
494.2247829695815
494.22711757170543
494.2294520666279
494.2317864540986
494.23412073386714
494.2364549056832
494.2387889692965
494.24112292445636
494.2434567709123
494.24579050841396
494.248124136711
494.25045765555285
494.25279106468895
494.2551243638685
494.2574575528407
494.2597906313548
494.2621235991602
494.2644564560061
494.2667892016419
494.2691218358174
494.27145435828163
494.27378676878413
494.2761190670743
494.2784512529016
494.2807833260157
494.2831152861662
494.2854471331028
494.2877788665752
494.2901104863332
494.2924419921268
494.29477338370555
494.2971046608194
494.29943582321823
494.30176687065193
494.3040978028706
494.3064286196244
494.3087593206634
494.3110899057375
494.31342037459683
494.3157507269915
494.3180809626714
494.3204110813866
494.3227410828871
494.3250709669229
494.32740073324373
494.3297303815997
494.3320599117409
494.33438932341744
494.33671861637947
494.3390477903773
494.34137684516134
494.34370578048186
494.346034596089
494.3483632917331
494.3506918671643
494.3530203221327
494.3553486563884
494.35767686968154
494.36000496176223
494.3623329323808
494.3646607812876
494.366988508233
494.36931611296734
494.3716435952407
494.3739709548032
494.37629819140477
494.37862530479526
494.3809522947246
494.3832791609424
494.3856059031981
494.38793252124117
494.39025901482125
494.3925853836878
494.39491162759
494.39723774627726
494.39956373949906
494.40188960700505
494.4042153485449
494.4065409638682
494.4088664527245
494.4111918148632
494.41351705003365
494.41584215798514
494.41816713846686
494.42049199122823
494.4228167160185
494.42514131258656
494.42746578068125
494.4297901200513
494.4321143304452
494.4344384116117
494.43676236329964
494.43908618525745
494.4414098772337
494.4437334389769
494.4460568702358
494.4483801707594
494.45070334029685
494.45302637859743
494.4553492854101
494.457672060484
494.4599947035689
494.46231721441416
494.46463959276946
494.4669618383847
494.46928395100974
494.47160593039473
494.47392777628977
494.47624948844475
494.47857106660933
494.48089251053295
494.48321381996504
494.48553499465527
494.4878560343533
494.49017693880876
494.49249770777135
494.49481834099095
494.4971388382172
494.4994591991998
494.50177942368816
494.50409951143195
494.50641946218104
494.50873927568534
494.51105895169496
494.51337848996
494.5156978902302
494.5180171522551
494.5203362757842
494.5226552605667
494.5249741063518
494.5272928128885
494.529611379926
494.5319298072137
494.53424809450087
494.53656624153666
494.5388842480703
494.541202113851
494.54351983862796
494.54583742215016
494.54815486416635
494.5504721644255
494.55278932267686
494.5551063386696
494.5574232121529
494.55973994287604
494.56205653058794
494.5643729750374
494.56668927597286
494.56900543314316
494.57132144629725
494.5736373151843
494.5759530395536
494.5782686191545
494.58058405373674
494.5828993430499
494.5852144868435
494.5875294848669
494.58984433686976
494.59215904260157
494.5944736018117
494.5967880142499
494.5991022796658
494.6014163978092
494.60373036842986
494.6060441912772
494.60835786610085
494.6106713926505
494.6129847706758
494.6152979999266
494.61761108015287
494.6199240111042
494.6222367925303
494.6245494241806
494.62686190580473
494.62917423715237
494.6314864179734
494.6337984480175
494.6361103270341
494.6384220547726
494.64073363098225
494.6430450554125
494.6453563278127
494.6476674479326
494.6499784155218
494.6522892303302
494.65459989210797
494.6569104006054
494.6592207555731
494.6615309567618
494.66384100392236
494.66615089680556
494.6684606351622
494.6707702187431
494.67307964729923
494.67538892058167
494.6776980383414
494.68000700032974
494.68231580629833
494.6846244559987
494.68693294918205
494.6892412855997
494.6915494650028
494.69385748714274
494.6961653517707
494.6984730586379
494.70078060749586
494.70308799809584
494.7053952301891
494.70770230352684
494.7100092178604
494.7123159729407
494.7146225685191
494.71692900434675
494.71923528017476
494.72154139575457
494.7238473508379
494.7261531451767
494.72845877852285
494.73076425062834
494.7330695612453
494.73537471012594
494.7376796970226
494.73998452168746
494.74228918387246
494.74459368332975
494.7468980198113
494.74920219306875
494.7515062028539
494.7538100489181
494.7561137310132
494.7584172488911
494.76072060230365
494.76302379100287
494.7653268147409
494.7676296732701
494.76993236634314
494.7722348937126
494.7745372551316
494.7768394503529
494.7791414791294
494.78144334121373
494.78374503635825
494.78604656431514
494.78834792483656
494.7906491176742
494.7929501425798
494.79525099930527
494.7975516876023
494.7998522072229
494.80215255791916
494.80445273944326
494.8067527515474
494.80905259398344
494.8113522665034
494.81365176885913
494.81595110080264
494.8182502620858
494.82054925246064
494.82284807167923
494.825146719494
494.82744519565733
494.8297434999216
494.832041632039
494.8343395917617
494.83663737884206
494.8389349930327
494.84123243408624
494.84352970175553
494.8458267957934
494.84812371595297
494.850420461987
494.8527170336482
494.8550134306889
494.8573096528618
494.85960569991937
494.8619015716139
494.8641972676975
494.8664927879223
494.8687881320408
494.87108329980504
494.8733782909675
494.8756731052805
494.8779677424967
494.8802622023687
494.8825564846494
494.88485058909157
494.8871445154481
494.8894382634718
494.8917318329155
494.89402522353237
494.8963184350754
494.8986114672979
494.9009043199534
494.90319699279564
494.9054894855782
494.9077817980543
494.91007392997733
494.9123658811003
494.9146576511763
494.91694923995817
494.91924064719854
494.9215318726498
494.92382291606407
494.92611377719334
494.92840445578975
494.93069495160546
494.93298526439264
494.93527539390345
494.93756533989006
494.9398551021046
494.94214468029907
494.94443407422534
494.9467232836356
494.949012308282
494.9513011479165
494.9535898022908
494.9558782711566
494.95816655426563
494.96045465136956
494.96274256222034
494.9650302865697
494.9673178241693
494.9696051747709
494.9718923381264
494.97417931398775
494.9764661021071
494.9787527022369
494.98103911412966
494.9833253375381
494.9856113722145
494.9878972179114
494.99018287438105
494.9924683413757
494.9947536186477
494.9970387059494
494.99932360303353
495.0016083096526
495.0038928255591
495.0061771505051
495.00846128424234
495.01074522652254
495.0130289770972
495.0153125357177
495.01759590213567
495.01987907610226
495.02216205736875
495.02444484568616
495.02672744080553
495.0290098424779
495.03129205045445
495.0335740644865
495.0358558843253
495.0381375097219
495.04041894042746
495.0427001761933
495.0449812167707
495.0472620619106
495.04954271136387
495.05182316488106
495.05410342221296
495.0563834831104
495.05866334732434
495.06094301460587
495.0632224847062
495.06550175737686
495.0677808323693
495.070059709435
495.0723383883254
495.0746168687923
495.0768951505878
495.07917323346385
495.08145111717215
495.0837288014644
495.08600628609213
495.08828357080677
495.0905606553598
495.0928375395025
495.0951142229861
495.09739070556213
495.09966698698224
495.1019430669984
495.1042189453625
495.1064946218263
495.1087700961417
495.11104536806045
495.1133204373342
495.1155953037145
495.11786996695275
495.1201444268005
495.12241868300896
495.1246927353294
495.1269665835133
495.12924022731215
495.13151366647764
495.1337869007615
495.1360599299152
495.1383327536902
495.140605371838
495.14287778411006
495.14514999025766
495.1474219900325
495.1496937831861
495.1519653694696
495.1542367486344
495.15650792043164
495.1587788846126
495.1610496409286
495.163320189131
495.1655905289714
495.1678606602014
495.1701305825728
495.1724002958373
495.1746697997463
495.1769390940516
495.1792081785046
495.18147705285685
495.18374571686
495.1860141702658
495.18828241282597
495.19055044429194
495.19281826441545
495.19508587294865
495.19735326964394
495.19962045425393
495.20188742653147
495.20415418622963
495.2064207331015
495.20868706689987
495.21095318737764
495.2132190942872
495.2154847873809
495.2177502664114
495.2200155311315
495.22228058129383
495.22454541665104
495.2268100369557
495.22907444196073
495.2313386314189
495.2336026050831
495.23586636270613
495.2381299040409
495.24039322884016
495.2426563368573
495.2449192278458
495.2471819015592
495.2494443577508
495.2517065961739
495.2539686165818
495.2562304187278
495.2584920023652
495.2607533672475
495.26301451312827
495.26527543976124
495.26753614689994
495.26979663429813
495.2720569017098
495.2743169488889
495.27657677558966
495.2788363815663
495.28109576657323
495.2833549303649
495.285613872696
495.28787259332114
495.290131091995
495.2923893684725
495.2946474225083
495.2969052538573
495.29916286227433
495.30142024751456
495.3036774093333
495.3059343474862
495.30819106172873
495.31044755181676
495.3127038175061
495.31495985855247
495.317215674712
495.3194712657404
495.3217266313935
495.32398177142693
495.3262366855964
495.3284913736576
495.33074583536575
495.3330000704765
495.3352540787456
495.3375078599289
495.3397614137824
495.34201474006215
495.3442678385244
495.34652070892537
495.34877335102135
495.35102576456836
495.3532779493222
495.3555299050387
495.3577816314736
495.3600331283827
495.3622843955221
495.3645354326478
495.3667862395156
495.36903681588126
495.3712871615006
495.37353727612947
495.3757871595234
495.37803681143794
495.3802862316285
495.38253541985034
495.3847843758589
495.3870330994092
495.38928159025625
495.3915298481551
495.3937778728606
495.3960256641277
495.3982732217115
495.4005205453674
495.4027676348504
495.40501448991574
495.4072611103185
495.40950749581395
495.41175364615754
495.41399956110456
495.4162452404106
495.418490683831
495.4207358911209
495.4229808620354
495.4252255963296
495.42747009375864
495.4297143540774
495.4319583770406
495.4342021624028
495.436445709919
495.43868901934377
495.44093209043183
495.4431749229376
495.44541751661575
495.44765987122094
495.4499019865078
495.4521438622313
495.4543854981463
495.4566268940076
495.45886804957047
495.4611089645899
495.46334963882134
495.4655900720203
495.4678302639428
495.4700702143449
495.4723099229826
495.4745493896122
495.4767886139899
495.47902759587225
495.4812663350159
495.4835048311778
495.48574308411514
495.4879810935855
495.4902188593468
495.4924563811568
495.4946936587734
495.4969306919546
495.4991674804586
495.5014040240436
495.50364032246796
495.50587637548995
495.5081121828679
495.5103477443596
495.51258305972317
495.5148181287167
495.51705295109844
495.5192875266267
495.5215218550601
495.52375593615704
495.52598976967636
495.52822335537655
495.5304566930157
495.5326897823519
495.5349226231432
495.53715521514766
495.5393875581234
495.5416196518287
495.54385149602206
495.54608309046205
495.5483144349072
495.5505455291162
495.5527763728479
495.555006965861
495.5572373079141
495.5594673987656
495.5616972381746
495.5639268259
495.56615616170063
495.56838524533543
495.57061407656363
495.5728426551444
495.5750709808368
495.5772990534
495.5795268725932
495.58175443817584
495.58398174990737
495.58620880754745
495.58843561085575
495.59066215959194
495.5928884535157
495.59511449238664
495.59734027596426
495.5995658040082
495.60179107627835
495.6040160925346
495.6062408525371
495.60846535604594
495.6106896028215
495.61291359262407
495.61513732521405
495.617360800352
495.61958401779873
495.62180697731526
495.62402967866285
495.62625212160276
495.62847430589625
495.6306962313048
495.6329178975901
495.63513930451415
495.63736045183884
495.6395813393261
495.6418019667377
495.6440223338353
495.6462424403809
495.64846228613635
495.65068187086365
495.6529011943247
495.6551202562813
495.65733905649506
495.6595575947275
495.66177587074014
495.6639938842944
495.6662116351516
495.668429123073
495.6706463478198
495.6728633091533
495.6750800068347
495.6772964406251
495.67951261028554
495.68172851557676
495.6839441562596
495.6861595320944
495.6883746428417
495.6905894882624
495.6928040681172
495.6950183821672
495.69723243017336
495.69944621189654
495.70165972709776
495.70387297553805
495.70608595697865
495.70829867118084
495.71051111790564
495.7127232969141
495.7149352079674
495.7171468508269
495.71935822525404
495.7215693310103
495.72378016785717
495.72599073555614
495.72820103386846
495.7304110625556
495.7326208213791
495.7348303101004
495.737039528481
495.73924847628234
495.7414571532662
495.743665559194
495.7458736938273
495.74808155692756
495.75028914825623
495.7524964675746
495.75470351464367
495.75691028922427
495.7591167910772
495.76132301996347
495.76352897564414
495.76573465788044
495.76794006643365
495.77014520106525
495.7723500615367
495.77455464760976
495.7767589590459
495.77896299560655
495.7811667570535
495.7833702431486
495.7855734536539
495.7877763883313
495.7899790469427
495.79218142925004
495.7943835350151
495.7965853639995
495.798786915965
495.8009881906736
495.80318918788737
495.8053899073685
495.80759034887967
495.80979051218367
495.8119903970436
495.8141900032225
495.81638933048373
495.81858837859056
495.8207871473061
495.8229856363936
495.8251838456166
495.8273817747389
495.8295794235245
495.8317767917373
495.8339738791416
495.8361706855013
495.8383672105807
495.840563454144
495.8427594159556
495.84495509578016
495.8471504933826
495.84934560852787
495.85154044098056
495.85373499050536
495.85592925686717
495.85812323983066
495.86031693916027
495.86251035462044
495.86470348597584
495.86689633299113
495.869088895431
495.8712811730601
495.8734731656433
495.87566487294555
495.8778562947317
495.8800474307667
495.8822382808154
495.8844288446429
495.8866191220146
495.88880911269587
495.89099881645177
495.89318823304745
495.89537736224804
495.8975662038189
495.89975475752556
495.90194302313364
495.90413100040894
495.90631868911726
495.9085060890246
495.9106931998973
495.9128800215011
495.91506655360206
495.9172527959662
495.91943874835954
495.92162441054836
495.9238097822989
495.92599486337724
495.9281796535496
495.93036415258223
495.9325483602414
495.93473227629363
495.93691590050537
495.9390992326431
495.9412822724736
495.94346501976327
495.94564747427887
495.94782963578734
495.95001150405585
495.9521930788518
495.9543743599428
495.9565553470967
495.95873604008136
495.96091643866464
495.9630965426146
495.9652763516996
495.96745586568784
495.96963508434817
495.97181400744955
495.9739926347612
495.97617096605234
495.9783490010926
495.98052673965174
495.98270418149934
495.9848813264051
495.98705817413895
495.989234724471
495.99141097717154
495.99358693201145
495.9957625887613
495.9979379471914
496.00011300707195
496.002287768173
496.0044622302647
496.0066363931172
496.00881025650085
496.0109838201862
496.01315708394384
496.01533004754435
496.0175027107583
496.0196750733563
496.02184713510894
496.024018895787
496.026190355161
496.02836151300164
496.03053236907965
496.0327029231663
496.03487317503266
496.03704312444995
496.03921277118945
496.04138211502243
496.04355115572014
496.0457198930543
496.04788832679685
496.05005645671974
496.0522242825947
496.05439180419364
496.0565590212883
496.0587259336502
496.0608925410503
496.0630588432599
496.0652248400505
496.0673905311936
496.0695559164609
496.0717209956241
496.0738857684547
496.0760502347242
496.0782143942039
496.08037824666474
496.08254179187804
496.0847050296153
496.086867959648
496.0890305817478
496.0911928956865
496.0933549012358
496.09551659816714
496.09767798625205
496.0998390652618
496.10199983496807
496.1041602951426
496.10632044555734
496.10848028598446
496.1106398161961
496.1127990359645
496.1149579450622
496.1171165432619
496.1192748303364
496.1214328060586
496.1235904702015
496.1257478225381
496.1279048628411
496.13006159088366
496.13221800643885
496.13437410928
496.13652989918035
496.1386853759135
496.14084053925274
496.1429953889716
496.1451499248436
496.14730414664234
496.1494580541415
496.15161164711515
496.1537649253372
496.15591788858194
496.15807053662377
496.16022286923715
496.1623748861965
496.1645265872761
496.1666779722501
496.1688290408928
496.1709797929783
496.1731302282809
496.17528034657505
496.17743014763516
496.17957963123547
496.18172879715064
496.1838776451551
496.1860261750236
496.1881743865307
496.1903222794514
496.1924698535605
496.194617108633
496.1967640444435
496.19891066076696
496.2010569573782
496.20320293405246
496.20534859056477
496.2074939266905
496.2096389422053
496.2117836368849
496.21392801050513
496.2160720628416
496.21821579366986
496.2203592027655
496.22250228990436
496.2246450548622
496.22678749741465
496.2289296173377
496.23107141440744
496.2332128884001
496.23535403909193
496.2374948662592
496.23963536967847
496.2417755491264
496.24391540437966
496.2460549352153
496.2481941414104
496.2503330227422
496.2524715789874
496.25460980992295
496.2567477153258
496.2588852949733
496.2610225486429
496.26315947611204
496.26529607715804
496.26743235155857
496.26956829909125
496.2717039195335
496.27383921266266
496.2759741782562
496.2781088160915
496.28024312594596
496.282377107597
496.2845107608217
496.2866440853976
496.2887770811018
496.29090974771145
496.29304208500355
496.29517409275525
496.2973057707437
496.2994371187459
496.301568136539
496.30369882390016
496.3058291806068
496.3079592064365
496.3100889011672
496.3122182645765
496.3143472964422
496.3164759965424
496.31860436465547
496.3207324005597
496.32286010403357
496.3249874748559
496.32711451280545
496.3292412176612
496.3313675892024
496.33349362720844
496.3356193314588
496.33774470173296
496.3398697378103
496.34199443947057
496.3441188064934
496.34624283865844
496.34836653574564
496.3504898975351
496.35261292380676
496.3547356143407
496.3568579689173
496.3589799873172
496.3611016693211
496.3632230147099
496.36534402326436
496.36746469476554
496.3695850289947
496.37170502573315
496.3738246847621
496.37594400586306
496.37806298881776
496.3801816334077
496.38229993941434
496.38441790661966
496.3865355348054
496.3886528237532
496.3907697732451
496.3928863830632
496.3950026529898
496.3971185828069
496.3992341722968
496.40134942124166
496.4034643294236
496.4055788966249
496.4076931226276
496.409807007214
496.411920550166
496.4140337512657
496.4161466102954
496.41825912703723
496.42037130127335
496.4224831327857
496.4245946213563
496.426705766767
496.4288165688
496.43092702723754
496.433037141862
496.43514691245593
496.43725633880183
496.43936542068207
496.44147415787904
496.44358255017517
496.44569059735306
496.44779829919537
496.4499056554847
496.4520126660037
496.4541193305348
496.45622564886037
496.45833162076303
496.46043724602566
496.46254252443157
496.46464745576407
496.4667520398067
496.4688562763432
496.4709601651574
496.4730637060335
496.4751668987557
496.47726974310865
496.4793722388771
496.4814743858459
496.4835761838002
496.4856776325249
496.48777873180495
496.48987948142565
496.4919798811726
496.49407993083116
496.49617963018693
496.49827897902526
496.5003779771315
496.5024766242915
496.50457492029125
496.5066728649168
496.50877045795426
496.51086769919004
496.5129645884109
496.5150611254036
496.51715730995454
496.5192531418501
496.52134862087667
496.5234437468213
496.52553851947084
496.52763293861256
496.52972700403336
496.53182071552044
496.53391407286097
496.53600707584235
496.538099724252
496.5401920178773
496.54228395650546
496.54437553992386
496.5464667679199
496.5485576402813
496.5506481567958
496.5527383172513
496.5548281214359
496.5569175691379
496.5590066601459
496.56109539424835
496.5631837712341
496.56527179089187
496.56735945301045
496.5694467573784
496.571533703784
496.57362029201556
496.57570652186143
496.5777923931099
496.5798779055493
496.5819630589682
496.5840478531551
496.5861322878985
496.58821636298705
496.5903000782092
496.59238343335335
496.5944664282075
496.59654906256003
496.5986313361992
496.6007132489136
496.6027948004918
496.60487599072246
496.6069568193942
496.6090372862958
496.611117391216
496.61319713394334
496.6152765142666
496.61735553197457
496.6194341868562
496.6215124787003
496.62359040729586
496.62566797243187
496.62774517389755
496.62982201148213
496.63189848497507
496.63397459416603
496.63605033884494
496.6381257188019
496.6402007338273
496.64227538371154
496.6443496682449
496.64642358721824
496.6484971404226
496.65057032764923
496.6526431486892
496.6547156033338
496.65678769137446
496.65885941260274
496.66093076681057
496.6630017537899
496.66507237333246
496.66714262523
496.6692125092744
496.67128202525794
496.67335117297296
496.6754199522119
496.6774883627671
496.6795564044311
496.6816240769964
496.6836913802555
496.68575831400096
496.6878248780257
496.6898910721228
496.69195689608534
496.6940223497062
496.6960874327782
496.69815214509424
496.7002164864474
496.7022804566308
496.7043440554377
496.70640728266164
496.70847013809623
496.710532621535
496.71259473277144
496.71465647159937
496.71671783781255
496.71877883120453
496.7208394515691
496.72289969869996
496.7249595723912
496.72701907243675
496.72907819863065
496.7311369507671
496.7331953286406
496.73525333204554
496.73731096077665
496.7393682146286
496.7414250933963
496.74348159687486
496.7455377248597
496.74759347714587
496.7496488535286
496.7517038538034
496.7537584777659
496.75581272521174
496.75786659593643
496.75992008973583
496.7619732064055
496.7640259457411
496.76607830753835
496.76813029159314
496.77018189770126
496.77223312565854
496.774283975261
496.7763344463052
496.7783845385874
496.78043425190424
496.782483586053
496.78453254083104
496.7865811160358
496.7886293114649
496.7906771269162
496.7927245621876
496.7947716170771
496.79681829138315
496.7988645849042
496.80091049743885
496.80295602878584
496.8050011787442
496.8070459471131
496.8090903336921
496.8111343382808
496.8131779606789
496.8152212006863
496.817264058103
496.8193065327288
496.8213486243636
496.82339033280743
496.8254316578606
496.8274725993234
496.82951315699654
496.83155333068055
496.8335931201758
496.83563252528313
496.83767154580335
496.8397101815375
496.84174843228664
496.8437862978518
496.84582377803406
496.84786087263467
496.84989758145514
496.85193390429674
496.853969840961
496.85600539124937
496.8580405549634
496.86007533190457
496.8621097218744
496.8641437246746
496.8661773401067
496.86821056797237
496.87024340807363
496.8722758602124
496.8743079241907
496.87633959981065
496.8783708868749
496.88040178518634
496.8824322945478
496.8844624147622
496.8864921456326
496.88852148696185
496.8905504385533
496.89257900021005
496.89460717173495
496.8966349529311
496.8986623436018
496.90068934355065
496.9027159525814
496.9047421704978
496.9067679971039
496.90879343220365
496.91081847560133
496.9128431271014
496.91486738650826
496.91689125362643
496.9189147282606
496.9209378102156
496.9229604992962
496.9249827953075
496.9270046980547
496.9290262073429
496.9310473229772
496.93306804476276
496.935088372505
496.93710830600924
496.93912784508086
496.94114698952524
496.94316573914796
496.9451840937546
496.94720205315105
496.94921961714306
496.9512367855365
496.95325355813713
496.9552699347511
496.9572859151841
496.9593014992423
496.9613166867317
496.9633314774584
496.9653458712286
496.9673598678486
496.9693734671247
496.9713866688629
496.9733994728696
496.97541187895115
496.9774238869139
496.97943549656395
496.9814467077073
496.9834575201504
496.98546793369985
496.9874779481621
496.9894875633437
496.9914967790511
496.9935055950908
496.99551401126985
496.99752202739535
496.99952964327474
497.00153685871567
497.0035436735262
497.00555008751473
497.0075561004895
497.00956171225914
497.01156692263237
497.01357173141776
497.01557613842385
497.01758014345967
497.0195837463342
497.0215869468567
497.0235897448366
497.02559214008363
497.02759413240744
497.02959572161774
497.03159690752443
497.03359768993744
497.03559806866645
497.03759804352137
497.03959761431236
497.0415967808498
497.04359554294444
497.0455939004072
497.0475918530491
497.04958940068116
497.0515865431147
497.053583280161
497.05557961163174
497.0575755373392
497.0595710570957
497.06156617071395
497.0635608780068
497.0655551787871
497.06754907286756
497.06954256006077
497.0715356401794
497.07352831303626
497.0755205784443
497.07751243621635
497.0795038861655
497.08149492810514
497.08348556184853
497.0854757872095
497.0874656040022
497.0894550120412
497.0914440111411
497.09343260111643
497.0954207817816
497.09740855295115
497.0993959144399
497.10138286606264
497.103369407634
497.10535553896887
497.10734125988245
497.1093265701901
497.1113114697074
497.11329595825
497.1152800356334
497.1172637016733
497.11924695618575
497.121229798987
497.1232122298935
497.1251942487221
497.12717585528947
497.12915704941236
497.13113783090773
497.13311819959256
497.13509815528425
497.13707769780024
497.1390568269579
497.14103554257497
497.14301384446924
497.1449917324586
497.14696920636095
497.14894626599414
497.15092291117605
497.15289914172456
497.154874957458
497.1568503581949
497.15882534375385
497.1607999139534
497.16277406861184
497.16474780754777
497.16672113057973
497.16869403752605
497.1706665282053
497.172638602436
497.17461026003696
497.1765815008272
497.1785523246259
497.1805227312526
497.1824927205272
497.1844622922698
497.1864314463006
497.18840018244
497.19036850050827
497.19233640032587
497.19430388171315
497.1962709444905
497.19823758847826
497.20020381349684
497.2021696193666
497.2041350059079
497.20609997294116
497.20806452028694
497.21002864776585
497.21199235519873
497.21395564240663
497.2159185092106
497.21788095543195
497.21984298089217
497.221804585413
497.2237657688162
497.2257265309237
497.2276868715579
497.2296467905411
497.2316062876956
497.23356536284393
497.23552401580844
497.23748224641133
497.2394400544748
497.2413974398213
497.2433544022732
497.245310941653
497.24726705778323
497.24922275048687
497.25117801958675
497.253132864906
497.2550872862679
497.2570412834958
497.2589948564133
497.2609480048442
497.2629007286122
497.26485302754133
497.26680490145543
497.268756350178
497.27070737353245
497.27265797134226
497.274608143431
497.2765578896225
497.2785072097407
497.2804561036097
497.2824045710537
497.28435261189713
497.28630022596496
497.2882474130821
497.2901941730735
497.29214050576445
497.2940864109804
497.29603188854696
497.2979769382897
497.2999215600345
497.30186575360733
497.30380951883456
497.30575285554266
497.3076957635582
497.30963824270736
497.3115802928163
497.31352191371127
497.3154631052188
497.31740386716535
497.3193441993775
497.32128410168195
497.32322357390547
497.3251626158748
497.3271012274166
497.32903940835797
497.3309771585258
497.33291447774707
497.33485136584875
497.33678782265804
497.3387238480026
497.3406594417103
497.342594603609
497.34452933352634
497.34646363129
497.3483974967279
497.3503309296681
497.35226392993866
497.35419649736775
497.35612863178346
497.3580603330141
497.35999160088784
497.3619224352327
497.36385283587686
497.3657828026488
497.3677123353774
497.3696414338916
497.3715700980207
497.3734983275941
497.3754261224416
497.37735348239323
497.3792804072792
497.3812068969297
497.38313295117484
497.3850585698448
497.3869837527699
497.38890849978077
497.3908328107085
497.3927566853839
497.39468012363784
497.3966031253011
497.39852569020456
497.40044781817903
497.40236950905535
497.4042907626648
497.4062115788387
497.4081319574085
497.4100518982058
497.41197140106226
497.4138904658099
497.41580909228094
497.41772728030753
497.4196450297221
497.42156234035735
497.4234792120459
497.4253956446206
497.42731163791484
497.42922719176215
497.4311423059961
497.4330569804507
497.43497121496
497.43688500935843
497.4387983634805
497.44071127716086
497.4426237502345
497.44453578253626
497.44644737390115
497.44835852416406
497.45026923315993
497.4521795007241
497.45408932669204
497.45599871089905
497.4579076531803
497.4598161533712
497.4617242113071
497.4636318268234
497.46553899975527
497.4674457299378
497.46935201720646
497.47125786139657
497.47316326234375
497.4750682198836
497.47697273385154
497.4788768040829
497.48078043041335
497.48268361267867
497.4845863507147
497.48648864435756
497.4883904934435
497.490291897809
497.49219285729066
497.49409337172494
497.4959934409486
497.49789306479863
497.499792243112
497.50169097572564
497.5035892624768
497.50548710320265
497.5073844977404
497.5092814459273
497.51117794760046
497.51307400259736
497.51496961075543
497.5168647719121
497.51875948590475
497.52065375257087
497.5225475717481
497.52444094327404
497.52633386698665
497.528226342724
497.53011837032443
497.5320099496265
497.5339010804688
497.5357917626901
497.537681996129
497.5395717806242
497.54146111601483
497.5433500021401
497.5452384388392
497.5471264259519
497.5490139633181
497.5509010507777
497.5527876881707
497.55467387533724
497.55655961211767
497.5584448983524
497.56032973388176
497.5622141185464
497.5640980521872
497.56598153464495
497.5678645657607
497.5697471453758
497.5716292733315
497.5735109494691
497.5753921736301
497.57727294565586
497.5791532653876
497.5810331326667
497.58291254733433
497.5847915092319
497.58667001820083
497.58854807408295
497.5904256767202
497.59230282595456
497.594179521628
497.59605576358297
497.59793155166165
497.599806885706
497.60168176555806
497.6035561910602
497.6054301620553
497.60730367838676
497.6091767398981
497.61104934643265
497.6129214978338
497.61479319394505
497.61666443461024
497.61853521967316
497.6204055489778
497.62227542236803
497.62414483968735
497.62601380077956
497.62788230548847
497.62975035365787
497.6316179451318
497.63348507975445
497.6353517573699
497.6372179778224
497.6390837409566
497.64094904661727
497.64281389464907
497.6446782848965
497.6465422172042
497.648405691417
497.6502687073797
497.65213126493734
497.6539933639348
497.65585500421696
497.6577161856286
497.6595769080144
497.6614371712193
497.66329697508866
497.6651563194679
497.66701520420213
497.6688736291368
497.6707315941172
497.6725890989891
497.67444614359795
497.6763027277899
497.678158851411
497.6800145143076
497.6818697163259
497.68372445731245
497.68557873711427
497.6874325555783
497.68928591255155
497.6911388078812
497.6929912414147
497.6948432129997
497.6966947224838
497.69854576971477
497.7003963545402
497.7022464768082
497.70409613636696
497.70594533306473
497.7077940667499
497.709642337271
497.7114901444769
497.71333748821655
497.71518436833924
497.7170307846942
497.7188767371307
497.7207222254982
497.72256724964643
497.7244118094251
497.72625590468385
497.72809953527246
497.7299427010404
497.73178540183756
497.7336276375139
497.7354694079196
497.737310712905
497.73915155232055
497.7409919260166
497.7428318338435
497.74467127565174
497.7465102512916
497.74834876061357
497.75018680346795
497.7520243797052
497.75386148917585
497.7556981317308
497.75753430722114
497.75937001549767
497.7612052564117
497.76304002981453
497.76487433555724
497.76670817349134
497.76854154346836
497.77037444534005
497.7722068789582
497.77403884417447
497.7758703408409
497.7777013688095
497.7795319279322
497.78136201806103
497.78319163904814
497.785020790746
497.78684947300724
497.7886776856848
497.7905054286315
497.7923327017003
497.794159504744
497.7959858376156
497.79781170016815
497.799637092255
497.8014620137295
497.803286464445
497.80511044425486
497.8069339530126
497.8087569905721
497.8105795567873
497.81240165151223
497.81422327460075
497.81604442590685
497.8178651052848
497.8196853125893
497.82150504767526
497.8233243103974
497.8251431006107
497.8269614181703
497.82877926293156
497.8305966347501
497.8324135334816
497.83422995898184
497.8360459111067
497.83786138971243
497.8396763946556
497.8414909257932
497.84330498298243
497.84511856608094
497.8469316749464
497.8487443094365
497.85055646940884
497.8523681547216
497.8541793652331
497.85599010080216
497.85780036128756
497.85961014654833
497.86141945644374
497.86322829083304
497.8650366495755
497.8668445325303
497.86865193955657
497.8704588705133
497.87226532525995
497.87407130365625
497.8758768055619
497.8776818308369
497.8794863793413
497.8812904509356
497.88309404548033
497.8848971628364
497.8866998028644
497.8885019654248
497.89030365037786
497.89210485758383
497.8939055869033
497.8957058381967
497.8975056113246
497.8993049061477
497.9011037225267
497.90290206032284
497.90469991939756
497.9064972996124
497.9082942008289
497.91009062290857
497.9118865657132
497.9136820291045
497.9154770129445
497.9172715170954
497.9190655414192
497.92085908577803
497.9226521500342
497.92444473404987
497.9262368376875
497.92802846080997
497.9298196032804
497.93161026496216
497.93340044571835
497.9351901454123
497.93697936390765
497.9387681010679
497.9405563567567
497.94234413083757
497.9441314231741
497.9459182336301
497.9477045620696
497.94949040835684
497.95127577235587
497.9530606539307
497.9548450529452
497.9566289692633
497.95841240274933
497.96019535326775
497.9619778206833
497.96375980486084
497.9655413056656
497.9673223229628
497.96910285661795
497.97088290649697
497.9726624724659
497.9744415543913
497.97622015213994
497.97799826557855
497.97977589457435
497.9815530389948
497.9833296987073
497.98510587357976
497.9868815634801
497.9886567682762
497.99043148783574
497.9922057220266
497.9939794707169
497.995752733775
497.9975255110695
497.9992978024692
498.00106960784285
498.0028409270593
498.0046117599876
498.00638210649697
498.0081519664569
498.00992133973693
498.0116902262067
498.013458625736
498.0152265381945
498.0169939634519
498.01876090137796
498.02052735184236
498.02229331471483
498.0240587898653
498.0258237771635
498.02758827647915
498.02935228768195
498.0311158106416
498.0328788452283
498.03464139131245
498.0364034487644
498.0381650174544
498.03992609725276
498.0416866880304
498.0434467896581
498.0452064020068
498.0469655249475
498.0487241583513
498.05048230208934
498.05223995603285
498.0539971200534
498.05575379402273
498.0575099778124
498.05926567129416
498.06102087434
498.0627755868219
498.06452980861206
498.0662835395825
498.06803677960545
498.0697895285533
498.07154178629855
498.0732935527136
498.07504482767115
498.0767956110443
498.0785459027064
498.0802957025311
498.0820450103919
498.08379382616283
498.0855421497182
498.0872899809325
498.0890373196802
498.09078416583577
498.0925305192742
498.09427637987017
498.09602174749864
498.09776662203456
498.0995110033531
498.10125489132963
498.1029982858398
498.10474118675904
498.1064835939625
498.1082255073255
498.10996692672404
498.1117078520339
498.1134482831309
498.1151882198909
498.1169276621903
498.1186666099055
498.1204050629134
498.1221430210911
498.12388048431615
498.1256174524659
498.1273539254179
498.12908990304993
498.1308253852402
498.13256037186727
498.1342948628097
498.13602885794614
498.13776235715534
498.1394953603159
498.1412278673066
498.1429598780061
498.1446913922929
498.1464224100456
498.14815293114304
498.14988295546425
498.15161248288825
498.1533415132941
498.1550700465608
498.15679808256766
498.15852562119414
498.16025266232
498.1619792058249
498.1637052515888
498.16543079949145
498.1671558494128
498.1688804012332
498.1706044548331
498.1723280100929
498.17405106689296
498.17577362511395
498.1774956846365
498.1792172453412
498.1809383071087
498.18265886981965
498.1843789333549
498.186098497595
498.18781756242095
498.1895361277135
498.191254193354
498.1929717592237
498.194688825204
498.1964053911764
498.1981214570227
498.1998370226248
498.201552087865
498.2032666526253
498.2049807167881
498.20669428023587
498.2084073428513
498.210119904517
498.21183196511595
498.2135435245308
498.2152545826442
498.2169651393391
498.2186751944988
498.22038474800695
498.2220937997473
498.22380234960394
498.2255103974609
498.22721794320216
498.22892498671183
498.23063152787415
498.2323375665736
498.23404310269495
498.2357481361229
498.2374526667419
498.2391566944365
498.24086021909136
498.24256324059127
498.24426575882114
498.2459677736664
498.24766928501265
498.24937029274577
498.2510707967514
498.25277079691534
498.25447029312375
498.2561692852627
498.25786777321844
498.25956575687735
498.2612632361257
498.2629602108501
498.2646566809375
498.2663526462751
498.2680481067506
498.2697430622519
498.2714375126667
498.2731314578831
498.27482489778924
498.27651783227327
498.27821026122353
498.2799021845284
498.2815936020762
498.2832845137558
498.284974919456
498.2866648190658
498.28835421247425
498.2900430995704
498.2917314802438
498.2934193543839
498.29510672188064
498.296793582624
498.2984799365041
498.30016578341144
498.30185112323636
498.3035359558695
498.30522028120197
498.30690409912506
498.30858740953033
498.31027021230955
498.31195250735493
498.31363429455894
498.3153155738145
498.3169963450147
498.31867660805267
498.3203563628216
498.3220356092148
498.3237143471255
498.3253925764467
498.3270702970718
498.32874750889425
498.3304242118073
498.33210040570464
498.3337760904802
498.3354512660286
498.3371259322445
498.3388000890228
498.3404737362588
498.34214687384804
498.3438195016864
498.3454916196696
498.34716322769316
498.34883432565323
498.3505049134459
498.3521749909672
498.35384455811334
498.3555136147803
498.357182160864
498.3588501962603
498.36051772086546
498.36218473457586
498.3638512372878
498.36551722889783
498.3671827093027
498.36884767839945
498.37051213608504
498.3721760822567
498.3738395168119
498.37550243964836
498.3771648506637
498.37882674975583
498.3804881368227
498.38214901176264
498.383809374474
498.3854692248552
498.3871285628046
498.38878738822075
498.3904457010025
498.3921035010486
498.3937607882582
498.39541756253027
498.3970738237639
498.3987295718583
498.40038480671285
498.4020395282265
498.40369373629835
498.40534743082765
498.4070006117141
498.40865327885774
498.41030543215845
498.41195707151644
498.4136081968319
498.4152588080052
498.41690890493726
498.41855848752914
498.42020755568194
498.421856109297
498.42350414827604
498.4251516725209
498.4267986819335
498.42844517641595
498.4300911558702
498.4317366201984
498.4333815693034
498.43502600308796
498.4366699214553
498.43831332430875
498.4399562115517
498.4415985830875
498.44324043881977
498.44488177865185
498.44652260248733
498.44816291023005
498.44980270178405
498.4514419770534
498.4530807359421
498.4547189783542
498.45635670419404
498.45799391336584
498.45963060577367
498.46126678132157
498.46290243991405
498.4645375814556
498.4661722058512
498.46780631300555
498.46943990282364
498.4710729752102
498.47270553007013
498.47433756730845
498.47596908683033
498.4776000885412
498.4792305723464
498.4808605381512
498.482489985861
498.4841189153816
498.48574732661916
498.48737521947953
498.4890025938688
498.4906294496931
498.49225578685866
498.4938816052721
498.4955069048402
498.49713168546975
498.4987559470677
498.5003796895413
498.5020029127978
498.50362561674444
498.50524780128865
498.5068694663379
498.50849061179986
498.5101112375827
498.511731343595
498.51335092974557
498.51496999594326
498.5165885420969
498.5182065681155
498.51982407390835
498.521441059385
498.5230575244551
498.52467346902847
498.52628889301525
498.52790379632586
498.52951817887094
498.5311320405614
498.532745381308
498.534358201022
498.53597049961434
498.5375822769962
498.5391935330787
498.54080426777284
498.5424144809898
498.54402417264043
498.5456333426356
498.5472419908864
498.5488501173039
498.5504577217995
498.55206480428467
498.55367136467123
498.55527740287073
498.55688291879494
498.5584879123559
498.56009238346576
498.56169633203706
498.56329975798224
498.56490266121375
498.5665050416443
498.56810689918655
498.56970823375343
498.57130904525786
498.572909333613
498.57450909873216
498.576108340529
498.57770705891687
498.5793052538096
498.58090292512077
498.5825000727642
498.5840966966538
498.58569279670326
498.5872883728265
498.5888834249373
498.5904779529495
498.592071956777
498.59366543633325
498.59525839153196
498.5968508222867
498.59844272851126
498.6000341101195
498.6016249670257
498.6032152991444
498.60480510639024
498.60639438867804
498.6079831459223
498.60957137803746
498.6111590849381
498.6127462665387
498.61433292275353
498.6159190534971
498.6175046586842
498.6190897382295
498.6206742920475
498.622258320053
498.6238418221609
498.6254247982864
498.6270072483452
498.6285891722529
498.6301705699251
498.63175144127774
498.6333317862267
498.6349116046878
498.6364908965769
498.63806966180994
498.63964790030275
498.64122561197166
498.642802796733
498.6443794545029
498.6459555851974
498.6475311887326
498.6491062650249
498.65068081399056
498.65225483554593
498.65382832960734
498.6554012960911
498.6569737349138
498.65854564599215
498.660117029243
498.66168788458333
498.6632582119304
498.6648280112016
498.66639728231473
498.6679660251874
498.6695342397378
498.6711019258843
498.67266908354566
498.6742357126408
498.6758018130887
498.6773673848089
498.6789324277212
498.6804969417452
498.6820609268012
498.6836243828096
498.68518730969083
498.6867497073655
498.6883115757545
498.6898729147789
498.6914337243601
498.69299400441935
498.69455375487826
498.6961129756586
498.69767166668237
498.6992298278716
498.7007874591485
498.70234456043534
498.7039011316548
498.70545717272955
498.7070126835823
498.708567664136
498.7101221143138
498.711676034039
498.71322942323525
498.7147822818264
498.71633460973646
498.71788640688976
498.71943767321056
498.7209884086234
498.7225386130532
498.72408828642494
498.7256374286636
498.7271860396942
498.7287341194418
498.7302816678322
498.7318286847909
498.73337517024413
498.73492112411793
498.73646654633865
498.7380114368326
498.73955579552637
498.74109962234627
498.74264291721863
498.7441856800698
498.74572791082653
498.74726960941587
498.74881077576504
498.7503514098013
498.7518915114516
498.75343108064305
498.75497011730283
498.7565086213584
498.7580465927375
498.7595840313678
498.7611209371772
498.7626573100937
498.7641931500451
498.76572845695944
498.76726323076457
498.76879747138844
498.7703311787592
498.7718643528052
498.7733969934553
498.7749291006386
498.77646067428407
498.77799171432105
498.77952222067904
498.78105219328756
498.78258163207636
498.7841105369754
498.78563890791463
498.7871667448245
498.78869404763543
498.7902208162783
498.7917470506842
498.79327275078424
498.79479791650976
498.79632254779233
498.7978466445637
498.79937020675595
498.80089323430127
498.8024157271319
498.80393768518036
498.8054591083795
498.80697999666256
498.80850034996286
498.810020168214
498.8115394513501
498.8130581993054
498.81457641201416
498.81609408941074
498.81761123142985
498.81912783800624
498.8206439090749
498.82215944457096
498.8236744444299
498.8251889085876
498.8267028369802
498.82821622954395
498.8297290862155
498.8312414069313
498.8327531916283
498.83426444024315
498.8357751527129
498.8372853289749
498.83879496896645
498.8403040726254
498.8418126398893
498.843320670696
498.84482816498337
498.84633512268954
498.8478415437527
498.8493474281114
498.8508527757043
498.85235758647
498.85386186034714
498.8553655972745
498.85686879719094
498.8583714600353
498.85987358574664
498.861375174264
498.8628762255265
498.8643767394734
498.8658767160442
498.8673761551787
498.8688750568166
498.8703734208974
498.8718712473607
498.8733685361459
498.87486528719285
498.8763615004417
498.8778571758329
498.8793523133073
498.8808469128061
498.88234097427073
498.88383449764285
498.8853274828642
498.8868199298769
498.8883118386228
498.8898032090441
498.8912940410829
498.8927843346818
498.89427408978315
498.89576330632974
498.89725198426447
498.89874012353073
498.9002277240719
498.90171478583136
498.9032013087527
498.9046872927796
498.9061727378561
498.9076576439262
498.9091420109345
498.91062583882547
498.9121091275439
498.9135918770347
498.9150740872427
498.9165557581131
498.91803688959124
498.9195174816226
498.92099753415266
498.9224770471268
498.92395602049044
498.92543445418903
498.926912348168
498.928389702373
498.92986651675017
498.9313427912456
498.9328185258056
498.9342937203768
498.9357683749057
498.9372424893389
498.938716063623
498.9401890977048
498.941661591531
498.9431335450487
498.9446049582051
498.94607583094773
498.94754616322405
498.9490159549815
498.95048520616785
498.9519539167312
498.95342208661975
498.95488971578186
498.9563568041659
498.95782335172055
498.9592893583948
498.9607548241378
498.96221974889875
498.96368413262724
498.96514797527277
498.96661127678465
498.9680740371126
498.96953625620665
498.97099793401674
498.9724590704931
498.9739196655861
498.9753797192467
498.97683923142597
498.97829820207505
498.9797566311453
498.9812145185882
498.98267186435567
498.9841286683994
498.9855849306713
498.9870406511235
498.9884958297083
498.9899504663782
498.9914045610859
498.99285811378434
498.9943111244264
498.9957635929651
498.9972155193533
498.99866690354395
499.00011774549
499.00156804514484
499.00301780246207
499.0044670173953
499.0059156898984
499.00736381992544
499.0088114074309
499.0102584523696
499.01170495469626
499.0131509143656
499.01459633133265
499.0160412055526
499.01748553698087
499.0189293255729
499.02037257128416
499.02181527407026
499.0232574338869
499.0246990506902
499.02614012443644
499.02758065508226
499.02902064258467
499.0304600869007
499.0318989879876
499.0333373458028
499.03477516030387
499.03621243144823
499.0376491591934
499.0390853434973
499.04052098431805
499.0419560816139
499.04339063534314
499.0448246454645
499.04625811193694
499.0476910347196
499.04912341377155
499.0505552490521
499.05198654052094
499.0534172881379
499.0548474918629
499.0562771516562
499.05770626747824
499.05913483928964
499.0605628670513
499.0619903507244
499.0634172902702
499.0648436856503
499.0662695368268
499.0676948437616
499.0691196064171
499.07054382475565
499.07196749874004
499.0733906283332
499.07481321349803
499.07623525419774
499.0776567503955
499.07907770205463
499.0804981091386
499.0819179716108
499.08333728943455
499.08475606257355
499.0861742909914
499.0875919746521
499.0890091135201
499.09042570756003
499.0918417567369
499.093257261016
499.09467222036244
499.0960866347417
499.09750050411947
499.09891382846183
499.1003266077349
499.10173884190533
499.1031505309396
499.10456167480436
499.10597227346614
499.10738232689175
499.108791835048
499.11020079790217
499.1116092154217
499.1130170875741
499.1144244143269
499.1158311956475
499.11723743150367
499.11864312186356
499.120048266696
499.1214528659701
499.12285691965496
499.12426042771983
499.1256633901345
499.12706580686915
499.12846767789426
499.1298690031805
499.1312697826987
499.1326700164201
499.1340697043162
499.1354688463588
499.13686744251993
499.1382654927719
499.13966299708716
499.14105995543866
499.1424563677998
499.14385223414445
499.1452475544462
499.14664232867915
499.1480365568174
499.1494302388354
499.1508233747078
499.1522159644095
499.15360800791575
499.1549995052018
499.156390456243
499.15778086101534
499.1591707194949
499.1605600316583
499.1619487974823
499.16333701694396
499.16472469002053
499.1661118166895
499.16749839692864
499.1688844307156
499.17026991802834
499.1716548588446
499.1730392531423
499.17442310090007
499.1758064020968
499.1771891567115
499.1785713647238
499.17995302611337
499.18133414086026
499.18271470894445
499.18409473034615
499.1854742050458
499.1868531330241
499.18823151426193
499.1896093487404
499.19098663644115
499.19236337734594
499.1937395714368
499.19511521869583
499.19649031910524
499.19786487264753
499.19923887930565
499.2006123390628
499.20198525190233
499.2033576178079
499.2047294367634
499.20610070875284
499.2074714337608
499.2088416117723
499.2102112427723
499.211580326746
499.2129488636789
499.2143168535566
499.2156842963649
499.21705119208957
499.21841754071704
499.2197833422341
499.2211485966278
499.2225133038852
499.2238774639935
499.2252410769403
499.2266041427132
499.22796666130023
499.22932863268954
499.2306900568693
499.23205093382774
499.2334112635532
499.2347710460343
499.23613028126
499.23748896921927
499.2388471099015
499.2402047032962
499.2415617493933
499.2429182481832
499.24427419965593
499.2456296038023
499.24698446061313
499.2483387700794
499.2496925321924
499.25104574694376
499.2523984143253
499.253750534329
499.25510210694745
499.2564531321733
499.25780360999954
499.25915354041933
499.2605029234263
499.26185175901435
499.2632000471775
499.26454778791015
499.26589498120654
499.267241627061
499.26858772546814
499.26993327642265
499.27127827991956
499.2726227359541
499.27396664452147
499.27531000561737
499.2766528192377
499.2779950853786
499.2793368040367
499.2806779752085
499.28201859889043
499.2833586750793
499.28469820377234
499.28603718496686
499.2873756186601
499.2887135048496
499.2900508435331
499.2913876347087
499.29272387837466
499.29405957452957
499.29539472317254
499.2967293243029
499.29806337792013
499.2993968840241
499.3007298426147
499.30206225369227
499.3033941172574
499.3047254333111
499.3060562018544
499.3073864228887
499.3087160964154
499.3100452224361
499.3113738009523
499.31270183196614
499.31402931547984
499.3153562514957
499.3166826400162
499.3180084810441
499.31933377458233
499.3206585206341
499.32198271920254
499.3233063702911
499.3246294739034
499.32595203004337
499.3272740387148
499.32859549992156
499.329916413668
499.33123677995866
499.33255659879853
499.33387587019286
499.3351945941471
499.3365127706667
499.3378303997573
499.3391474814247
499.34046401567446
499.3417800025128
499.34309544194605
499.3444103339808
499.3457246786239
499.3470384758822
499.3483517257624
499.3496644282717
499.35097658341726
499.35228819120664
499.3535992516473
499.3549097647473
499.3562197305147
499.35752914895795
499.35883802008595
499.3601463439078
499.36145412043254
499.3627613496693
499.36406803162765
499.3653741663171
499.36667975374723
499.3679847939278
499.3692892868688
499.3705932325803
499.3718966310722
499.37319948235483
499.3745017864388
499.3758035433349
499.3771047530539
499.37840541560684
499.3797055310048
499.38100509925914
499.3823041203817
499.38360259438457
499.38490052128
499.38619790108044
499.3874947337987
499.38879101944747
499.39008675803973
499.39138194958866
499.3926765941077
499.3939706916102
499.3952642421099
499.3965572456208
499.39784970215703
499.39914161173294
499.40043297436284
499.40172379006106
499.40301405884236
499.40430378072176
499.40559295571427
499.40688158383534
499.4081696651009
499.4094571995271
499.41074418713026
499.4120306279268
499.4133165219333
499.41460186916686
499.4158866696447
499.4171709233841
499.4184546304026
499.41973779071793
499.42102040434804
499.4223024713109
499.42358399162447
499.4248649653067
499.4261453923756
499.42742527284906
499.4287046067453
499.4299833940828
499.4312616348801
499.43253932915593
499.43381647692934
499.43509307821967
499.43636913304624
499.4376446414284
499.43891960338567
499.4401940189381
499.4414678881059
499.4427412109095
499.4440139873692
499.44528621750544
499.44655790133913
499.44782903889165
499.4490996301846
499.4503696752396
499.4516391740784
499.4529081267232
499.4541765331961
499.45544439351977
499.45671170771686
499.4579784758106
499.45924469782415
499.4605103737812
499.4617755037053
499.46304008762024
499.4643041255496
499.4655676175172
499.466830563547
499.4680929636628
499.46935481788853
499.4706161262483
499.4718768887666
499.473137105468
499.4743967763774
499.4756559015194
499.47691448091916
499.4781725146016
499.47943000259204
499.4806869449159
499.4819433415988
499.4831991926668
499.4844544981462
499.4857092580636
499.48696347244584
499.48821714131975
499.48947026471217
499.49072284265014
499.4919748751612
499.49322636227305
499.4944773040139
499.495727700412
499.49697755149566
499.4982268572936
499.4994756178347
499.50072383314784
499.5019715032621
499.5032186282066
499.5044652080104
499.5057112427029
499.50695673231337
499.5082016768712
499.5094460764059
499.5106899309475
499.511933240526
499.51317600517166
499.51441822491495
499.51565989978656
499.5169010298172
499.51814161503773
499.51938165547915
499.52062115117235
499.52186010214825
499.523098508438
499.524336370073
499.5255736870846
499.5268104595044
499.5280466873645
499.5292823706974
499.5305175095358
499.53175210391294
499.5329861538622
499.53421965941754
499.5354526206128
499.536685037482
499.5379169100596
499.5391482383799
499.54037902247717
499.54160926238626
499.54283895814217
499.5440681097799
499.54529671733474
499.5465247808421
499.5477523003377
499.5489792758575
499.55020570743784
499.5514315951151
499.5526569389257
499.55388173890594
499.5551059950925
499.5563297075224
499.557552876233
499.5587755012617
499.55999758264636
499.5612191204249
499.5624401146355
499.5636605653166
499.5648804725066
499.566099836244
499.5673186565674
499.5685369335157
499.569754667128
499.5709718574434
499.57218850450124
499.5734046083413
499.5746201690039
499.57583518652916
499.57704966095787
499.5782635923307
499.5794769806888
499.58068982607335
499.5819021285257
499.58311388808727
499.58432510479986
499.5855357787058
499.5867459098473
499.58795549826675
499.5891645440064
499.590373047109
499.5915810076175
499.5927884255749
499.5939953010246
499.5952016340103
499.5964074245759
499.5976126727652
499.5988173786226
499.6000215421924
499.60122516351873
499.6024282426457
499.6036307796177
499.6048327744792
499.60603422727525
499.6072351380511
499.6084355068523
499.60963533372444
499.6108346187133
499.6120333618645
499.6132315632241
499.6144292228381
499.61562634075256
499.6168229170138
499.61801895166843
499.6192144447633
499.6204093963455
499.62160380646253
499.62279767516213
499.62399100249206
499.6251837885003
499.62637603323503
499.62756773674494
499.6287588990789
499.62994952028623
499.63113960041653
499.6323291395196
499.6335181376454
499.63470659484403
499.6358945111657
499.6370818866609
499.6382687213803
499.63945501537466
499.6406407686951
499.641825981393
499.64301065352004
499.64419478512775
499.64537837626824
499.64656142699357
499.64774393735604
499.64892590740817
499.6501073372027
499.6512882267929
499.6524685762323
499.6536483855747
499.65482765487366
499.6560063841829
499.6571845735565
499.6583622230486
499.6595393327133
499.6607159026049
499.6618919327781
499.66306742328754
499.66424237418835
499.66541678553597
499.6665906573861
499.6677639897945
499.668936782817
499.67010903650964
499.67128075092876
499.672451926131
499.67362256217314
499.67479265911254
499.6759622170067
499.6771312359134
499.67829971589015
499.6794676569949
499.6806350592859
499.6818019228218
499.68296824766196
499.6841340338657
499.6852992814926
499.6864639906024
499.68762816125525
499.6887917935113
499.6899548874311
499.6911174430753
499.6922794605049
499.6934409397812
499.6946018809657
499.69576228411995
499.69692214930603
499.698081476586
499.69924026602246
499.7003985176783
499.7015562316168
499.70271340790134
499.7038700465956
499.70502614776353
499.7061817114694
499.70733673777806
499.7084912267543
499.7096451784629
499.7107985929689
499.71195147033734
499.71310381063324
499.7142556139221
499.71540688026937
499.7165576097408
499.7177078024025
499.71885745832117
499.7200065775636
499.7211551601969
499.72230320628853
499.7234507159063
499.72459768911824
499.72574412599204
499.7268900265959
499.7280353909981
499.72918021926705
499.73032451147117
499.7314682676789
499.73261148795916
499.7337541723808
499.734896321013
499.73603793392533
499.7371790111873
499.7383195528686
499.73945955903866
499.7405990297676
499.74173796512616
499.74287636518477
499.74401423001416
499.74515155968527
499.74628835426904
499.74742461383664
499.7485603384597
499.74969552821005
499.7508301831598
499.7519643033812
499.75309788894685
499.75423093992947
499.75536345640205
499.7564954384378
499.7576268861104
499.75875779949354
499.75988817866084
499.76101802368623
499.76214733464406
499.76327611160866
499.7644043546544
499.7655320638561
499.7666592392885
499.7677858810267
499.768911989146
499.77003756372153
499.77116260482865
499.7722871125426
499.77341108693884
499.7745345280931
499.77565743608136
499.7767798109795
499.77790165286353
499.7790229618098
499.7801437378947
499.78126398119514
499.78238369178814
499.78350286975103
499.7846215151616
499.78573962809776
499.7868572086378
499.7879742568599
499.78909077284277
499.7902067566655
499.7913222084077
499.79243712814934
499.79355151597076
499.7946653719524
499.7957786961748
499.79689148871887
499.798003749666
499.7991154790976
499.80022667709557
499.8013373437419
499.80244747911877
499.80355708330796
499.8046661563916
499.8057746984517
499.80688270957046
499.80799018982987
499.80909713931226
499.81020355809994
499.81130944627546
499.8124148039218
499.8135196311222
499.81462392796004
499.81572769451884
499.8168309308825
499.81793363713507
499.819035813361
499.8201374596448
499.8212385760711
499.8223391627249
499.8234392196915
499.8245387470562
499.8256377449044
499.82673621332185
499.8278341523943
499.8289315622077
499.83002844284795
499.83112479440103
499.83222061695335
499.8333159105915
499.8344106754024
499.8355049114733
499.83659861889134
499.8376917977438
499.83878444811796
499.8398765701012
499.8409681637812
499.84205922924605
499.84314976658413
499.8442397758839
499.8453292572343
499.846418210724
499.84750663644184
499.8485945344768
499.84968190491793
499.8507687478549
499.85185506337746
499.85294085157545
499.8540261125389
499.8551108463581
499.85619505312354
499.8572787329259
499.8583618858564
499.85944451200646
499.86052661146744
499.861608184331
499.86268923068917
499.86376975063456
499.86484974426014
499.8659292116589
499.8670081529241
499.8680865681491
499.8691644574279
499.87024182085486
499.8713186585245
499.8723949705317
499.8734707569714
499.87454601793877
499.875620753529
499.87669496383785
499.8777686489615
499.8788418089963
499.8799144440387
499.8809865541856
499.882058139534
499.8831292001811
499.8841997362241
499.8852697477606
499.8863392348884
499.88740819770544
499.88847663631
499.8895445508002
499.8906119412744
499.891678807831
499.89274515056843
499.89381096958493
499.89487626497896
499.89594103684897
499.89700528529363
499.8980690104121
499.8991322123037
499.9001948910678
499.90125704680406
499.902318679612
499.90337978959144
499.90444037684244
499.9055004414653
499.9065599835602
499.907619003228
499.90867750056975
499.90973547568694
499.91079292868096
499.91184985965344
499.9129062687065
499.91396215594216
499.9150175214628
499.9160723653712
499.9171266877705
499.9181804887643
499.9192337684559
499.92028652694887
499.92133876434684
499.9223904807535
499.9234416762728
499.9244923510088
499.9255425050659
499.9265921385487
499.927641251562
499.9286898442109
499.92973791660086
499.9307854688378
499.931832501028
499.93287901327756
499.9339250056929
499.93497047838093
499.9360154314487
499.9370598650038
499.9381037791537
499.93914717400605
499.94019004966856
499.941232406249
499.9422742438554
499.9433155625958
499.94435636257833
499.9453966439115
499.9464364067038
499.9474756510639
499.9485143771009
499.94955258492416
499.95059027464333
499.9516274463682
499.9526641002086
499.95370023627436
499.9547358546753
499.9557709555212
499.9568055389219
499.9578396049877
499.9588731538289
499.9599061855562
499.96093870028074
499.96197069811376
499.96300217916666
499.9640331435513
499.9650635913796
499.9660935227638
499.9671229378165
499.96815183665046
499.9691802193789
499.97020808611535
499.9712354369734
499.97226227206727
499.97328859151105
499.9743143954189
499.97533968390496
499.97636445708383
499.97738871507033
499.9784124579793
499.9794356859255
499.98045839902386
499.9814805973891
499.98250228113636
499.98352345038086
499.98454410523766
499.9855642458223
499.98658387225043
499.98760298463765
499.9886215830994
499.98963966775125
499.9906572387091
499.9916742960887
499.9926908400058
499.99370687057615
499.99472238791543
499.99573739213963
499.99675188336516
499.9977658617087
499.9987793272868
499.9997922802164
500.0008047206144
500.0018166485976
500.0028280642831
500.00383896778806
500.0048493592295
500.0058592387246
500.00686860639064
500.00787746234494
500.0088858067048
500.00989363958786
500.0109009611118
500.0119077713947
500.01291407055453
500.01391985870976
500.01492513597907
500.01592990248116
500.0169341583347
500.01793790365844
500.0189411385712
500.0199438631922
500.0209460776406
500.0219477820357
500.02294897649733
500.0239496611456
500.024949836101
500.0259495014842
500.02694865741626
500.02794730401786
500.02894544141
500.029943069714
500.03094018905165
500.03193679954495
500.03293290131626
500.03392849448835
500.03492357918424
500.03591815552693
500.03691222363966
500.03790578364567
500.0388988356684
500.0398913798316
500.04088341625913
500.04187494507516
500.04286596640384
500.0438564803695
500.04484648709706
500.04583598671127
500.0468249793372
500.0478134650999
500.0488014441245
500.04978891653593
500.05077588245933
500.05176234201974
500.05274829534267
500.0537337425536
500.0547186837781
500.0557031191414
500.0566870487693
500.05767047278744
500.0586533913216
500.0596358044978
500.06061771244197
500.06159911528005
500.06258001313824
500.063560406143
500.0645402944207
500.06551967809753
500.06649855729995
500.0674769321546
500.0684548027881
500.0694321693271
500.0704090318983
500.07138539062873
500.07236124564554
500.07333659707604
500.07431144504756
500.0752857896874
500.076259631123
500.07723296948177
500.0782058048916
500.0791781374804
500.08014996737677
500.0811212947093
500.08209211960695
500.08306244219887
500.0840322626144
500.0850015809832
500.0859703974353
500.08693871210073
500.0879065251096
500.0888738365919
500.08984064667777
500.09080695549767
500.0917727631821
500.09273806986164
500.09370287566696
500.09466718072883
500.0956309851782
500.09659428914586
500.0975570927625
500.0985193961593
500.0994811994675
500.1004425028183
500.10140330634306
500.1023636101737
500.10332341444234
500.1042827192813
500.1052415248229
500.10619983119966
500.10715763854444
500.10811494699
500.1090717566691
500.11002806771455
500.11098388025914
500.1119391944354
500.11289401037595
500.1138483282135
500.11480214808114
500.11575547011205
500.1167082944397
500.11766062119784
500.11861245052035
500.11956378254115
500.12051461739395
500.12146495521245
500.12241479613033
500.1233641402813
500.12431298779927
500.1252613388184
500.1262091934731
500.1271565518979
500.12810341422767
500.1290497805977
500.1299956511433
500.13094102599973
500.1318859053023
500.13283028918624
500.13377417778713
500.1347175712407
500.13566046968265
500.13660287324876
500.13754478207477
500.1384861962964
500.13942711604966
500.1403675414707
500.141307472696
500.1422469098619
500.1431858531049
500.1441243025614
500.14506225836783
500.1459997206606
500.1469366895766
500.1478731652529
500.1488091478269
500.1497446374359
500.15067963421745
500.1516141383096
500.15254814985053
500.15348166897877
500.154414695833
500.15534723055237
500.156279273276
500.15721082414336
500.158141883294
500.15907245086794
500.1600025270053
500.16093211184636
500.1618612055314
500.16278980820096
500.1637179199955
500.16464554105585
500.1655726715229
500.1664993115379
500.16742546124203
500.1683511207767
500.16927629028385
500.1702009699055
500.17112515978386
500.1720488600612
500.17297207087984
500.17389479238216
500.1748170247105
500.17573876800736
500.1766600224156
500.177580788078
500.17850106513754
500.17942085373727
500.1803401540204
500.1812589661307
500.1821772902123
500.18309512640906
500.1840124748652
500.1849293357251
500.1858457091331
500.1867615952341
500.1876769941731
500.1885919060952
500.1895063311455
500.190420269469
500.191333721211
500.192246686517
500.1931591655326
500.1940711584035
500.1949826652759
500.1958936862965
500.19680422161207
500.1977142713698
500.19862383571706
500.19953291480135
500.20044150877004
500.2013496177707
500.2022572419513
500.20316438145994
500.20407103644504
500.2049772070553
500.2058828934397
500.20678809574713
500.2076928141265
500.2085970487266
500.20950079969623
500.2104040671842
500.21130685133915
500.2122091523098
500.21311097024534
500.2140123052951
500.2149131576085
500.2158135273354
500.21671341462604
500.21761281963074
500.2185117425
500.2194101833844
500.2203081424344
500.22120561980057
500.2221026156336
500.2229991300843
500.2238951633036
500.22479071544274
500.2256857866531
500.22658037708595
500.2274744868927
500.22836811622494
500.22926126523464
500.2301539340741
500.2310461228957
500.23193783185195
500.2328290610957
500.2337198107797
500.2346100810572
500.2354998720815
500.2363891840058
500.2372780169834
500.2381663711675
500.2390542467116
500.2399416437694
500.2408285624948
500.24171500304203
500.2426009655652
500.24348645021826
500.2443714571549
500.2452559865293
500.2461400384958
500.2470236132091
500.24790671082394
500.24878933149523
500.2496714753778
500.2505531426265
500.2514343333961
500.2523150478413
500.2531952861169
500.2540750483778
500.254954334779
500.25583314547555
500.2567114806228
500.2575893403763
500.25846672489126
500.2593436343233
500.26022006882783
500.26109602856025
500.2619715136758
500.26284652433003
500.26372106067845
500.2645951228768
500.2654687110811
500.2663418254475
500.26721446613226
500.26808663329155
500.2689583270816
500.26982954765856
500.2707002951789
500.2715705697991
500.27244037167554
500.2733097009649
500.2741785578238
500.27504694240895
500.275914854877
500.2767822953848
500.2776492640895
500.27851576114847
500.2793817867192
500.28024734095936
500.28111242402645
500.28197703607805
500.28284117727196
500.28370484776644
500.28456804772
500.285430777291
500.2862930366383
500.28715482592077
500.2880161452973
500.28887699492714
500.2897373749694
500.2905972855832
500.2914567269278
500.29231569916226
500.29317420244604
500.29403223693873
500.29488980279996
500.29574690018956
500.2966035292676
500.29745969019416
500.2983153831291
500.299170608232
500.3000253656627
500.3008796555813
500.30173347814764
500.302586833522
500.30343972186495
500.30429214333697
500.30514409809905
500.3059955863124
500.30684660813847
500.3076971637387
500.3085472532747
500.3093968769084
500.3102460348017
500.3110947271165
500.3119429540151
500.31279071566007
500.313638012214
500.3144848438395
500.3153312106996
500.31617711295723
500.3170225507753
500.31786752431674
500.3187120337449
500.31955607922293
500.3203996609142
500.3212427789821
500.32208543359036
500.32292762490295
500.323769353084
500.3246106182979
500.3254514207091
500.3262917604819
500.3271316377808
500.32797105277007
500.3288100056144
500.3296484964784
500.3304865255267
500.33132409292386
500.3321611988348
500.3329978434243
500.3338340268573
500.33466974929854
500.3355050109127
500.3363398118644
500.3371741523182
500.338008032439
500.3388414523919
500.3396744123419
500.3405069124541
500.3413389528938
500.3421705338261
500.34300165541606
500.34383231782874
500.344662521229
500.3454922657819
500.34632155165275
500.34715037900685
500.3479787480097
500.34880665882713
500.34963411162505
500.35046110656947
500.35128764382637
500.35211372356196
500.35293934594245
500.35376451113405
500.3545892193034
500.35541347061724
500.35623726524216
500.35706060334485
500.3578834850922
500.3587059106511
500.35952788018847
500.36034939387093
500.3611704518652
500.3619910543381
500.3628112014568
500.36363089338863
500.3644501303012
500.36526891236224
500.36608723973984
500.366905112602
500.367722531117
500.3685394954533
500.3693560057794
500.37017206226426
500.37098766507677
500.3718028143861
500.3726175103617
500.3734317531729
500.37424554298934
500.37505887998066
500.3758717643167
500.3766841961673
500.3774961757025
500.3783077030927
500.3791187785083
500.3799294021204
500.38073957409995
500.3815492946179
500.3823585638455
500.3831673819542
500.38397574911585
500.38478366550237
500.3855911312854
500.38639814663713
500.3872047117294
500.3880108267339
500.38881649182247
500.38962170716684
500.39042647293866
500.39123078931004
500.3920346564531
500.39283807454024
500.39364104374397
500.3944435642369
500.3952456361916
500.39604725978063
500.3968484351766
500.39764916255206
500.3984494420798
500.3992492739327
500.4000486582835
500.4008475953052
500.40164608517114
500.4024441280543
500.4032417241277
500.4040388735647
500.4048355765384
500.4056318332224
500.40642764379015
500.4072230084154
500.40801792727177
500.4088124005333
500.4096064283739
500.41040001096746
500.4111931484882
500.4119858411103
500.41277808900793
500.41356989235567
500.4143612513284
500.41515216610094
500.4159426368486
500.41673266374676
500.41752224697063
500.4183113866958
500.419100083098
500.419888336353
500.42067614663654
500.4214635141242
500.42225043899145
500.4230369214139
500.423822961567
500.42460855962656
500.42539371576856
500.4261784301692
500.4269627030052
500.4277465344534
500.4285299246909
500.4293128738951
500.4300953822434
500.4308774499133
500.4316590770826
500.4324402639296
500.433221010633
500.4340013173718
500.43478118432483
500.4355606116716
500.4363395995914
500.4371181482635
500.43789625786724
500.43867392858203
500.43945116058774
500.4402279540642
500.4410043091915
500.4417802261497
500.4425557051194
500.44333074628105
500.444105349815
500.4448795159018
500.4456532447224
500.44642653645826
500.44719939129106
500.4479718094027
500.44874379097485
500.44951533618894
500.4502864452264
500.4510571182685
500.4518273554967
500.4525971570923
500.4533665232369
500.4541354541119
500.45490394989895
500.4556720107795
500.456439636935
500.45720682854665
500.4579735857959
500.45873990886446
500.4595057979342
500.460271253187
500.46103627480454
500.46180086296874
500.4625650178617
500.46332873966605
500.4640920285643
500.46485488473934
500.46561730837414
500.46637929965175
500.467140858755
500.46790198586643
500.46866268116867
500.4694229448445
500.47018277707673
500.4709421780482
500.47170114794164
500.4724596869397
500.47321779522497
500.4739754729802
500.47473272038826
500.4754895376319
500.4762459248942
500.4770018823582
500.4777574102071
500.478512508624
500.47926717779217
500.4800214178948
500.48077522911524
500.4815286116369
500.48228156564335
500.483034091318
500.4837861888444
500.48453785840627
500.4852891001873
500.48603991437164
500.4867903011435
500.48754026068684
500.48828979318534
500.48903889882274
500.489787577783
500.49053583025
500.49128365640775
500.4920310564404
500.49277803053235
500.49352457886846
500.4942707016336
500.49501639901257
500.4957616711905
500.4965065183527
500.4972509406847
500.4979949383718
500.4987385115991
500.49948166055185
500.50022438541566
500.5009666863763
500.50170856361945
500.50245001733117
500.50319104769767
500.50393165490516
500.5046718391401
500.5054116005891
500.50615093943895
500.50688985587647
500.50762835008857
500.5083664222624
500.5091040725853
500.5098413012446
500.5105781084277
500.51131449432194
500.5120504591149
500.5127860029942
500.51352112614734
500.514255828762
500.5149901110259
500.5157239731269
500.5164574152526
500.5171904375908
500.51792304032926
500.51865522365586
500.51938698775837
500.5201183328246
500.5208492590424
500.5215797665993
500.5223098556829
500.52303952648106
500.5237687791815
500.52449761397236
500.5252260310418
500.52595403057796
500.52668161276904
500.5274087778033
500.5281355258693
500.5288618571552
500.5295877718496
500.53031327014094
500.5310383522177
500.5317630182684
500.53248726848153
500.5332111030458
500.53393452215016
500.53465752598356
500.53538011473495
500.5361022885935
500.5368240477486
500.5375453923897
500.53826632270636
500.53898683888826
500.53970694112525
500.54042662960717
500.5411459045239
500.54186476606503
500.54258321442046
500.54330124978003
500.5440188723338
500.5447360822717
500.5454528797835
500.5461692650589
500.5468852382875
500.54760079965934
500.5483159493648
500.5490306875939
500.5497450145366
500.55045893038266
500.551172435322
500.5518855295444
500.5525982132398
500.553310486598
500.5540223498093
500.5547338030643
500.55544484655354
500.5561554804675
500.556865704997
500.557575520333
500.5582849266665
500.5589939241885
500.5597025130902
500.56041069356286
500.5611184657979
500.5618258299868
500.56253278632096
500.56323933499186
500.5639454761912
500.5646512101108
500.5653565369429
500.56606145687977
500.56676597011403
500.5674700768383
500.56817377724485
500.5688770715261
500.56957995987443
500.57028244248215
500.57098451954187
500.5716861912464
500.5723874577885
500.5730883193611
500.5737887761569
500.57448882836877
500.57518847618974
500.57588771981284
500.5765865594311
500.5772849952376
500.5779830274256
500.57868065618857
500.57937788172
500.58007470421364
500.5807711238632
500.5814671408626
500.5821627554061
500.5828579676878
500.5835527779019
500.5842471862426
500.584941192904
500.58563479808015
500.5863280019647
500.58702080475166
500.58771320663493
500.5884052078085
500.5890968084667
500.589788008804
500.5904788090148
500.5911692092933
500.59185920983384
500.59254881083086
500.59323801247876
500.5939268149724
500.5946152185069
500.5953032232775
500.5959908294798
500.5966780373093
500.5973648469618
500.59805125863306
500.5987372725191
500.59942288881587
500.6001081077196
500.6007929294268
500.60147735413386
500.6021613820375
500.60284501333433
500.60352824822087
500.60421108689354
500.6048935295488
500.6055755763831
500.6062572275931
500.6069384833753
500.60761934392633
500.60829980944266
500.6089798801205
500.6096595561563
500.61033883774655
500.61101772508766
500.61169621837587
500.6123743178074
500.61305202357846
500.6137293358855
500.61440625492526
500.61508278089457
500.61575891399036
500.61643465440955
500.617110002349
500.6177849580059
500.6184595215774
500.61913369326055
500.61980747325254
500.6204808617505
500.62115385895174
500.62182646505346
500.622498680253
500.62317050474746
500.62384193873424
500.6245129824107
500.6251836359744
500.62585389962294
500.6265237735537
500.6271932579642
500.62786235305236
500.62853105901615
500.6291993760534
500.6298673043617
500.63053484413865
500.63120199558205
500.63186875888994
500.63253513426014
500.63320112189024
500.6338667219776
500.63453193471935
500.6351967603124
500.63586119895365
500.6365252508398
500.6371889161677
500.6378521951343
500.6385150879365
500.639177594771
500.63983971583446
500.6405014513233
500.641162801434
500.6418237663628
500.64248434630565
500.6431445414586
500.6438043520176
500.64446377817865
500.64512282013754
500.64578147809027
500.6464397522326
500.64709764276006
500.64775514986843
500.6484122737535
500.64906901461075
500.649725372636
500.6503813480248
500.65103694097286
500.6516921516758
500.6523469803293
500.65300142712897
500.65365549227033
500.6543091759487
500.6549624783594
500.6556153996979
500.65626794015964
500.65692009994007
500.657571879235
500.65822327824014
500.65887429715156
500.65952493616544
500.66017519547825
500.6608250752864
500.66147457578643
500.6621236971747
500.6627724396475
500.663420803401
500.6640687886314
500.66471639553527
500.66536362430895
500.66601047514916
500.66665694825235
500.66730304381497
500.66794876203323
500.6685941031036
500.6692390672223
500.66988365458553
500.6705278653898
500.67117169983146
500.6718151581068
500.6724582404123
500.67310094694415
500.6737432778988
500.67438523347266
500.675026813862
500.67566801926284
500.67630884987113
500.6769493058831
500.67758938749523
500.67822909490394
500.6788684283057
500.6795073878967
500.680145973873
500.68078418643074
500.681422025766
500.6820594920745
500.682696585552
500.6833333063943
500.68396965479735
500.684605630957
500.6852412350687
500.68587646732783
500.68651132792945
500.6871458170689
500.68777993494143
500.68841368174265
500.68904705766784
500.6896800629123
500.69031269767163
500.6909449621413
500.69157685651714
500.6922083809949
500.69283953576985
500.6934703210371
500.694100736992
500.69473078382964
500.6953604617448
500.69598977093267
500.6966187115885
500.6972472839078
500.6978754880862
500.69850332431895
500.6991307928016
500.6997578937297
500.70038462729883
500.7010109937045
500.7016369931422
500.7022626258073
500.7028878918949
500.7035127915998
500.7041373251169
500.70476149264084
500.70538529436647
500.70600873048863
500.70663180120243
500.7072545067027
500.70787684718437
500.7084988228422
500.7091204338709
500.7097416804653
500.71036256282025
500.7109830811306
500.71160323559104
500.7122230263964
500.7128424537417
500.7134615178219
500.7140802188318
500.71469855696625
500.7153165324197
500.71593414538677
500.7165513960621
500.71716828464025
500.71778481131616
500.7184009762849
500.71901677974154
500.71963222188117
500.72024730289866
500.7208620229891
500.72147638234753
500.7220903811691
500.72270401964886
500.7233172979817
500.7239302163624
500.7245427749857
500.72515497404595
500.72576681373755
500.7263782942549
500.7269894157922
500.72760017854364
500.7282105827031
500.72882062846463
500.7294303160221
500.73003964556926
500.73064861730006
500.7312572314082
500.73186548808724
500.7324733875304
500.73308092993045
500.7336881154803
500.73429494437244
500.7349014167995
500.7355075329539
500.73611329302787
500.73671869721363
500.7373237457033
500.737928438689
500.73853277636283
500.7391367589172
500.73974038654467
500.7403436594378
500.74094657778903
500.74154914179087
500.7421513516359
500.74275320751656
500.7433547096251
500.7439558581542
500.7445566532964
500.7451570952443
500.74575718419067
500.74635692032814
500.7469563038493
500.7475553349467
500.74815401381295
500.74875234064064
500.7493503156221
500.7499479389495
500.7505452108147
500.75114213140967
500.75173870092647
500.75233491955726
500.75293078749417
500.7535263049298
500.75412147205645
500.7547162890663
500.75531075615174
500.7559048735051
500.7564986413187
500.75709205978467
500.75768512909497
500.75827784944147
500.75887022101585
500.7594622440098
500.760053918615
500.76064524502306
500.7612362234255
500.76182685401375
500.76241713697925
500.76300707251323
500.7635966608069
500.7641859020515
500.76477479643825
500.7653633441581
500.76595154540234
500.7665394003619
500.76712690922784
500.7677140721911
500.7683008894427
500.76888736117337
500.7694734875737
500.77005926883396
500.7706447051445
500.7712297966956
500.77181454367735
500.77239894627985
500.7729830046934
500.77356671910854
500.7741500897156
500.77473311670485
500.77531580026664
500.77589814059127
500.77648013786904
500.7770617922905
500.777643104046
500.77822407332576
500.77880470031994
500.77938498521837
500.7799649282109
500.780544529487
500.7811237892355
500.78170270764565
500.7822812849066
500.78285952120734
500.7834374167368
500.7840149716841
500.7845921862382
500.7851690605879
500.78574559492165
500.7863217894279
500.7868976442952
500.7874731597118
500.78804833586594
500.7886231729457
500.7891976711388
500.78977183063296
500.79034565161544
500.7909191342736
500.79149227879486
500.7920650853665
500.7926375541757
500.79320968540935
500.79378147925433
500.7943529358978
500.7949240555266
500.7954948383277
500.7960652844878
500.796635394193
500.7972051676294
500.7977746049829
500.79834370643937
500.7989124721847
500.799480902405
500.8000489972861
500.80061675701415
500.80118418177506
500.8017512717546
500.8023180271383
500.8028844481113
500.80345053485837
500.8040162875644
500.8045817064145
500.80514679159376
500.805711543287
500.8062759616788
500.8068400469539
500.8074037992968
500.80796721889203
500.80853030592414
500.80909306057777
500.80965548303755
500.8102175734879
500.8107793321127
500.81134075909597
500.8119018546216
500.81246261887384
500.81302305203656
500.8135831542935
500.81414292582815
500.8147023668238
500.8152614774634
500.8158202579301
500.8163787084069
500.8169368290768
500.8174946201226
500.81805208172716
500.81860921407326
500.8191660173437
500.8197224917211
500.820278637388
500.82083445452724
500.8213899433214
500.8219451039532
500.8224999366056
500.8230544414613
500.8236086187029
500.824162468513
500.8247159910742
500.82526918656924
500.825822055181
500.82637459709247
500.8269268124865
500.82747870154583
500.82803026445333
500.828581501392
500.82913241254516
500.829682998096
500.8302332582276
500.8307831931228
500.8313328029643
500.831882087935
500.8324310482179
500.8329796839961
500.8335279954525
500.8340759827703
500.83462364613194
500.83517098571986
500.8357180017164
500.8362646943036
500.8368110636635
500.8373571099779
500.83790283342853
500.8384482341968
500.8389933124637
500.83953806841
500.84008250221643
500.8406266140638
500.84117040413287
500.8417138726039
500.84225701965727
500.842799845473
500.84334235023096
500.843884534111
500.84442639729275
500.84496793995584
500.8455091622801
500.8460500644452
500.8465906466305
500.8471309090154
500.8476708517793
500.8482104751016
500.8487497791617
500.84928876413903
500.84982743021294
500.8503657775626
500.850903806367
500.8514415168046
500.85197890905386
500.85251598329285
500.85305273969936
500.853589178451
500.85412529972507
500.85466110369873
500.8551965905491
500.85573176045307
500.8562666135873
500.85680115012804
500.85733537025123
500.8578692741329
500.858402861949
500.8589361338753
500.8594690900874
500.8600017307605
500.8605340560697
500.86106606619035
500.8615977612975
500.862129141566
500.8626602071703
500.86319095828424
500.8637213950818
500.864251517737
500.8647813264232
500.865310821314
500.8658400025828
500.8663688704029
500.8668974249473
500.86742566638884
500.86795359490054
500.8684812106552
500.86900851382563
500.8695355045844
500.87006218310387
500.87058854955615
500.87111460411313
500.8716403469465
500.8721657782279
500.87269089812855
500.8732157068197
500.873740204472
500.87426439125636
500.8747882673432
500.87531183290287
500.87583508810565
500.8763580331216
500.8768806681204
500.87740299327163
500.8779250087449
500.87844671470964
500.878968111335
500.8794891987899
500.88000997724305
500.88053044686274
500.881050607817
500.8815704602738
500.8820900044012
500.8826092403673
500.88312816834
500.8836467884872
500.88416510097625
500.8846831059742
500.8852008036482
500.8857181941654
500.88623527769244
500.88675205439574
500.8872685244413
500.8877846879951
500.88830054522316
500.88881609629095
500.889331341364
500.8898462806077
500.8903609141872
500.8908752422675
500.89138926501334
500.89190298258916
500.8924163951591
500.89292950288734
500.8934423059378
500.89395480447445
500.89446699866096
500.89497888866083
500.89549047463754
500.89600175675434
500.8965127351745
500.8970234100608
500.8975337815758
500.89804384988213
500.89855361514185
500.89906307751687
500.8995722371686
500.9000810942581
500.90058964894627
500.9010979013934
500.90160585175965
500.90211350020456
500.90262084688754
500.903127891968
500.9036346356055
500.9041410779595
500.9046472191891
500.9051530594535
500.9056585989116
500.90616383772215
500.9066687760434
500.9071734140333
500.9076777518495
500.9081817896491
500.9086855275892
500.90918896582673
500.90969210451806
500.9101949438194
500.9106974838868
500.9111997248759
500.9117016669421
500.9122033102402
500.9127046549248
500.91320570115033
500.9137064490709
500.91420689884046
500.9147070506127
500.9152069045409
500.91570646077764
500.9162057194752
500.91670468078576
500.9172033448614
500.91770171185397
500.91819978191495
500.91869755519576
500.9191950318476
500.91969221202146
500.9201890958683
500.9206856835391
500.9211819751846
500.9216779709551
500.9221736710009
500.9226690754723
500.9231641845191
500.923658998291
500.92415351693705
500.92464774060625
500.92514166944727
500.92563530360883
500.9261286432394
500.926621688487
500.9271144394992
500.9276068964233
500.9280990594067
500.92859092859646
500.9290825041393
500.9295737861818
500.9300647748704
500.93055547035135
500.9310458727706
500.9315359822739
500.93202579900674
500.93251532311467
500.9330045547432
500.93349349403763
500.93398214114325
500.93447049620534
500.9349585593692
500.9354463307801
500.9359338105834
500.9364209989243
500.93690789594814
500.93739450180044
500.9378808166265
500.9383668405718
500.9388525737819
500.9393380164023
500.9398231685783
500.9403080304552
500.940792602178
500.9412768838919
500.9417608757416
500.942244577872
500.9427279904279
500.9432111135542
500.94369394739545
500.9441764920963
500.9446587478013
500.94514071465517
500.94562239280265
500.9461037823886
500.9465848835579
500.9470656964555
500.9475462212266
500.9480264580162
500.94850640696916
500.94898606823006
500.94946544194306
500.9499445282521
500.9504233273009
500.9509018392331
500.95138006419245
500.95185800232264
500.9523356537669
500.95281301866873
500.9532900971716
500.95376688941894
500.9542433955543
500.95471961572105
500.9551955500625
500.9556711987219
500.9561465618425
500.9566216395675
500.95709643204043
500.9575709394047
500.9580451618036
500.9585190993804
500.9589927522785
500.95946612064165
500.9599392046133
500.9604120043372
500.9608845199567
500.96135675161565
500.9618286994579
500.9623003636274
500.9627717442678
500.96324284152263
500.96371365553534
500.9641841864494
500.9646544344083
500.9651243995555
500.9655940820343
500.96606348198736
500.9665325995576
500.9670014348875
500.96746998811943
500.96793825939596
500.96840624885965
500.9688739566528
500.9693413829176
500.9698085277961
500.97027539143016
500.9707419739617
500.9712082755326
500.97167429628473
500.97214003635975
500.9726054958993
500.9730706750448
500.97353557393774
500.9740001927197
500.97446453153213
500.97492859051647
500.97539236981413
500.9758558695663
500.97631908991445
500.97678203099997
500.97724469296406
500.97770707594793
500.97816918009255
500.97863100553866
500.9790925524268
500.97955382089765
500.9800148110918
500.9804755231495
500.98093595721105
500.98139611341674
500.9818559919066
500.982315592821
500.9827749163004
500.98323396248554
500.9836927315172
500.98415122353583
500.98460943868224
500.9850673770969
500.9855250389204
500.98598242429296
500.98643953335466
500.9868963662458
500.98735292310664
500.98780920407773
500.9882652092996
500.9887209389127
500.98917639305785
500.9896315718755
500.99008647550625
500.9905411040903
500.990995457768
500.99144953667917
500.99190334096363
500.9923568707612
500.99281012621157
500.9932631074538
500.9937158146271
500.99416824787033
500.9946204073225
500.99507229312223
500.9955239054083
500.9959752443193
500.9964263099938
500.99687710257024
500.9973276221871
500.9977778689828
500.9982278430954
500.99867754466266
500.9991269738226
500.9995761307131
501.0000250154718
501.00047362823636
501.0009219691441
501.0013700383321
501.00181783593723
501.0022653620962
501.0027126169456
501.0031596006221
501.0036063132626
501.0040527550037
501.0044989259819
501.0049448263336
501.0053904561952
501.00583581570265
501.00628090499174
501.0067257241982
501.0071702734573
501.00761455290433
501.0080585626746
501.00850230290337
501.0089457737257
501.0093889752769
501.0098319076923
501.01027457110706
501.01071696565634
501.01115909147495
501.0116009486975
501.0120425374588
501.01248385789347
501.0129249101361
501.0133656943211
501.0138062105831
501.01424645905684
501.01468643987744
501.0151261531797
501.0155655990985
501.01600477776844
501.0164436893243
501.0168823339012
501.01732071163417
501.01775882265827
501.01819666710855
501.0186342451203
501.01907155682864
501.01950860236855
501.01994538187535
501.0203818954841
501.02081814332985
501.02125412554744
501.02168984227194
501.0221252936384
501.0225604797821
501.02299540083834
501.0234300569424
501.0238644482298
501.0242985748363
501.0247324368978
501.02516603455035
501.0255993679299
501.02603243717215
501.0264652424129
501.02689778378783
501.0273300614325
501.0277620754824
501.0281938260731
501.02862531333983
501.0290565374181
501.0294874984435
501.0299181965512
501.03034863187656
501.03077880455464
501.0312087147207
501.0316383625103
501.0320677480587
501.03249687150094
501.03292573297165
501.0333543326052
501.0337826705362
501.03421074689925
501.03463856182873
501.035066115459
501.03549340792426
501.03592043935816
501.0363472098942
501.0367737196656
501.03719996880534
501.03762595744627
501.03805168572114
501.03847715376276
501.0389023617039
501.03932730967733
501.03975199781564
501.0401764262516
501.0406005951178
501.0410245045465
501.0414481546701
501.0418715456209
501.042294677531
501.0427175505323
501.0431401647569
501.04356252033665
501.0439846174032
501.04440645608804
501.0448280365225
501.0452493588381
501.0456704231659
501.0460912296372
501.046511778383
501.04693206953414
501.04735210322144
501.0477718795754
501.04819139872654
501.0486106608049
501.04902966594034
501.04944841426266
501.0498669059017
501.0502851409873
501.05070311964926
501.0511208420172
501.05153830822076
501.0519555183895
501.052372472653
501.05278917114094
501.05320561398287
501.0536218013084
501.0540377332469
501.05445340992753
501.0548688314792
501.05528399803086
501.0556989097114
501.05611356664974
501.0565279689748
501.0569421168153
501.05735601029994
501.0577696495569
501.0581830347145
501.05859616590067
501.05900904324346
501.0594216668709
501.05983403691096
501.0602461534919
501.06065801674174
501.06106962678825
501.0614809837592
501.06189208778244
501.0623029389859
501.06271353749787
501.06312388344634
501.0635339769591
501.0639438181639
501.0643534071886
501.0647627441607
501.06517182920754
501.0655806624567
501.0659892440359
501.0663975740732
501.0668056526962
501.06721348003214
501.0676210562086
501.06802838135343
501.06843545559457
501.06884227906005
501.06924885187766
501.0696551741752
501.0700612460802
501.07046706771973
501.07087263922074
501.07127796071006
501.0716830323146
501.07208785416094
501.0724924263758
501.072896749086
501.0733008224182
501.07370464649887
501.07410822145414
501.07451154741
501.0749146244924
501.07531745282733
501.07572003254074
501.0761223637586
501.07652444660687
501.0769262812113
501.0773278676976
501.0777292061915
501.0781302968186
501.07853113970407
501.07893173497325
501.0793320827514
501.0797321831636
501.08013203633493
501.0805316423904
501.08093100145504
501.0813301136535
501.0817289791104
501.08212759795026
501.08252597029775
501.08292409627745
501.08332197601396
501.0837196096319
501.0841169972556
501.084514139009
501.08491103501603
501.0853076854006
501.08570409028687
501.08610024979873
501.0864961640599
501.0868918331938
501.08728725732396
501.087682436574
501.0880773710677
501.08847206092844
501.0888665062797
501.08926070724476
501.0896546639466
501.0900483765082
501.0904418450524
501.0908350697017
501.0912280505785
501.09162078780525
501.09201328150436
501.09240553179814
501.09279753880844
501.0931893026567
501.0935808234643
501.0939721013525
501.09436313644244
501.09475392885554
501.0951444787132
501.0955347861367
501.0959248512471
501.09631467416546
501.0967042550129
501.0970935939107
501.0974826909802
501.0978715463424
501.098260160118
501.0986485324273
501.0990366633904
501.09942455312705
501.0998122017571
501.1001996094004
501.100586776177
501.10097370220717
501.10136038761095
501.1017468325084
501.10213303701937
501.10251900126343
501.1029047253602
501.10329020942925
501.1036754535902
501.1040604579624
501.10444522266505
501.104829747817
501.105214033537
501.1055980799439
501.1059818871564
501.1063654552935
501.1067487844738
501.10713187481576
501.1075147264381
501.10789733945956
501.1082797139983
501.1086618501728
501.1090437481015
501.1094254079029
501.10980682969546
501.1101880135976
501.11056895972763
501.1109496682037
501.1113301391441
501.11171037266683
501.1120903688899
501.11247012793126
501.1128496499085
501.113228934939
501.11360798313956
501.11398679462684
501.11436536951726
501.114743707927
501.11512180997204
501.1154996757681
501.1158773054309
501.11625469907597
501.1166318568188
501.1170087787749
501.1173854650598
501.1177619157887
501.11813813107653
501.11851411103805
501.11888985578787
501.11926536544036
501.1196406401099
501.1200156799106
501.1203904849566
501.1207650553621
501.1211393912412
501.12151349270823
501.1218873598774
501.12226099286283
501.12263439177843
501.1230075567381
501.1233804878558
501.12375318524516
501.1241256490199
501.1244978792935
501.1248698761791
501.1252416397898
501.12561317023835
501.1259844676373
501.12635553209896
501.12672636373543
501.1270969626586
501.1274673289803
501.1278374628122
501.1282073642659
501.12857703345287
501.1289464704847
501.12931567547287
501.1296846485287
501.1300533897635
501.13042189928854
501.1307901772153
501.13115822365523
501.13152603871947
501.131893622519
501.13226097516474
501.13262809676746
501.13299498743766
501.1333616472856
501.13372807642133
501.1340942749547
501.1344602429955
501.1348259806533
501.1351914880378
501.13555676525823
501.1359218124236
501.13628662964254
501.13665121702377
501.13701557467573
501.1373797027069
501.1377436012257
501.1381072703406
501.13847071016005
501.1388339207923
501.1391969023456
501.1395596549279
501.1399221786472
501.14028447361136
501.14064653992784
501.141008377704
501.1413699870467
501.14173136806255
501.1420925208582
501.1424534455401
501.14281414221466
501.143174610988
501.1435348519659
501.1438948652541
501.14425465095803
501.14461420918303
501.14497354003436
501.14533264361705
501.14569152003617
501.1460501693963
501.1464085918018
501.146766787357
501.14712475616636
501.14748249833394
501.1478400139639
501.1481973031599
501.1485543660252
501.1489112026628
501.1492678131757
501.14962419766664
501.1499803562384
501.15033628899334
501.15069199603374
501.1510474774617
501.1514027333793
501.15175776388844
501.15211256909095
501.1524671490887
501.15282150398355
501.15317563387714
501.1535295388709
501.15388321906573
501.1542366745624
501.1545899054614
501.15494291186326
501.15529569386797
501.1556482515756
501.1560005850862
501.1563526944998
501.1567045799162
501.15705624143527
501.1574076791568
501.1577588931806
501.15810988360624
501.15846065053336
501.1588111940613
501.15916151428917
501.15951161131613
501.1598614852411
501.16021113616273
501.1605605641795
501.1609097693896
501.16125875189084
501.16160751178074
501.16195604915663
501.1623043641156
501.16265245675424
501.163000327169
501.1633479754561
501.1636954017114
501.1640426060309
501.16438958851006
501.1647363492442
501.1650828883286
501.16542920585846
501.1657753019289
501.1661211766349
501.1664668300715
501.16681226233334
501.1671574735152
501.1675024637117
501.16784723301714
501.1681917815255
501.1685361093304
501.16888021652505
501.1692241032025
501.1695677694555
501.1699112153766
501.1702544410583
501.1705974465932
501.17094023207335
501.1712827975904
501.1716251432357
501.17196726910026
501.17230917527456
501.1726508618491
501.1729923289141
501.17333357655946
501.1736746048747
501.17401541394895
501.1743560038707
501.1746963747281
501.175036526609
501.17537645960135
501.1757161737929
501.176055669271
501.17639494612274
501.1767340044347
501.17707284429355
501.17741146578544
501.1777498689961
501.178088054011
501.1784260209155
501.1787637697945
501.1791013007331
501.17943861381616
501.1797757091284
501.1801125867545
501.1804492467787
501.180785689285
501.18112191435705
501.1814579220785
501.1817937125328
501.18212928580294
501.1824646419717
501.18279978112184
501.1831347033361
501.18346940869685
501.1838038972859
501.1841381691846
501.18447222447423
501.18480606323567
501.18513968554964
501.18547309149665
501.18580628115694
501.18613925461057
501.18647201193755
501.18680455321794
501.1871368785313
501.1874689879568
501.187800881573
501.1881325594585
501.1884640216912
501.1887952683486
501.18912629950785
501.18945711524555
501.1897877156383
501.1901181007628
501.19044827069513
501.1907782255115
501.1911079652881
501.19143749010084
501.19176680002545
501.1920958951374
501.192424775512
501.1927534412242
501.1930818923489
501.1934101289604
501.19373815113306
501.194065958941
501.19439355245834
501.1947209317592
501.19504809691796
501.1953750480087
501.19570178510537
501.1960283082816
501.19635461761106
501.196680713167
501.19700659502234
501.1973322632499
501.1976577179222
501.19798295911176
501.1983079868909
501.19863280133166
501.19895740250615
501.19928179048645
501.1996059653444
501.19992992715186
501.20025367598043
501.2005772119013
501.2009005349854
501.2012236453037
501.2015465429264
501.2018692279238
501.2021917003657
501.20251396032165
501.20283600786126
501.2031578430539
501.2034794659689
501.20380087667553
501.20412207524276
501.2044430617397
501.2047638362355
501.20508439879944
501.20540474950093
501.2057248884093
501.2060448155939
501.20636453112405
501.2066840350694
501.2070033274994
501.20732240848355
501.2076412780911
501.20795993639143
501.2082783834541
501.2085966193492
501.2089146441469
501.2092324579175
501.20955006073103
501.2098674526573
501.2101846337666
501.21050160412955
501.21081836381694
501.2111349128997
501.2114512514485
501.21176737953414
501.21208329722725
501.2123990045988
501.21271450171974
501.21302978866123
501.2133448654942
501.2136597322896
501.2139743891184
501.2142888360517
501.2146030731605
501.21491710051595
501.21523091818943
501.21554452625236
501.2158579247761
501.21617111383233
501.21648409349285
501.21679686382976
501.2171094249149
501.2174217768201
501.2177339196175
501.2180458533791
501.2183575781773
501.2186690940843
501.2189804011725
501.2192914995141
501.2196023891817
501.21991307024786
501.2202235427853
501.22053380686674
501.220843862565
501.22115370995283
501.221463349103
501.22177278008843
501.2220820029822
501.2223910178572
501.2226998247865
501.2230084238433
501.22331681510076
501.2236249986324
501.22393297451157
501.224240742812
501.22454830360715
501.22485565697065
501.2251628029764
501.2254697416983
501.2257764732107
501.2260829975882
501.22638931490536
501.22669542523676
501.22700132865697
501.2273070252406
501.22761251506216
501.2279177981963
501.2282228747176
501.22852774470033
501.22883240821915
501.2291368653484
501.2294411161624
501.2297451607355
501.2300489991423
501.2303526314576
501.2306560577562
501.23095927811295
501.2312622926026
501.23156510129974
501.2318677042792
501.23217010161596
501.2324722933849
501.23277427966076
501.2330760605184
501.2333776360328
501.2336790062795
501.23398017133394
501.23428113127187
501.23458188616877
501.23488243610035
501.23518278114256
501.2354829213711
501.2357828568617
501.2360825876901
501.2363821139317
501.2366814356621
501.23698055295716
501.2372794658931
501.23757817454583
501.2378766789913
501.2381749793057
501.23847307556497
501.238770967845
501.23906865622206
501.23936614077246
501.2396634215724
501.2399604986978
501.2402573722247
501.24055404222935
501.24085050878847
501.24114677197866
501.2414428318768
501.2417386885597
501.24203434210466
501.24232979258903
501.2426250400901
501.2429200846854
501.2432149264527
501.24350956547
501.24380400181525
501.2440982355667
501.2443922668028
501.24468609560193
501.2449797220426
501.2452731462035
501.2455663681632
501.2458593880005
501.2461522057942
501.24644482162347
501.2467372355672
501.2470294477043
501.2473214581136
501.2476132668741
501.2479048740649
501.2481962797653
501.2484874840547
501.24877848701243
501.24906928871764
501.2493598892492
501.2496502886858
501.24994048710613
501.2502304845888
501.2505202812128
501.25080987705695
501.2510992722004
501.2513884667223
501.25167746070196
501.25196625421876
501.2522548473525
501.25254324018323
501.25283143279097
501.25311942525576
501.25340721765787
501.2536948100778
501.25398220259643
501.25426939529524
501.2545563882558
501.25484318156003
501.25512977528973
501.255416169527
501.2557023643539
501.25598835985255
501.256274156105
501.25655975319336
501.25684515119946
501.25713035020516
501.25741535029255
501.2577001515437
501.2579847540407
501.2582691578654
501.2585533630997
501.25883736982536
501.25912117812453
501.2594047880793
501.2596881997717
501.25997141328406
501.2602544286987
501.2605372460982
501.26081986556545
501.2611022871835
501.2613845110354
501.261666537204
501.2619483657722
501.26222999682267
501.262511430438
501.2627926667007
501.26307370569333
501.26335454749864
501.2636351921994
501.2639156398781
501.2641958906174
501.2644759444999
501.2647558016085
501.2650354620261
501.265314925836
501.26559419312156
501.2658732639665
501.26615213845474
501.2664308166704
501.2667092986978
501.26698758462106
501.26726567452437
501.2675435684918
501.26782126660754
501.2680987689559
501.26837607562123
501.2686531866879
501.2689301022405
501.2692068223634
501.2694833471409
501.26975967665766
501.2700358109984
501.270311750248
501.2705874944915
501.2708630438139
501.2711383983007
501.27141355803764
501.27168852311064
501.2719632936059
501.27223786960934
501.27251225120693
501.27278643848484
501.27306043152925
501.2733342304263
501.2736078352622
501.27388124612315
501.2741544630953
501.274427486265
501.2747003157187
501.274972951543
501.2752453938246
501.27551764264985
501.2757896981049
501.276061560276
501.2763332292495
501.27660470511154
501.27687598794836
501.27714707784634
501.2774179748921
501.2776886791723
501.2779591907735
501.2782295097822
501.2784996362847
501.2787695703675
501.27903931211716
501.27930886162034
501.2795782189639
501.27984738423487
501.2801163575204
501.28038513890755
501.2806537284832
501.2809221263339
501.2811903325464
501.281458347207
501.2817261704021
501.2819938022182
501.28226124274164
501.28252849205904
501.28279555025705
501.2830624174223
501.28332909364116
501.2835955790003
501.28386187358655
501.2841279774868
501.28439389078784
501.2846596135766
501.2849251459401
501.2851904879653
501.2854556397389
501.28572060134815
501.28598537288
501.28624995442186
501.286514346061
501.2867785478847
501.28704255998053
501.28730638243604
501.28757001533876
501.287833458776
501.28809671283506
501.28835977760303
501.2886226531668
501.2888853396134
501.28914783703016
501.2894101455042
501.28967226512253
501.28993419597253
501.2901959381415
501.2904574917167
501.29071885678576
501.29098003343637
501.2912410217563
501.2915018218336
501.29176243375645
501.29202285761306
501.29228309349145
501.2925431414796
501.29280300166573
501.2930626741383
501.29332215898575
501.2935814562963
501.29384056615794
501.2940994886589
501.2943582238872
501.2946167719305
501.2948751328767
501.2951333068135
501.29539129382846
501.2956490940093
501.2959067074441
501.296164134221
501.29642137442823
501.29667842815405
501.29693529548666
501.2971919765143
501.29744847132514
501.2977047800077
501.2979609026501
501.2982168393409
501.2984725901683
501.2987281552202
501.2989835345847
501.29923872834996
501.29949373660446
501.29974855943664
501.30000319693494
501.3002576491878
501.3005119162837
501.3007659983111
501.30101989535837
501.3012736075138
501.3015271348656
501.3017804775022
501.30203363551203
501.3022866089836
501.3025393980053
501.3027920026661
501.30304442305504
501.3032966592613
501.3035487113743
501.30380057948327
501.3040522636779
501.3043037640477
501.3045550806825
501.30480621367195
501.3050571631056
501.30530792907297
501.3055585116635
501.3058089109665
501.30605912707114
501.306309160067
501.3065590100436
501.3068086770906
501.307058161298
501.3073074627559
501.3075565815545
501.3078055177843
501.3080542715356
501.3083028428986
501.3085512319639
501.30879943882195
501.30904746356345
501.3092953062791
501.3095429670595
501.30979044599525
501.3100377431769
501.3102848586952
501.3105317926408
501.3107785451045
501.31102511617695
501.3112715059489
501.3115177145111
501.3117637419543
501.3120095883691
501.31225525384656
501.3125007384778
501.31274604235404
501.3129911655664
501.31323610820635
501.31348087036525
501.3137254521345
501.31396985360556
501.31421407487
501.31445811601947
501.31470197714606
501.31494565834186
501.3151891596987
501.3154324813085
501.3156756232633
501.31591858565497
501.31616136857537
501.31640397211635
501.3166463963698
501.31688864142774
501.3171307073821
501.3173725943247
501.3176143023472
501.3178558315414
501.31809718199924
501.31833835381275
501.3185793470738
501.31882016187427
501.319060798306
501.3193012564611
501.3195415364316
501.3197816383096
501.3200215621875
501.3202613081573
501.32050087631086
501.3207402667401
501.32097947953656
501.3212185147917
501.32145737259697
501.3216960530439
501.32193455622445
501.32217288223063
501.322411031155
501.32264900309013
501.32288679812854
501.32312441636276
501.32336185788535
501.32359912278883
501.32383621116554
501.32407312310755
501.32430985870695
501.3245464180556
501.32478280124536
501.32501900836786
501.3252550395145
501.3254908947767
501.32572657424606
501.32596207801424
501.32619740617287
501.32643255881356
501.32666753602797
501.32690233790794
501.32713696454533
501.327371416032
501.32760569246005
501.32783979392156
501.3280737205086
501.32830747231327
501.32854104942766
501.32877445194407
501.3290076799546
501.32924073355156
501.32947361282703
501.32970631787333
501.329938848783
501.3301712056486
501.33040338856284
501.33063539761855
501.33086723290825
501.3310988945245
501.33133038256
501.3315616971078
501.3317928382607
501.3320238061114
501.3322546007525
501.3324852222765
501.33271567077594
501.3329459463436
501.3331760490723
501.3334059790547
501.3336357363839
501.3338653211528
501.3340947334547
501.33432397338305
501.33455304103126
