496.9990388657251
497.00044228139393
497.0018455449434
497.0032486562567
497.00465161521686
497.0060544217073
497.0074570756111
497.00885957681146
497.01026192519146
497.01166412063424
497.0130661630229
497.0144680522411
497.0158697881726
497.0172713707012
497.01867279971077
497.0200740750855
497.02147519670973
497.0228761644677
497.0242769782436
497.02567763792183
497.02707814338703
497.02847849452394
497.0298786912175
497.0312787333527
497.0326786208144
497.03407835348764
497.03547793125733
497.0368773540082
497.0382766216252
497.03967573399325
497.04107469099733
497.0424734925224
497.04387213845337
497.0452706286752
497.0466689630729
497.0480671415313
497.04946516393545
497.05086303017004
497.05226074012
497.05365829367054
497.0550556907068
497.056452931114
497.0578500147773
497.0592469415818
497.06064371141304
497.0620403241563
497.0634367796973
497.0648330779219
497.0662292187161
497.0676252019658
497.0690210275569
497.07041669537523
497.0718122053064
497.0732075572363
497.07460275105075
497.0759977866354
497.07739266387614
497.0787873826588
497.08018194286944
497.0815763443942
497.08297058711935
497.084364670931
497.0857585957152
497.0871523613579
497.08854596774484
497.08993941476217
497.091332702296
497.0927258302323
497.09411879845754
497.0955116068577
497.0969042553187
497.09829674372656
497.0996890719672
497.10108123992643
497.10247324749037
497.10386509454486
497.105256780976
497.1066483066701
497.10803967151344
497.1094308753924
497.11082191819344
497.11221279980316
497.1136035201081
497.11499407899476
497.11638447634994
497.1177747120604
497.11916478601313
497.12055469809536
497.1219444481943
497.123334036197
497.1247234619908
497.12611272546326
497.12750182650177
497.128890764994
497.1302795408275
497.13166815389
497.13305660406957
497.1344448912545
497.1358330153331
497.1372209761938
497.1386087737252
497.13999640781606
497.1413838783552
497.14277118523125
497.144158328333
497.14554530754924
497.1469321227693
497.14831877388235
497.14970526077775
497.1510915833445
497.15247774147167
497.1538637350485
497.1552495639643
497.15663522810803
497.1580207273688
497.15940606163565
497.1607912307978
497.1621762347446
497.1635610733657
497.16494574655087
497.16633025419003
497.16771459617337
497.16909877239107
497.1704827827333
497.17186662709025
497.1732503053523
497.17463381741015
497.1760171631546
497.1774003424765
497.178783355267
497.18016620141736
497.1815488808189
497.182931393363
497.1843137389411
497.18569591744483
497.1870779287659
497.18845977279614
497.18984144942704
497.19122295855016
497.19260430005727
497.19398547384037
497.1953664797917
497.19674731780367
497.198127987769
497.19950848958035
497.20088882313064
497.202268988313
497.20364898502055
497.20502881314644
497.2064084725836
497.2077879632251
497.2091672849641
497.21054643769355
497.2119254213063
497.21330423569555
497.21468288075437
497.21606135637614
497.21743966245424
497.2188177988818
497.2201957655524
497.2215735623598
497.22295118919794
497.2243286459608
497.2257059325426
497.2270830488379
497.22845999474123
497.2298367701468
497.2312133749489
497.23258980904154
497.23396607231905
497.23534216467567
497.2367180860059
497.2380938362045
497.23946941516635
497.2408448227867
497.2422200589607
497.24359512358353
497.2449700165504
497.24634473775643
497.24771928709686
497.24909366446684
497.25046786976156
497.2518419028762
497.2532157637062
497.2545894521471
497.2559629680949
497.25733631144533
497.2587094820941
497.26008247993684
497.26145530486895
497.2628279567858
497.2642004355829
497.2655727411558
497.2669448734001
497.26831683221155
497.26968861748594
497.27106022911914
497.272431667007
497.27380293104545
497.2751740211303
497.2765449371574
497.27791567902284
497.279286246623
497.2806566398541
497.2820268586123
497.2833969027937
497.2847667722946
497.2861364670115
497.2875059868412
497.2888753316805
497.2902445014262
497.29161349597496
497.29298231522364
497.2943509590692
497.2957194274089
497.2970877201402
497.29845583716076
497.2998237783685
497.3011915436613
497.30255913293706
497.303926546094
497.30529378303015
497.30666084364395
497.30802772783375
497.3093944354981
497.31076096653544
497.3121273208443
497.3134934983233
497.314859498871
497.31622532238623
497.31759096876783
497.31895643791484
497.3203217297263
497.32168684410124
497.3230517809387
497.3244165401376
497.3257811215966
497.32714552521486
497.3285097508914
497.32987379852545
497.3312376680161
497.33260135926264
497.3339648721641
497.3353282066197
497.33669136252877
497.3380543397906
497.3394171383046
497.3407797579704
497.3421421986876
497.34350446035603
497.34486654287537
497.34622844614535
497.3475901700657
497.3489517145364
497.3503130794576
497.3516742647297
497.35303527025314
497.3543960959288
497.3557567416573
497.357117207339
497.3584774928744
497.35983759816384
497.36119752310776
497.3625572676068
497.3639168315616
497.365276214873
497.3666354174419
497.36799443916914
497.3693532799556
497.3707119397021
497.3720704183096
497.3734287156791
497.37478683171173
497.3761447663088
497.37750251937166
497.37886009080205
497.38021748050176
497.3815746883728
497.3829317143169
497.3842885582359
497.38564522003196
497.38700169960737
497.38835799686456
497.3897141117062
497.3910700440355
497.3924257937557
497.3937813607703
497.39513674498255
497.39649194629567
497.39784696461254
497.39920179983585
497.40055645186806
497.4019109206116
497.403265205969
497.4046193078426
497.4059732261352
497.40732696074963
497.40868051158884
497.41003387855596
497.41138706155436
497.4127400604872
497.41409287525755
497.4154455057686
497.4167979519235
497.41815021362515
497.4195022907762
497.4208541832794
497.42220589103715
497.42355741395215
497.4249087519271
497.42625990486465
497.4276108726675
497.4289616552388
497.4303122524817
497.43166266429955
497.43301289059616
497.43436293127536
497.43571278624097
497.4370624553968
497.4384119386467
497.43976123589493
497.44111034704576
497.4424592720037
497.4438080106735
497.44515656296005
497.4465049287684
497.44785310800387
497.44920110057194
497.450548906378
497.4518965253277
497.4532439573269
497.4545912022817
497.4559382600986
497.4572851306842
497.4586318139451
497.45997830978774
497.46132461811874
497.4626707388446
497.46401667187195
497.4653624171075
497.4667079744578
497.4680533438294
497.46939852512867
497.4707435182621
497.4720883231365
497.47343293965866
497.47477736773556
497.4761216072744
497.47746565818227
497.47880952036587
497.48015319373224
497.48149667818814
497.4828399736406
497.48418307999634
497.4855259971624
497.4868687250463
497.4882112635552
497.4895536125965
497.4908957720778
497.4922377419067
497.49357952199114
497.494921112239
497.49626251255825
497.4976037228572
497.4989447430445
497.5002855730289
497.5016262127191
497.50296666202405
497.5043069208531
497.5056469891159
497.5069868667223
497.5083265535819
497.50966604960456
497.51100535469993
497.512344468778
497.5136833917487
497.51502212352204
497.51636066400795
497.5176990131166
497.51903717075845
497.5203751368441
497.5217129112842
497.52305049398944
497.5243878848704
497.52572508383776
497.52706209080236
497.5283989056753
497.5297355283677
497.5310719587907
497.5324081968553
497.53374424247284
497.5350800955547
497.53641575601193
497.53775122375566
497.539086498697
497.5404215807472
497.5417564698174
497.5430911658185
497.5444256686616
497.5457599782577
497.5470940945178
497.54842801735265
497.54976174667365
497.5510952823921
497.5524286244196
497.5537617726674
497.5550947270468
497.5564274874695
497.5577600538469
497.55909242609084
497.56042460411356
497.5617565878273
497.5630883771445
497.5644199719776
497.5657513722391
497.5670825778417
497.56841358869826
497.56974440472175
497.57107502582505
497.5724054519211
497.5737356829228
497.5750657187431
497.57639555929507
497.57772520449214
497.57905465424767
497.58038390847526
497.58171296708827
497.58304182999984
497.5843704971229
497.58569896837037
497.58702724365514
497.58835532289015
497.5896832059881
497.5910108928616
497.5923383834237
497.59366567758696
497.59499277526413
497.5963196763681
497.5976463808123
497.5989728885103
497.6002991993756
497.6016253133222
497.6029512302638
497.60427695011424
497.60560247278715
497.60692779819635
497.6082529262559
497.6095778568796
497.61090258998127
497.61222712547476
497.6135514632739
497.61487560329226
497.61619954544346
497.6175232896411
497.6188468357992
497.6201701838319
497.6214933336531
497.622816285177
497.62413903831737
497.625461592988
497.626783949103
497.62810610657664
497.6294280653234
497.6307498252578
497.6320713862941
497.63339274834664
497.63471391132987
497.6360348751581
497.6373556397456
497.63867620500685
497.6399965708564
497.64131673720874
497.6426367039784
497.64395647107983
497.6452760384276
497.6465954059362
497.6479145735203
497.64923354109476
497.6505523085742
497.6518708758732
497.6531892429065
497.65450740958875
497.65582537583475
497.65714314155923
497.65846070667715
497.65977807110346
497.66109523475313
497.66241219754113
497.66372895938264
497.6650455201931
497.66636187988786
497.6676780383824
497.66899399559213
497.6703097514327
497.6716253058195
497.6729406586679
497.6742558098937
497.67557075941215
497.67688550713876
497.6782000529889
497.67951439687806
497.6808285387216
497.6821424784347
497.6834562159328
497.6847697511315
497.68608308394676
497.6873962142944
497.68870914209026
497.69002186725027
497.69133438969004
497.69264670932523
497.6939588260715
497.6952707398449
497.6965824505618
497.6978939581385
497.6992052624913
497.7005163635366
497.70182726119094
497.7031379553706
497.70444844599217
497.7057587329722
497.70706881622743
497.7083786956747
497.70968837123075
497.7109978428126
497.71230711033706
497.7136161737209
497.71492503288084
497.71623368773373
497.71754213819634
497.7188503841852
497.7201584256169
497.72146626240817
497.7227738944756
497.724081321736
497.72538854410607
497.72669556150265
497.7280023738425
497.72930898104244
497.7306153830192
497.7319215796898
497.7332275709715
497.7345333567815
497.73583893703733
497.7371443116564
497.73844948055614
497.7397544436543
497.741059200869
497.7423637521182
497.74366809732
497.7449722363925
497.7462761692542
497.7475798958234
497.74888341601866
497.75018672975864
497.7514898369617
497.75279273754643
497.75409543143144
497.7553979185351
497.75670019877555
497.75800227207094
497.75930413833964
497.76060579750003
497.76190724947026
497.76320849416845
497.764509531513
497.76581036142227
497.7671109838144
497.76841139860755
497.7697116057201
497.7710116050706
497.7723113965777
497.77361098016
497.7749103557363
497.7762095232257
497.77750848254743
497.778807233621
497.780105776366
497.7814041107018
497.78270223654783
497.78400015382306
497.78529786244655
497.7865953623374
497.7878926534146
497.78918973559723
497.79048660880414
497.7917832729539
497.7930797279654
497.7943759737574
497.79567201024895
497.7969678373594
497.79826345500817
497.7995588631153
497.8008540616007
497.8021490503844
497.80344382938654
497.80473839852755
497.80603275772785
497.80732690690786
497.808620845988
497.80991457488847
497.8112080935299
497.8125014018327
497.8137944997176
497.8150873871051
497.8163800639164
497.8176725300726
497.8189647854948
497.8202568301041
497.8215486638218
497.8228402865692
497.8241316982677
497.8254228988386
497.82671388820324
497.82800466628316
497.82929523300015
497.830585588276
497.8318757320325
497.8331656641916
497.8344553846754
497.83574489340583
497.83703419030496
497.8383232752948
497.83961214829776
497.8409008092366
497.84218925803395
497.8434774946128
497.844765518896
497.8460533308065
497.84734093026725
497.8486283172009
497.84991549153017
497.85120245317773
497.8524892020665
497.8537757381192
497.85506206125876
497.85634817140806
497.85763406849003
497.8589197524278
497.8602052231448
497.8614904805644
497.86277552461013
497.8640603552059
497.86534497227547
497.8666293757427
497.8679135655319
497.86919754156736
497.8704813037733
497.8717648520743
497.87304818639484
497.87433130665966
497.8756142127935
497.8768969047213
497.8781793823681
497.87946164565903
497.88074369451954
497.88202552887526
497.8833071486516
497.8845885537738
497.88586974416705
497.8871507197565
497.8884314804674
497.88971202622486
497.8909923569539
497.8922724725795
497.89355237302686
497.89483205822114
497.8961115280878
497.8973907825522
497.8986698215398
497.8999486449758
497.90122725278536
497.9025056448937
497.90378382122606
497.90506178170756
497.90633952626365
497.90761705481975
497.9088943673013
497.9101714636339
497.91144834374325
497.9127250075552
497.9140014549956
497.9152776859904
497.91655370046567
497.9178294983477
497.91910507956266
497.92038044403637
497.92165559169496
497.92293052246475
497.9242052362721
497.9254797330435
497.9267540127058
497.9280280751858
497.92930192041047
497.9305755483068
497.9318489588019
497.9331221518229
497.9343951272973
497.9356678851526
497.9369404253167
497.9382127477178
497.93948485228395
497.94075673894383
497.942028407626
497.94329985825937
497.9445710907727
497.9458421050948
497.9471129011546
497.9483834788808
497.94965383820215
497.9509239790474
497.9521939013456
497.9534636050256
497.9547330900165
497.95600235624727
497.9572714036466
497.95854023214326
497.95980884166636
497.96107723214516
497.9623454035092
497.96361335568815
497.96488108861206
497.96614860221064
497.96741589641385
497.9686829711517
497.9699498263541
497.97121646195103
497.9724828778725
497.97374907404867
497.97501505040975
497.97628080688594
497.97754634340765
497.9788116599053
497.9800767563096
497.9813416325511
497.98260628856053
497.9838707242685
497.9851349396059
497.9863989345039
497.9876627088935
497.98892626270606
497.9901895958727
497.9914527083246
497.9927155999927
497.9939782708087
497.9952407207039
497.9965029496094
497.9977649574563
497.99902674417547
498.00028830969825
498.0015496539562
498.0028107768809
498.0040716784041
498.0053323584576
498.00659281697324
498.00785305388274
498.0091130691177
498.01037286260964
498.0116324342904
498.0128917840917
498.0141509119454
498.01540981778373
498.0166685015389
498.0179269631434
498.0191852025299
498.0204432196316
498.02170101438185
498.0229585867138
498.0242159365606
498.02547306385566
498.0267299685323
498.0279866505242
498.02924310976493
498.0304993461881
498.0317553597273
498.0330111503164
498.0342667178892
498.0355220623795
498.0367771837217
498.03803208185025
498.03928675669965
498.04054120820444
498.04179543629914
498.0430494409187
498.04430322199835
498.04555677947326
498.04681011327887
498.0480632233508
498.0493161096248
498.0505687720364
498.0518212105218
498.05307342501703
498.05432541545827
498.0555771817816
498.05682872392333
498.05808004182006
498.0593311354081
498.0605820046236
498.0618326494026
498.0630830696815
498.06433326539684
498.0655832364854
498.0668329828842
498.06808250453
498.06933180135945
498.07058087330904
498.07182972031535
498.07307834231517
498.0743267392455
498.0755749110432
498.07682285764474
498.07807057898697
498.0793180750069
498.0805653456415
498.0818123908281
498.08305921050385
498.08430580460606
498.0855521730724
498.08679831584107
498.08804423285017
498.08928992403787
498.09053538934234
498.09178062870194
498.0930256420553
498.0942704293408
498.09551499049655
498.09675932546054
498.0980034341709
498.09924731656554
498.1004909725824
498.1017344021594
498.1029776052345
498.1042205817454
498.10546333162995
498.10670585482615
498.1079481512719
498.1091902209056
498.1104320636658
498.11167367949145
498.1129150683215
498.11415623009486
498.11539716475033
498.116637872227
498.11787835246366
498.1191186053992
498.1203586309724
498.1215984291224
498.12283799978843
498.1240773429098
498.1253164584256
498.1265553462748
498.1277940063968
498.12903243873086
498.13027064321625
498.1315086197927
498.13274636840026
498.13398388897883
498.1352211814684
498.13645824580897
498.1376950819407
498.13893168980405
498.14016806933944
498.1414042204873
498.1426401431885
498.14387583738414
498.14511130301537
498.1463465400235
498.1475815483501
498.1488163279365
498.1500508787245
498.15128520065616
498.15251929367366
498.1537531577195
498.15498679273617
498.1562201986661
498.15745337545206
498.15868632303693
498.1599190413639
498.16115153037606
498.16238379001663
498.163615820229
498.1648476209565
498.16607919214255
498.167310533731
498.16854164566564
498.16977252789036
498.1710031803492
498.17223360298624
498.17346379574553
498.17469375857115
498.1759234914074
498.17715299419854
498.1783822668889
498.17961130942297
498.1808401217453
498.1820687038004
498.183297055533
498.1845251768881
498.18575306781065
498.1869807282459
498.188208158139
498.1894353574352
498.19066232607963
498.1918890640176
498.1931155711944
498.19434184755585
498.1955678930475
498.19679370761503
498.1980192912041
498.1992446437606
498.20046976523065
498.20169465556035
498.2029193146958
498.2041437425829
498.20536793916756
498.20659190439585
498.2078156382139
498.2090391405678
498.2102624114042
498.21148545066933
498.21270825830936
498.2139308342702
498.21515317849787
498.2163752909388
498.2175971715393
498.21881882024616
498.2200402370064
498.22126142176705
498.22248237447513
498.2237030950779
498.2249235835228
498.22614383975736
498.22736386372947
498.22858365538707
498.2298032146783
498.2310225415514
498.23224163595467
498.23346049783675
498.23467912714625
498.2358975238318
498.237115687842
498.23833361912546
498.2395513176308
498.24076878330663
498.2419860161016
498.24320301596424
498.24441978284324
498.2456363166874
498.24685261744605
498.24806868506846
498.24928451950416
498.25050012070267
498.2517154886135
498.252930623186
498.25414552436916
498.2553601921121
498.2565746263639
498.2577888270738
498.25900279419113
498.2602165276652
498.2614300274455
498.2626432934816
498.26385632572294
498.2650691241191
498.26628168861964
498.267494019174
498.26870611573156
498.26991797824155
498.2711296066533
498.2723410009163
498.2735521609801
498.27476308679445
498.27597377830887
498.2771842354733
498.27839445823804
498.27960444655344
498.2808142003702
498.2820237196389
498.2832330043103
498.28444205433505
498.28565086966375
498.2868594502471
498.288067796036
498.2892759069813
498.29048378303366
498.2916914241438
498.2928988302625
498.29410600134077
498.29531293732964
498.29651963818026
498.29772610384373
498.29893233427117
498.30013832941347
498.30134408922174
498.30254961364733
498.3037549026418
498.30495995615695
498.3061647741446
498.3073693565567
498.30857370334536
498.30977781446256
498.31098168986034
498.3121853294907
498.3133887333057
498.31459190125736
498.31579483329745
498.31699752937755
498.318199989449
498.3194022134636
498.3206042013734
498.32180595313014
498.32300746868566
498.32420874799175
498.3254097910002
498.3266105976626
498.32781116793024
498.3290115017545
498.33021159908674
498.3314114598785
498.3326110840816
498.33381047164755
498.335009622528
498.3362085366747
498.3374072140397
498.3386056545752
498.3398038582337
498.34100182496775
498.34219955472975
498.3433970474722
498.3445943031478
498.3457913217095
498.3469881031102
498.3481846473029
498.3493809542407
498.350577023877
498.3517728561652
498.3529684510587
498.35416380851086
498.35535892847486
498.3565538109041
498.35774845575213
498.35894286297287
498.36013703252013
498.36133096434776
498.3625246584096
498.36371811465926
498.3649113330504
498.3661043135363
498.3672970560707
498.3684895606074
498.3696818271002
498.3708738555032
498.3720656457707
498.37325719785724
498.3744485117178
498.3756395873073
498.3768304245808
498.3780210234935
498.37921138400054
498.38040150605696
498.38159138961794
498.3827810346387
498.3839704410742
498.38515960887946
498.3863485380099
498.38753722842114
498.3887256800689
498.3899138929088
498.39110186689675
498.39228960198864
498.39347709814035
498.3946643553078
498.3958513734468
498.39703815251335
498.3982246924635
498.39941099325335
498.4005970548395
498.40178287717833
498.4029684602259
498.40415380393836
498.4053389082718
498.4065237731826
498.40770839862705
498.40889278456154
498.41007693094264
498.4112608377269
498.4124445048709
498.4136279323317
498.41481112006625
498.41599406803164
498.4171767761849
498.41835924448276
498.4195414728821
498.4207234613399
498.4219052098134
498.4230867182597
498.42426798663575
498.4254490148986
498.42662980300554
498.427810350914
498.4289906585815
498.4301707259657
498.43135055302434
498.4325301397149
498.4337094859951
498.43488859182264
498.4360674571552
498.437246081951
498.43842446616793
498.43960260976394
498.4407805126972
498.4419581749256
498.4431355964074
498.44431277710066
498.4454897169636
498.4466664159544
498.44784287403115
498.4490190911521
498.45019506727533
498.4513708023593
498.45254629636236
498.4537215492429
498.45489656095936
498.4560713314703
498.4572458607346
498.45842014871107
498.4595941953588
498.4607680006367
498.4619415645035
498.4631148869181
498.46428796783937
498.4654608072259
498.4666334050363
498.4678057612292
498.46897787576324
498.470149748597
498.47132137968913
498.47249276899845
498.47366391648404
498.474834822105
498.47600548582034
498.4771759075892
498.4783460873708
498.47951602512455
498.48068572080945
498.4818551743846
498.483024385809
498.48419335504184
498.4853620820421
498.48653056676915
498.487698809182
498.48886680924
498.49003456690264
498.49120208212946
498.49236935488
498.493536385114
498.4947031727912
498.4958697178714
498.49703602031434
498.4982020800802
498.499367897129
498.5005334714207
498.5016988029155
498.5028638915736
498.5040287373555
498.5051933402216
498.5063577001325
498.50752181704877
498.5086856909312
498.50984932174094
498.51101270943934
498.51217585398774
498.5133387553475
498.5145014134804
498.51566382834847
498.5168259999135
498.5179879281376
498.51914961298246
498.52031105440994
498.52147225238184
498.5226332068602
498.52379391780676
498.52495438518315
498.52611460895116
498.5272745890726
498.528434325509
498.5295938182222
498.53075306717403
498.53191207232624
498.53307083364064
498.53422935107903
498.53538762460346
498.5365456541757
498.5377034397576
498.53886098131113
498.54001827879836
498.5411753321815
498.5423321414229
498.54348870648494
498.5446450273299
498.5458011039203
498.54695693621886
498.54811252418824
498.5492678677912
498.55042296699037
498.55157782174877
498.5527324320291
498.5538867977938
498.5550409190056
498.55619479562745
498.55734842762206
498.55850181495236
498.55965495758153
498.56080785547294
498.56196050859
498.5631129168961
498.56426508035463
498.5654169989292
498.56656867258346
498.5677201012812
498.56887128498613
498.570022223662
498.571172917273
498.57232336578284
498.57347356915545
498.5746235273547
498.5757732403441
498.57692270808764
498.5780719305493
498.57922090769296
498.5803696394827
498.58151812588255
498.58266636685664
498.5838143623688
498.58496211238287
498.5861096168625
498.58725687577146
498.5884038890737
498.58955065673297
498.59069717871296
498.59184345497727
498.59298948548974
498.59413527021445
498.5952808091155
498.5964261021571
498.59757114930346
498.59871595051857
498.59986050576674
498.60100481501206
498.6021488782186
498.60329269535043
498.60443626637186
498.6055795912474
498.60672266994186
498.6078655024197
498.60900808864574
498.6101504285849
498.61129252220223
498.6124343694627
498.6135759703312
498.61471732477287
498.6158584327528
498.6169992942363
498.6181399091887
498.6192802775755
498.62042039936216
498.6215602745141
498.6226999029967
498.6238392847753
498.62497841981497
498.62611730808123
498.6272559495395
498.62839434415525
498.6295324918939
498.63067039272084
498.6318080466016
498.6329454535015
498.63408261338634
498.6352195262217
498.6363561919735
498.63749261060764
498.6386287820902
498.6397647063876
498.6409003834664
498.64203581329286
498.6431709958332
498.6443059310533
498.645440618919
498.64657505939647
498.6477092524518
498.64884319805117
498.64997689616087
498.6511103467475
498.6522435497776
498.65337650521803
498.65450921303557
498.6556416731968
498.65677388566826
498.657905850417
498.65903756741034
498.66016903661523
498.6613002579985
498.66243123152674
498.66356195716673
498.6646924348855
498.66582266465014
498.66695264642783
498.66808238018587
498.66921186589127
498.6703411035111
498.6714700930123
498.6725988343618
498.67372732752654
498.6748555724736
498.67598356917017
498.67711131758404
498.6782388176831
498.67936606943556
498.6804930728098
498.68161982777417
498.68274633429735
498.68387259234817
498.6849986018957
498.6861243629088
498.6872498753563
498.6883751392071
498.6895001544302
498.690624920995
498.69174943887094
498.6928737080276
498.6939977284345
498.69512150006096
498.69624502287604
498.69736829684905
498.6984913219493
498.6996140981463
498.7007366254096
498.70185890370874
498.70298093301324
498.7041027132926
498.70522424451667
498.7063455266551
498.7074665596782
498.70858734355636
498.70970787826025
498.710828163761
498.7119482000297
498.7130679870378
498.71418752475677
498.71530681315824
498.7164258522138
498.71754464189496
498.7186631821736
498.7197814730215
498.72089951441046
498.7220173063125
498.72313484869994
498.72425214154475
498.7253691848192
498.7264859784958
498.72760252254704
498.72871881694516
498.7298348616624
498.7309506566713
498.7320662019441
498.7331814974531
498.7342965431707
498.7354113390696
498.73652588512266
498.7376401813027
498.7387542275827
498.7398680239356
498.7409815703344
498.7420948667519
498.743207913161
498.74432070953424
498.74543325584443
498.7465455520643
498.7476575981667
498.74876939412445
498.74988093991044
498.75099223549785
498.75210328085984
498.75321407596937
498.7543246207989
498.75543491532096
498.756544959508
498.75765475333276
498.75876429676816
498.75987358978716
498.7609826323627
498.7620914244677
498.7631999660749
498.76430825715704
498.76541629768656
498.76652408763596
498.76763162697796
498.7687389156853
498.76984595373085
498.7709527410874
498.77205927772764
498.7731655636245
498.77427159875117
498.7753773830806
498.7764829165857
498.7775881992394
498.7786932310145
498.7797980118836
498.7809025418193
498.7820068207942
498.78311084878135
498.78421462575363
498.78531815168424
498.7864214265463
498.7875244503133
498.7886272229583
498.7897297444548
498.7908320147759
498.791934033895
498.7930358017858
498.7941373184218
498.79523858377695
498.79633959782507
498.7974403605398
498.79854087189494
498.7996411318642
498.8007411404209
498.80184089753845
498.80294040319006
498.80403965734865
498.8051386599874
498.80623741107945
498.807335910598
498.8084341585162
498.80953215480747
498.8106298994452
498.81172739240276
498.81282463365335
498.81392162317013
498.8150183609263
498.81611484689495
498.81721108104955
498.8183070633635
498.8194027938101
498.8204982723631
498.8215934989961
498.82268847368243
498.8237831963953
498.82487766710767
498.82597188579246
498.82706585242283
498.82815956697243
498.8292530294149
498.8303462397238
498.831439197873
498.83253190383664
498.833624357589
498.8347165591043
498.835808508357
498.8369002053215
498.8379916499722
498.8390828422836
498.8401737822304
498.84126446978723
498.8423549049288
498.84344508763013
498.8445350178662
498.84562469561195
498.8467141208424
498.8478032935328
498.84889221365836
498.849980881194
498.8510692961148
498.85215745839594
498.8532453680124
498.85433302493914
498.85542042915165
498.8565075806256
498.85759447933685
498.8586811252611
498.85976751837404
498.86085365865176
498.86193954607063
498.8630251806072
498.8641105622381
498.8651956909399
498.86628056668917
498.86736518946293
498.86844955923823
498.86953367599233
498.8706175397025
498.8717011503462
498.872784507901
498.87386761234427
498.87495046365336
498.8760330618053
498.8771154067771
498.8781974985458
498.8792793370884
498.88036092238224
498.88144225440453
498.8825233331323
498.88360415854265
498.88468473061255
498.8857650493193
498.8868451146403
498.8879249265532
498.88900448503534
498.89008379006407
498.8911628416166
498.8922416396705
498.89332018420316
498.8943984751919
498.895476512614
498.8965542964469
498.8976318266681
498.89870910325556
498.89978612618745
498.90086289544195
498.9019394109972
498.90301567283143
498.904091680923
498.9051674352503
498.9062429357915
498.9073181825248
498.90839317542816
498.9094679144797
498.91054239965763
498.9116166309401
498.9126906083055
498.9137643317323
498.9148378011986
498.91591101668257
498.9169839781624
498.9180566856161
498.9191291390217
498.9202013383575
498.92127328360164
498.92234497473225
498.92341641172777
498.9244875945666
498.9255585232271
498.9266291976877
498.9276996179268
498.92876978392303
498.929839695655
498.93090935310136
498.93197875624094
498.9330479050526
498.9341167995152
498.9351854396076
498.93625382530865
498.937321956597
498.9383898334512
498.9394574558497
498.94052482377094
498.94159193719304
498.9426587960944
498.94372540045345
498.9447917502483
498.94585784545745
498.9469236860592
498.94798927203203
498.94905460335406
498.95011968000347
498.95118450195866
498.95224906919805
498.95331338170024
498.9543774394441
498.95544124240894
498.95650479057406
498.9575680839188
498.9586311224224
498.9596939060642
498.9607564348238
498.9618187086804
498.9628807276134
498.9639424916023
498.9650040006269
498.9660652546669
498.9671262537023
498.96818699771313
498.96924748667936
498.970307720581
498.97136769939823
498.97242742311175
498.97348689170224
498.97454610515035
498.9756050634368
498.9766637665424
498.97772221444814
498.97878040713533
498.9798383445851
498.98089602677885
498.9819534536981
498.9830106253247
498.98406754164046
498.98512420262716
498.98618060826664
498.98723675854114
498.98829265343295
498.9893482929248
498.99040367699956
498.9914588056405
498.99251367883096
498.9935682965544
498.9946226587941
498.99567676553386
498.9967306167574
498.99778421244866
498.9988375525912
498.99989063716896
499.00094346616595
499.0019960395663
499.00304835735403
499.0041004195135
499.00515222602905
499.0062037768852
499.00725507206664
499.0083061115582
499.0093568953447
499.0104074234106
499.0114576957402
499.01250771231787
499.01355747312834
499.0146069781566
499.01565622738815
499.0167052208084
499.017753958403
499.01880244015786
499.01985066605937
499.0208986360939
499.02194635024773
499.0229938085073
499.0240410108587
499.02508795728806
499.02613464778176
499.02718108232636
499.0282272609087
499.0292731835158
499.0303188501347
499.03136426075264
499.03240941535694
499.0334543139346
499.0344989564725
499.03554334295757
499.03658747337715
499.0376313477185
499.03867496596934
499.0397183281174
499.04076143415034
499.04180428405596
499.04284687782194
499.043889215436
499.0449312968857
499.04597312215867
499.0470146912427
499.04805600412544
499.0490970607949
499.050137861239
499.0511784054455
499.0522186934023
499.05325872509763
499.0542985005201
499.0553380196583
499.0563772825011
499.0574162890372
499.05845503925536
499.05949353314475
499.06053177069464
499.06156975189435
499.0626074767332
499.0636449452005
499.0646821572858
499.0657191129786
499.0667558122685
499.06779225514504
499.06882844159793
499.0698643716172
499.0709000451933
499.0719354623169
499.0729706229787
499.07400552716956
499.07504017488066
499.0760745661031
499.07710870082803
499.0781425790468
499.079176200751
499.0802095659325
499.0812426745832
499.0822755266953
499.08330812226075
499.0843404612714
499.085372543719
499.08640436959524
499.0874359388914
499.0884672515987
499.08949830770814
499.0905291072107
499.09155965009734
499.0925899363591
499.09361996598716
499.0946497389724
499.09567925530575
499.0967085149781
499.09773751798036
499.09876626430344
499.09979475393845
499.1008229868763
499.1018509631082
499.10287868262515
499.10390614541836
499.1049333514794
499.1059603007999
499.1069869933716
499.10801342918637
499.109039608236
499.1100655305123
499.11109119600735
499.1121166047134
499.1131417566229
499.1141666517284
499.1151912900219
499.1162156714955
499.11723979614123
499.1182636639511
499.1192872749169
499.12031062903077
499.12133372628466
499.1223565666711
499.1233791501826
499.12440147681184
499.1254235465516
499.12644535939455
499.12746691533323
499.12848821436035
499.12950925646885
499.1305300416519
499.1315505699025
499.1325708412136
499.1335908555783
499.13461061299006
499.1356301134423
499.1366493569284
499.13766834344176
499.13868707297627
499.139705545526
499.14072376108527
499.1417417196484
499.14275942120946
499.14377686576256
499.144794053302
499.1458109838219
499.1468276573163
499.1478440737793
499.148860233205
499.14987613558776
499.15089178092205
499.15190716920245
499.1529223004237
499.15393717458085
499.1549517916691
499.15596615168386
499.15698025462086
499.15799410047623
499.1590076892463
499.16002102092773
499.16103409551727
499.16204691301175
499.1630594734082
499.1640717767035
499.1650838228944
499.166095611978
499.1671071439513
499.1681184188111
499.16912943655404
499.1701401971767
499.17115070067564
499.17216094704725
499.1731709362879
499.17418066839434
499.17519014336347
499.17619936119206
499.1772083218767
499.17821702541426
499.1792254718015
499.18023366103546
499.18124159311367
499.1822492680336
499.1832566857928
499.1842638463887
499.18527074981887
499.18627739608075
499.18728378517164
499.1882899170888
499.1892957918295
499.1903014093908
499.1913067697702
499.1923118729652
499.1933167189735
499.19432130779285
499.1953256394212
499.1963297138567
499.1973335310978
499.1983370911429
499.1993403939904
499.20034343963846
499.2013462280853
499.2023487593293
499.20335103336936
499.2043530502043
499.20535480983324
499.2063563122555
499.20735755747035
499.20835854547715
499.2093592762752
499.2103597498641
499.2113599662433
499.21235992541244
499.213359627371
499.21435907211855
499.21535825965486
499.21635718997993
499.21735586309376
499.21835427899657
499.21935243768837
499.2203503391694
499.22134798343984
499.22234537049997
499.22334250035044
499.22433937299195
499.2253359884252
499.226332346651
499.22732844767086
499.22832429148605
499.2293198780977
499.23031520750703
499.2313102797151
499.23230509472353
499.23329965253413
499.23429395314895
499.2352879965698
499.2362817827985
499.2372753118369
499.2382685836868
499.23926159835
499.2402543558286
499.24124685612435
499.2422390992393
499.2432310851758
499.24422281393606
499.24521428552214
499.2462054999361
499.24719645717994
499.2481871572562
499.2491776001676
499.25016778591714
499.25115771450794
499.25214738594343
499.253136800227
499.25412595736236
499.2551148573531
499.25610350020327
499.2570918859168
499.2580800144975
499.25906788594955
499.2600555002772
499.261042857485
499.2620299575775
499.2630168005595
499.2640033864358
499.2649897152111
499.26597578688995
499.2669616014772
499.267947158978
499.26893245939766
499.2699175027416
499.27090228901545
499.2718868182254
499.27287109037786
499.27385510547936
499.2748388635363
499.2758223645552
499.276805608543
499.2777885955064
499.27877132545234
499.27975379838756
499.2807360143189
499.2817179732532
499.2826996751975
499.28368112015903
499.28466230814513
499.2856432391635
499.2866239132221
499.2876043303289
499.28858449049187
499.28956439371916
499.2905440400192
499.2915234294004
499.2925025618712
499.29348143744016
499.294460056116
499.29543841790735
499.2964165228228
499.2973943708713
499.29837196206165
499.29934929640297
499.30032637390457
499.301303194576
499.30227975842706
499.30325606546796
499.3042321157087
499.3052079091593
499.3061834458298
499.3071587257301
499.3081337488703
499.3091085152606
499.31008302491125
499.3110572778327
499.3120312740356
499.31300501353064
499.313978496329
499.31495172244183
499.31592469188047
499.31689740465606
499.31786986077975
499.3188420602627
499.319814003116
499.3207856893506
499.3217571189774
499.3227282920076
499.32369920845224
499.32466986832253
499.32564027162937
499.32661041838367
499.32758030859634
499.32854994227876
499.3295193194423
499.3304884400983
499.33145730425815
499.33242591193346
499.3333942631358
499.334362357877
499.33533019616914
499.3362977780247
499.3372651034564
499.338232172477
499.3391989850992
499.3401655413355
499.3411318411987
499.3420978847015
499.3430636718566
499.3440292026768
499.34499447717474
499.345959495363
499.34692425725405
499.34788876286063
499.3488530121955
499.3498170052716
499.35078074210185
499.3517442226995
499.3527074470775
499.353670415249
499.3546331272272
499.35559558302555
499.35655778265743
499.3575197261363
499.3584814134757
499.3594428446896
499.36040401979164
499.3613649387954
499.3623256017146
499.3632860085628
499.3642461593537
499.3652060541011
499.36616569281944
499.3671250755227
499.3680842022251
499.3690430729406
499.3700016876834
499.37096004646776
499.37191814930804
499.37287599621857
499.3738335872134
499.37479092230694
499.37574800151344
499.37670482484725
499.37766139232247
499.3786177039534
499.3795737597542
499.3805295597391
499.3814851039227
499.3824403923196
499.3833954249443
499.38435020181157
499.38530472293667
499.3862589883348
499.38721299802125
499.38816675201144
499.38912025032107
499.3900734929658
499.3910264799614
499.3919792113235
499.39293168706797
499.3938839072108
499.3948358717681
499.39578758075606
499.39673903419055
499.3976902320877
499.39864117446416
499.39959186133694
499.4005422927229
499.4014924686388
499.40244238910157
499.4033920541282
499.40434146373593
499.40529061794234
499.40623951676537
499.407188160223
499.4081365483331
499.409084681114
499.410032558584
499.4109801807616
499.4119275476652
499.4128746593134
499.41382151572486
499.4147681169185
499.41571446291334
499.416660553729
499.417606389385
499.4185519699014
499.41949729529813
499.42044236559525
499.42138718081276
499.42233174097044
499.42327604608784
499.42422009618474
499.42516389128116
499.4261074313971
499.42705071655234
499.4279937467667
499.42893652205964
499.4298790424506
499.43082130795904
499.431763318605
499.4327050744088
499.4336465753905
499.43458782157074
499.43552881296966
499.43646954960775
499.43741003150524
499.4383502586826
499.43929023116027
499.440229948959
499.4411694120996
499.44210862060334
499.4430475744913
499.4439862737844
499.4449247185038
499.4458629086706
499.44680084430604
499.4477385254312
499.448675952067
499.44961312423413
499.45055004195353
499.45148670524634
499.4524231141337
499.45335926863675
499.45429516877664
499.45523081457475
499.45616620605267
499.457101343232
499.4580362261346
499.4589708547825
499.4599052291975
499.46083934940145
499.4617732154162
499.46270682726356
499.4636401849656
499.4645732885448
499.4655061380239
499.4664387334259
499.4673710747737
499.4683031620906
499.4692349953997
499.470166574724
499.4710979000864
499.47202897150976
499.47295978901695
499.47389035263075
499.47482066237365
499.47575071826816
499.476680520337
499.4776100686032
499.4785393630899
499.4794684038203
499.48039719081805
499.481325724107
499.4822540037111
499.48318202965436
499.4841098019609
499.4850373206549
499.48596458576037
499.4868915973017
499.4878183553034
499.48874485979024
499.4896711107873
499.49059710831955
499.49152285241246
499.49244834309195
499.4933735803842
499.4942985643155
499.49522329491253
499.4961477722019
499.49707199621037
499.4979959669648
499.4989196844921
499.49984314881897
499.5007663599721
499.5016893179783
499.50261202286435
499.5035344746574
499.50445667338465
499.5053786190732
499.5063003117501
499.50722175144267
499.5081429381779
499.50906387198313
499.50998455288584
499.51090498091355
499.5118251560938
499.5127450784545
499.51366474802364
499.5145841648292
499.51550332889894
499.5164222402608
499.5173408989425
499.51825930497205
499.51917745837716
499.5200953591858
499.5210130074262
499.5219304031267
499.52284754631603
499.52376443702303
499.52468107527636
499.52559746110467
499.52651359453637
499.5274294756001
499.52834510432456
499.52926048073857
499.53017560487126
499.53109047675196
499.5320050964102
499.5329194638758
499.5338335791786
499.534747442348
499.5356610534137
499.53657441240546
499.5374875193528
499.5384003742853
499.5393129772325
499.540225328224
499.5411374272891
499.5420492744573
499.54296086975853
499.5438722132227
499.54478330487984
499.5456941447602
499.546604732894
499.54751506931154
499.548425154043
499.5493349871184
499.5502445685678
499.55115389842115
499.5520629767085
499.5529718034596
499.5538803787041
499.5547887024717
499.5556967747922
499.5566045956956
499.55751216521173
499.55841948337013
499.5593265502006
499.56023336573287
499.561139929997
499.56204624302325
499.56295230484204
499.5638581154841
499.5647636749801
499.56566898336075
499.56657404065675
499.56747884689923
499.5683834021196
499.5692877063494
499.57019175962034
499.57109556196417
499.57199911341274
499.57290241399767
499.5738054637503
499.5747082627021
499.57561081088477
499.57651310833046
499.5774151550712
499.5783169511393
499.57921849656725
499.5801197913878
499.5810208356337
499.58192162933744
499.58282217253156
499.58372246524857
499.5846225075212
499.58552229938243
499.58642184086546
499.5873211320037
499.58822017283035
499.58911896337884
499.5900175036826
499.59091579377525
499.5918138336907
499.59271162346306
499.59360916312664
499.5945064527158
499.59540349226506
499.5963002818095
499.5971968213843
499.5980931110247
499.598989150766
499.5998849406434
499.60078048069215
499.6016757709475
499.60257081144493
499.60346560222035
499.6043601433097
499.60525443474864
499.6061484765729
499.6070422688182
499.60793581152063
499.60882910471616
499.60972214844094
499.6106149427311
499.61150748762304
499.61239978315336
499.6132918293589
499.6141836262765
499.6150751739432
499.6159664723963
499.61685752167307
499.6177483218106
499.61863887284596
499.6195291748162
499.62041922775836
499.62130903170976
499.6221985867079
499.6230878927905
499.6239769499954
499.6248657583602
499.625754317923
499.6266426287217
499.6275306907943
499.62841850417874
499.629306068913
499.6301933850351
499.6310804525832
499.6319672715955
499.6328538421104
499.63374016416685
499.6346262378039
499.6355120630607
499.6363976399763
499.63728296858983
499.63816804894066
499.6390528810681
499.63993746501194
499.6408218008122
499.6417058885089
499.6425897281423
499.6434733197526
499.64435666338034
499.64523975906593
499.6461226068499
499.64700520677286
499.6478875588756
499.6487696631988
499.64965151978333
499.6505331286704
499.6514144899012
499.6522956035168
499.6531764695586
499.65405708806804
499.65493745908645
499.65581758265523
499.65669745881576
499.6575770876094
499.6584564690776
499.65933560326187
499.6602144902039
499.66109312994547
499.6619715225287
499.6628496679956
499.6637275663883
499.6646052177488
499.6654826221194
499.6663597795424
499.6672366900601
499.66811335371483
499.6689897705493
499.6698659406062
499.67074186392836
499.6716175405585
499.6724929705391
499.673368153913
499.6742430907228
499.6751177810114
499.67599222482124
499.67686642219485
499.67774037317497
499.6786140778041
499.67948753612484
499.68036074817985
499.68123371401214
499.68210643366467
499.6829789071804
499.68385113460215
499.6847231159728
499.6855948513356
499.6864663407338
499.6873375842107
499.68820858181004
499.6890793335757
499.6899498395518
499.6908200997824
499.6916901143119
499.6925598831848
499.6934294064457
499.69429868413897
499.6951677163089
499.69603650299985
499.69690504425614
499.6977733401221
499.69864139064236
499.6995091958614
499.70037675582387
499.70124407057426
499.70211114015694
499.70297796461625
499.7038445439965
499.7047108783423
499.7055769676982
499.706442812109
499.7073084116197
499.70817376627554
499.7090388761218
499.7099037412037
499.71076836156647
499.7116327372554
499.7124968683157
499.7133607547929
499.71422439673245
499.71508779417957
499.71595094717975
499.7168138557787
499.7176765200221
499.7185389399557
499.7194011156254
499.72026304707686
499.72112473435607
499.72198617750917
499.72284737658254
499.7237083316228
499.72456904267676
499.7254295097913
499.7262897330137
499.7271497123912
499.7280094479712
499.7288689398007
499.72972818792675
499.7305871923967
499.731445953258
499.73230447055823
499.7331627443449
499.73402077466574
499.73487856156873
499.73573610510186
499.73659340531333
499.73745046225156
499.738307275965
499.7391638465018
499.74002017391047
499.7408762582396
499.7417320995381
499.74258769785513
499.74344305323996
499.7442981657417
499.74515303540954
499.7460076622925
499.7468620464398
499.74771618790066
499.7485700867247
499.74942374296177
499.7502771566618
499.7511303278749
499.75198325665076
499.75283594303903
499.7536883870895
499.7545405888519
499.7553925483759
499.75624426571096
499.75709574090695
499.7579469740134
499.75879796508013
499.75964871415715
499.76049922129425
499.76134948654123
499.7621995099479
499.763049291564
499.7638988314394
499.7647481296241
499.76559718616807
499.7664460011214
499.76729457453405
499.7681429064561
499.76899099693776
499.76983884602953
499.7706864537821
499.7715338202464
499.7723809454734
499.7732278295142
499.77407447242
499.77492087424173
499.7757670350305
499.77661295483756
499.777458633714
499.778304071711
499.7791492688799
499.77999422527193
499.7808389409382
499.78168341592993
499.78252765029845
499.7833716440949
499.7842153973703
499.7850589101755
499.7859021825615
499.78674521457935
499.7875880062801
499.7884305577146
499.78927286893406
499.79011493998985
499.7909567709336
499.79179836181686
499.7926397126913
499.7934808236088
499.7943216946213
499.79516232578146
499.79600271714173
499.7968428687549
499.7976827806739
499.7985224529515
499.7993618856407
499.8002010787942
499.80104003246504
499.80187874670617
499.80271722157056
499.8035554571112
499.8043934533813
499.8052312104338
499.80606872832175
499.80690600709806
499.80774304681574
499.808579847528
499.80941640928825
499.81025273215016
499.8110888161674
499.8119246613934
499.81276026788134
499.81359563568424
499.8144307648553
499.81526565544766
499.81610030751483
499.81693472111044
499.81776889628816
499.81860283310164
499.81943653160477
499.82026999185166
499.82110321389644
499.8219361977932
499.82276894359586
499.8236014513585
499.8244337211355
499.82526575298095
499.82609754694874
499.826929103093
499.8277604214678
499.8285915021273
499.8294223451254
499.83025295051596
499.8310833183531
499.83191344869135
499.83274334158534
499.83357299708985
499.8344024152599
499.83523159615027
499.836060539816
499.8368892463119
499.83771771569275
499.83854594801335
499.83937394332827
499.8402017016923
499.84102922316004
499.84185650778625
499.84268355562597
499.843510366734
499.8443369411649
499.84516327897325
499.84598938021384
499.84681524494147
499.84764087321093
499.84846626507704
499.84929142059457
499.8501163398181
499.8509410228022
499.8517654696019
499.85258968027244
499.8534136548691
499.85423739344685
499.85506089606076
499.85588416276585
499.8567071936176
499.8575299886717
499.8583525479843
499.8591748716118
499.8599969596106
499.8608188120371
499.86164042894745
499.8624618103978
499.8632829564441
499.86410386714226
499.86492454254824
499.86574498271796
499.86656518770735
499.8673851575726
499.8682048923698
499.8690243921552
499.8698436569849
499.8706626869149
499.87148148200083
499.87230004229843
499.87311836786364
499.8739364587524
499.8747543150206
499.8755719367242
499.87638932391917
499.8772064766616
499.8780233950075
499.8788400790128
499.87965652873334
499.8804727442249
499.8812887255434
499.8821044727446
499.8829199858841
499.88373526501744
499.8845503102001
499.885365121488
499.8861796989371
499.88699404260353
499.88780815254347
499.88862202881285
499.88943567146737
499.89024908056274
499.89106225615467
499.89187519829886
499.892687907051
499.89350038246687
499.8943126246021
499.8951246335124
499.89593640925375
499.89674795188205
499.897559261453
499.89837033802235
499.899181181646
499.89999179237964
499.900802170279
499.9016123153998
499.90242222779773
499.9032319075285
499.9040413546478
499.90485056921136
499.90565955127465
499.9064683008929
499.90727681812166
499.90808510301656
499.90889315563334
499.90970097602747
499.9105085642542
499.911315920369
499.9121230444272
499.9129299364839
499.9137365965943
499.9145430248135
499.91534922119706
499.91615518580045
499.91696091867914
499.91776641988884
499.91857168948525
499.9193767275243
499.9201815340622
499.920986109155
499.9217904528588
499.92259456522913
499.92339844632204
499.9242020961932
499.92500551489854
499.925808702494
499.92661165903576
499.9274143845797
499.92821687918183
499.9290191428978
499.92982117578356
499.93062297789504
499.9314245492882
499.93222589001914
499.9330270001441
499.93382787971893
499.93462852879986
499.93542894744303
499.9362291357046
499.93702909364094
499.93782882130824
499.9386283187629
499.939427586061
499.9402266232586
499.9410254304115
499.9418240075755
499.94262235480585
499.943420472158
499.9442183596874
499.9450160174496
499.9458134455
499.94661064389413
499.94740761268747
499.9482043519355
499.94900086169366
499.9497971420175
499.95059319296263
499.9513890145846
499.95218460693866
499.95297997008004
499.95377510406377
499.95457000894487
499.95536468477815
499.9561591316184
499.95695334952063
499.9577473385401
499.9585410987321
499.95933463015206
499.96012793285547
499.9609210068976
499.9617138523339
499.96250646921965
499.9632988576101
499.96409101756046
499.96488294912626
499.96567465236274
499.9664661273249
499.9672573740678
499.96804839264644
499.96883918311585
499.96962974553105
499.9704200799473
499.97121018641985
499.9720000650037
499.9727897157537
499.97357913872463
499.97436833397103
499.9751573015477
499.9759460415095
499.9767345539109
499.97752283880675
499.9783108962521
499.9790987263017
499.9798863290106
499.9806737044338
499.98146085262636
499.98224777364305
499.98303446753846
499.98382093436715
499.9846071741839
499.98539318704377
499.986178973002
499.9869645321136
499.98774986443334
499.9885349700161
499.98931984891635
499.9901045011892
499.9908889268894
499.99167312607176
499.99245709879085
499.99324084510124
499.99402436505727
499.9948076587133
499.9955907261236
499.99637356734263
499.9971561824244
499.99793857142333
499.99872073439394
499.9995026713906
500.0002843824676
500.0010658676796
500.00184712708153
500.0026281607287
500.00340896867635
500.00418955097973
500.0049699076941
500.0057500388749
500.00652994457766
500.00730962485784
500.00808907977137
500.0088683093744
500.0096473137231
500.01042609287344
500.0112046468813
500.01198297580265
500.0127610796934
500.0135389586095
500.0143166126069
500.01509404174146
500.0158712460692
500.01664822564624
500.0174249805283
500.01820151077106
500.01897781643027
500.0197538975618
500.0205297542217
500.021305386466
500.0220807943509
500.02285597793264
500.02363093726706
500.0244056724101
500.025180183418
500.02595447034685
500.02672853325305
500.027502372193
500.0282759872233
500.0290493784006
500.0298225457815
500.0305954894226
500.0313682093805
500.03214070571187
500.03291297847306
500.03368502772025
500.0344568535096
500.03522845589725
500.0359998349396
500.03677099069284
500.0375419232133
500.03831263255745
500.03908311878183
500.0398533819431
500.04062342209807
500.0413932393034
500.04216283361586
500.04293220509237
500.04370135378974
500.0444702797648
500.0452389830742
500.0460074637746
500.04677572192224
500.04754375757364
500.0483115707849
500.0490791616122
500.0498465301115
500.0506136763389
500.0513806003504
500.0521473022021
500.05291378195
500.05368003965
500.054446075358
500.05521188912974
500.05597748102093
500.05674285108705
500.0575079993836
500.05827292596575
500.0590376308886
500.0598021142072
500.06056637597646
500.0613304162513
500.0620942350862
500.062857832536
500.0636212086557
500.0643843635004
500.0651472971248
500.0659100095835
500.0666725009311
500.06743477122166
500.06819682050934
500.0689586488485
500.0697202562932
500.07048164289733
500.0712428087146
500.0720037537984
500.0727644782022
500.0735249819794
500.07428526518345
500.075045327868
500.0758051700865
500.07656479189234
500.077324193339
500.0780833744801
500.07884233536936
500.07960107606016
500.08035959660594
500.08111789706015
500.0818759774762
500.08263383790757
500.08339147840763
500.0841488990301
500.0849060998286
500.08566308085676
500.0864198421681
500.087176383816
500.08793270585386
500.0886888083352
500.08944469131336
500.09020035484207
500.09095579897496
500.09171102376547
500.09246602926726
500.093220815534
500.0939753826193
500.0947297305769
500.0954838594606
500.09623776932415
500.0969914602209
500.09774493220436
500.09849818532814
500.09925121964613
500.10000403521224
500.1007566320801
500.10150901030363
500.10226116993647
500.1030131110325
500.1037648336454
500.10451633782907
500.10526762363736
500.1060186911244
500.1067695403441
500.10752017135053
500.10827058419807
500.1090207789408
500.10977075563267
500.1105205143275
500.1112700550792
500.1120193779417
500.11276848296905
500.1135173702154
500.11426603973484
500.11501449158175
500.1157627258102
500.11651074247436
500.1172585416283
500.11800612332615
500.11875348762226
500.1195006345712
500.12024756422727
500.12099427664464
500.1217407718774
500.12248704997967
500.12323311100556
500.1239789550092
500.1247245820447
500.12546999216636
500.1262151854288
500.1269601618866
500.1277049215943
500.12844946460643
500.12919379097764
500.12993790076246
500.13068179401523
500.1314254707903
500.13216893114225
500.13291217512585
500.1336552027959
500.13439801420725
500.1351406094144
500.1358829884722
500.1366251514354
500.1373670983588
500.1381088292975
500.13885034430666
500.1395916434418
500.1403327267584
500.14107359431216
500.14181424615856
500.14255468235285
500.1432949029503
500.1440349080061
500.1447746975754
500.14551427171284
500.1462536304733
500.14699277391185
500.14773170208343
500.14847041504333
500.14920891284703
500.14994719555
500.1506852632075
500.15142311587476
500.15216075360706
500.1528981764594
500.15363538448685
500.1543723777444
500.15510915628727
500.15584572017076
500.1565820694501
500.15731820418057
500.15805412441716
500.1587898302149
500.15952532162885
500.160260598714
500.16099566152513
500.16173051011685
500.1624651445437
500.1631995648603
500.1639337711209
500.16466776337995
500.1654015416917
500.1661351061106
500.1668684566906
500.167601593486
500.16833451655054
500.1690672259382
500.1697997217028
500.1705320038983
500.17126407257854
500.1719959277974
500.1727275696088
500.1734589980666
500.17419021322473
500.17492121513703
500.1756520038574
500.17638257943975
500.17711294193816
500.17784309140654
500.17857302789855
500.1793027514676
500.1800322621672
500.18076156005066
500.18149064517127
500.1822195175822
500.1829481773369
500.18367662448907
500.1844048590923
500.1851328812003
500.18586069086666
500.1865882881451
500.1873156730891
500.18804284575174
500.1887698061863
500.189496554446
500.190223090584
500.19094941465335
500.1916755267067
500.1924014267971
500.1931271149771
500.1938525912989
500.1945778558148
500.195302908577
500.19602774963766
500.19675237904937
500.19747679686486
500.19820100313666
500.19892499791706
500.19964878125836
500.2003723532131
500.201095713834
500.201818863174
500.2025418012862
500.2032645282235
500.2039870440386
500.20470934878415
500.2054314425126
500.20615332527666
500.20687499712915
500.20759645812257
500.20831770830944
500.20903874774206
500.2097595764727
500.21048019455395
500.2112006020383
500.211920798978
500.2126407854254
500.21336056143275
500.2140801270524
500.2147994823364
500.2155186273368
500.2162375621059
500.2169562866958
500.2176748011583
500.2183931055448
500.2191111999067
500.2198290842954
500.2205467587622
500.2212642233586
500.2219814781357
500.2226985231447
500.2234153584367
500.22413198406286
500.22484840007394
500.2255646065204
500.22628060345266
500.22699639092104
500.22771196897554
500.2284273376662
500.22914249704274
500.22985744715504
500.23057218805286
500.23128671978577
500.23200104240334
500.2327151559547
500.2334290604889
500.2341427560549
500.2348562427013
500.2355695204768
500.23628258942983
500.236995449609
500.23770810106305
500.23842054384056
500.23913277799
500.2398448035598
500.24055662059834
500.2412682291541
500.24197962927553
500.2426908210108
500.2434018044079
500.24411257951476
500.2448231463792
500.2455335050489
500.24624365557145
500.2469535979941
500.2476633323639
500.248372858728
500.2490821771336
500.2497912876278
500.25050019025764
500.25120888507024
500.25191737211264
500.2526256514317
500.253333723074
500.25404158708614
500.25474924351477
500.25545669240626
500.256163933807
500.2568709677631
500.25757779432104
500.2582844135271
500.2589908254273
500.2596970300675
500.26040302749345
500.2611088177508
500.2618144008853
500.26251977694244
500.26322494596764
500.2639299080064
500.26463466310395
500.2653392113051
500.2660435526544
500.26674768719624
500.2674516149749
500.2681553360343
500.2688588504185
500.26956215817165
500.27026525933763
500.2709681539601
500.2716708420825
500.27237332374796
500.27307559899975
500.27377766788106
500.27447953043486
500.2751811867039
500.2758826367309
500.2765838805584
500.2772849182287
500.2779857497841
500.2786863752666
500.27938679471833
500.28008700818134
500.28078701569746
500.28148681730806
500.2821864130543
500.2828858029774
500.2835849871184
500.2842839655183
500.284982738218
500.2856813052582
500.2863796666794
500.28707782252206
500.28777577282665
500.28847351763363
500.2891710569835
500.2898683909167
500.2905655194735
500.2912624426939
500.2919591606177
500.2926556732847
500.29335198073466
500.2940480830074
500.2947439801427
500.2954396721806
500.2961351591608
500.29683044112323
500.2975255181076
500.29822039015346
500.29891505730063
500.2996095195889
500.30030377705805
500.3009978297474
500.30169167769634
500.30238532094415
500.30307875952997
500.3037719934929
500.304465022872
500.30515784770625
500.30585046803446
500.3065428838953
500.30723509532766
500.3079271023706
500.30861890506355
500.3093105034458
500.3100018975564
500.31069308743406
500.311384073117
500.31207485464313
500.31276543205024
500.3134558053756
500.3141459746565
500.3148359399298
500.3155257012321
500.31621525859975
500.31690461206915
500.3175937616767
500.3182827074587
500.3189714494516
500.3196599876916
500.3203483222147
500.32103645305745
500.3217243802561
500.3224121038469
500.3230996238657
500.3237869403482
500.32447405333016
500.325160962847
500.325847668934
500.32653417162635
500.3272204709591
500.32790656696704
500.3285924596847
500.32927814914694
500.32996363538825
500.3306489184432
500.3313339983466
500.33201887513303
500.332703548837
500.3333880194931
500.33407228713565
500.33475635179855
500.3354402135152
500.3361238723188
500.33680732824234
500.3374905813188
500.33817363158107
500.3388564790622
500.33953912379513
500.34022156581284
500.34090380514806
500.3415858418333
500.34226767590064
500.3429493073819
500.3436307363087
500.34431196271214
500.3449929866232
500.34567380807255
500.34635442709043
500.34703484370687
500.34771505795163
500.34839506985406
500.3490748794435
500.3497544867488
500.35043389179884
500.3511130946225
500.3517920952489
500.35247089370716
500.3531494900261
500.3538278842344
500.35450607636096
500.3551840664344
500.3558618544831
500.3565394405356
500.3572168246202
500.35789400676515
500.35857098699864
500.35924776534864
500.3599243418431
500.3606007165098
500.3612768893762
500.3619528604696
500.3626286298171
500.3633041974455
500.3639795633816
500.36465472765224
500.36532969028406
500.3660044513032
500.36667901073577
500.3673533686077
500.36802752494475
500.36870147977254
500.36937523311656
500.37004878500227
500.37072213545514
500.37139528450064
500.3720682321642
500.37274097847114
500.3734135234462
500.37408586711433
500.3747580095004
500.37542995062915
500.3761016905254
500.3767732292139
500.3774445667192
500.3781157030659
500.3787866382785
500.37945737238135
500.3801279053986
500.38079823735427
500.3814683682723
500.3821382981765
500.38280802709085
500.3834775550391
500.384146882045
500.3848160081319
500.385484933323
500.38615365764156
500.38682218111046
500.38749050375293
500.38815862559215
500.38882654665133
500.3894942669532
500.39016178652025
500.39082910537456
500.39149622353773
500.3921631410316
500.3928298578779
500.39349637409816
500.3941626897132
500.39482880474395
500.39549471921134
500.39616043313606
500.3968259465388
500.39749125944024
500.39815637186086
500.3988212838209
500.3994859953408
500.4001505064406
500.40081481714003
500.4014789274589
500.4021428374168
500.40280654703304
500.4034700563267
500.40413336531685
500.40479647402265
500.40545938246294
500.40612209065637
500.40678459862113
500.4074469063752
500.4081090139365
500.408770921323
500.4094326285523
500.41009413564154
500.41075544260787
500.41141654946784
500.4120774562376
500.4127381629331
500.41339866957003
500.4140589761638
500.41471908273013
500.4153789892847
500.41603869584276
500.4166982024195
500.41735750903
500.418016615689
500.4186755224115
500.4193342292127
500.4199927361077
500.42065104311143
500.4213091502387
500.42196705750405
500.42262476492203
500.42328227250744
500.4239395802748
500.42459668823847
500.42525359641274
500.42591030481174
500.42656681344954
500.42722312234
500.42787923149683
500.4285351409336
500.429190850664
500.4298463607014
500.43050167105923
500.4311567817505
500.43181169278785
500.43246640418386
500.43312091595055
500.43377522809953
500.43442934064217
500.4350832535896
500.4357369669532
500.4363904807443
500.4370437949741
500.4376969096537
500.43834982479405
500.43900254040557
500.43965505649874
500.44030737308356
500.44095949017003
500.44161140776794
500.44226312588705
500.44291464453715
500.443565963728
500.4442170834694
500.4448680037707
500.44551872464115
500.4461692460899
500.446819568126
500.44746969075834
500.44811961399535
500.4487693378454
500.449418862317
500.45006818741797
500.45071731315613
500.45136623953897
500.452014966574
500.4526634942687
500.4533118226303
500.45395995166575
500.4546078813813
500.4552556117832
500.45590314287745
500.45655047467005
500.4571976071669
500.4578445403737
500.45849127429585
500.45913780893864
500.45978414430704
500.46043028040583
500.46107621723957
500.46172195481256
500.4623674931289
500.4630128321925
500.4636579720071
500.4643029125765
500.4649476539038
500.4655921959919
500.46623653884365
500.46688068246124
500.46752462684674
500.46816837200197
500.4688119179285
500.469455264628
500.4700984121022
500.4707413603527
500.47138410938066
500.472026659187
500.4726690097724
500.4733111611373
500.47395311328194
500.4745948662063
500.47523641990995
500.4758777743924
500.476518929653
500.47715988569064
500.4778006425041
500.47844120009256
500.4790815584546
500.47972171758863
500.4803616774931
500.4810014381659
500.4816409996048
500.4822803618073
500.48291952477064
500.48355848849167
500.4841972529672
500.4848358181936
500.4854741841672
500.48611235088435
500.486750318341
500.4873880865331
500.488025655456
500.48866302510476
500.48930019547436
500.48993716655934
500.4905739383538
500.4912105108516
500.49184688404614
500.4924830579308
500.4931190324986
500.4937548077422
500.4943903836544
500.4950257602278
500.495660937455
500.49629591532846
500.49693069384045
500.497565272983
500.498199652748
500.4988338331269
500.499467814111
500.5001015956915
500.50073517785984
500.5013685606074
500.502001743925
500.5026347278034
500.5032675122328
500.5039000972034
500.50453248270503
500.5051646687274
500.50579665526004
500.5064284422923
500.50706002981326
500.507691417812
500.50832260627715
500.5089535951971
500.50958438456007
500.51021497435397
500.51084536456676
500.51147555518617
500.5121055461999
500.5127353375955
500.51336492936014
500.51399432148094
500.5146235139447
500.51525250673797
500.5158812998469
500.5165098932574
500.51713828695495
500.5177664809245
500.5183944751508
500.51902226961863
500.5196498643128
500.5202772592178
500.5209044543177
500.52153144959664
500.5221582450382
500.52278484062583
500.52341123634267
500.52403743217167
500.5246634280958
500.52528922409795
500.52591482016066
500.5265402162662
500.5271654123966
500.52779040853386
500.52841520465984
500.5290398007561
500.529664196804
500.5302883927844
500.5309123886781
500.5315361844654
500.53215978012634
500.5327831756405
500.5334063709871
500.5340293661453
500.53465216109373
500.535274755811
500.5358971502757
500.5365193444662
500.5371413383608
500.5377631319376
500.5383847251745
500.5390061180493
500.53962731053946
500.540248302622
500.54086909427394
500.54148968547236
500.54211007619404
500.5427302664158
500.5433502561144
500.5439700452665
500.5445896338482
500.54520902183515
500.54582820920257
500.5464471959252
500.5470659819774
500.54768456733325
500.54830295196655
500.54892113585095
500.54953911896007
500.5501569012673
500.5507744827456
500.5513918633677
500.55200904310584
500.5526260219318
500.553242799817
500.5538593767325
500.5544757526492
500.5550919275378
500.5557079013687
500.55632367411215
500.5569392457379
500.5575546162155
500.5581697855142
500.55878475360316
500.55939952045094
500.56001408602594
500.5606284502966
500.561242613231
500.5618565747974
500.5624703349637
500.56308389369735
500.5636972509657
500.56431040673544
500.56492336097347
500.5655361136461
500.56614866471944
500.5667610141594
500.56737316193164
500.5679851080016
500.5685968523345
500.5692083948953
500.5698197356488
500.5704308745593
500.5710418115908
500.571652546707
500.5722630798713
500.572873411047
500.57348354019734
500.574093467285
500.57470319227275
500.5753127151228
500.5759220357969
500.57653115425694
500.5771400704647
500.5777487843817
500.57835729596934
500.5789656051887
500.579573712001
500.580181616367
500.5807893182472
500.5813968176016
500.58200411439014
500.58261120857213
500.5832181001069
500.5838247889539
500.5844312750732
500.585037558425
500.58564363896966
500.5862495166679
500.5868551914804
500.58746066336806
500.58806593229195
500.5886709982132
500.58927586109274
500.5898805208912
500.5904849775695
500.5910892310887
500.59169328140996
500.59229712849464
500.59290077230384
500.5935042127987
500.5941074499403
500.59471048368977
500.59531331400825
500.59591594085686
500.5965183641969
500.5971205839898
500.59772260019685
500.5983244127796
500.59892602169947
500.59952742691775
500.6001286283958
500.60072962609496
500.6013304199768
500.60193101000317
500.6025313961358
500.60313157833633
500.6037315565663
500.6043313307875
500.6049309009615
500.6055302670499
500.6061294290143
500.6067283868162
500.60732714041745
500.60792568977985
500.6085240348652
500.6091221756355
500.60972011205325
500.6103178440812
500.61091537168176
500.61151269481724
500.6121098134501
500.61270672754284
500.61330343705794
500.61389994195787
500.6144962422051
500.6150923377622
500.61568822859175
500.6162839146568
500.6168793959204
500.6174746723461
500.61806974389737
500.61866461053813
500.6192592722322
500.6198537289437
500.6204479806367
500.6210420272752
500.6216358688236
500.62222950524614
500.62282293650713
500.6234161625711
500.6240091834024
500.62460199896526
500.625194609224
500.6257870141432
500.62637921368736
500.6269712078212
500.62756299650954
500.6281545797171
500.62874595740885
500.6293371295496
500.62992809610427
500.6305188570379
500.63110941231565
500.63169976190255
500.63228990576357
500.6328798438637
500.63346957616767
500.63405910264026
500.63464842324623
500.63523753795056
500.6358264467182
500.6364151495142
500.6370036463035
500.6375919370511
500.638180021722
500.6387679002809
500.63935557269264
500.6399430389219
500.64053029893324
500.6411173526912
500.6417042001603
500.64229084130505
500.64287727609
500.64346350447994
500.6440495264398
500.6446353419346
500.6452209509295
500.64580635338956
500.64639154927994
500.64697653856587
500.6475613212128
500.6481458971859
500.6487302664502
500.64931442897085
500.64989838471337
500.6504821336434
500.65106567572656
500.6516490109288
500.6522321392162
500.65281506055516
500.653397774912
500.65398028225303
500.6545625825449
500.65514467575457
500.6557265618491
500.6563082407958
500.65688971256185
500.65747097711454
500.65805203442113
500.6586328844489
500.65921352716526
500.6597939625378
500.6603741905341
500.66095421112226
500.6615340242699
500.66211362994494
500.66269302811537
500.66327221874934
500.66385120181525
500.6644299772815
500.6650085451162
500.6655869052874
500.6661650577627
500.66674300251015
500.66732073949737
500.6678982686921
500.6684755900623
500.6690527035759
500.66962960920085
500.6702063069051
500.67078279665674
500.671359078424
500.6719351521753
500.672511017879
500.67308667550395
500.67366212501923
500.67423736639415
500.67481239959847
500.67538722460193
500.67596184137454
500.6765362498865
500.6771104501083
500.6776844420103
500.6782582255634
500.6788318007386
500.6794051675067
500.6799783258386
500.6805512757052
500.6811240170775
500.68169654992624
500.68226887422287
500.68284098993894
500.68341289704625
500.6839845955166
500.68455608532184
500.6851273664335
500.6856984388234
500.68626930246336
500.6868399573254
500.6874104033813
500.6879806406027
500.6885506689611
500.68912048842816
500.6896900989754
500.6902595005744
500.69082869319703
500.69139767681503
500.6919664514
500.6925350169233
500.6931033733562
500.6936715206704
500.69423945883767
500.69480718783
500.69537470761946
500.6959420181781
500.6965091194781
500.6970760114918
500.69764269419164
500.69820916755015
500.6987754315398
500.69934148613305
500.6999073313029
500.7004729670222
500.7010383932638
500.7016036100003
500.70216861720445
500.7027334148492
500.7032980029075
500.7038623813525
500.7044265501574
500.7049905092953
500.7055542587395
500.70611779846325
500.70668112844027
500.70724424864414
500.70780715904874
500.7083698596279
500.7089323503555
500.7094946312056
500.7100567021525
500.7106185631707
500.7111802142353
500.7117416553214
500.71230288640453
500.7128639074601
500.7134247184637
500.7139853193914
500.7145457102187
500.7151058909214
500.7156658614751
500.7162256218557
500.71678517203935
500.7173445120024
500.7179036417212
500.71846256117186
500.7190212703303
500.7195797691724
500.7201380576741
500.72069613581147
500.72125400356066
500.7218116608978
500.7223691077988
500.72292634423974
500.723483370197
500.72404018564697
500.7245967905662
500.7251531849317
500.7257093687205
500.7262653419097
500.7268211044763
500.7273766563973
500.7279319976498
500.72848712821104
500.72904204805826
500.72959675716874
500.7301512555195
500.7307055430876
500.73125961985005
500.73181348578413
500.7323671408671
500.73292058507644
500.73347381838965
500.73402684078445
500.7345796522383
500.735132252729
500.7356846422337
500.7362368207302
500.7367887881962
500.73734054460937
500.73789208994725
500.73844342418755
500.73899454730775
500.73954545928535
500.74009616009806
500.74064664972383
500.74119692814037
500.7417469953256
500.7422968512578
500.7428464959152
500.7433959292766
500.7439451513207
500.74449416202623
500.745042961372
500.7455915493371
500.7461399259002
500.74668809103986
500.74723604473496
500.74778378696436
500.74833131770714
500.7488786369424
500.74942574464893
500.7499726408059
500.7505193253921
500.7510657983866
500.7516120597683
500.7521581095161
500.75270394760895
500.75324957402626
500.75379498874753
500.7543401917523
500.7548851830199
500.75542996252983
500.7559745302619
500.75651888619603
500.75706303031274
500.75760696259243
500.7581506830156
500.7586941915626
500.7592374882137
500.75978057294896
500.76032344574827
500.76086610659166
500.76140855545935
500.761950792332
500.76249281719055
500.76303463001585
500.76357623078883
500.7641176194906
500.7646587961023
500.76519976060507
500.76574051298024
500.7662810532092
500.766821381273
500.7673614971529
500.7679014008301
500.7684410922861
500.76898057150237
500.76951983846055
500.77005889314245
500.77059773552986
500.77113636560483
500.77167478334985
500.77221298874764
500.7727509817809
500.7732887624324
500.7738263306848
500.7743636865211
500.77490082992443
500.7754377608782
500.77597447936563
500.77651098536984
500.777047278874
500.7775833598616
500.77811922831614
500.77865488422134
500.779190327561
500.7797255583193
500.7802605764802
500.7807953820281
500.7813299749475
500.7818643552229
500.7823985228392
500.7829324777808
500.7834662200327
500.78399974958023
500.7845330664085
500.78506617050306
500.78559906184904
500.7861317404317
500.78666420623625
500.78719645924815
500.7877284994526
500.78826032683463
500.78879194137966
500.78932334307336
500.7898545319014
500.79038550784975
500.79091627090423
500.7914468210508
500.7919771582753
500.7925072825637
500.7930371939021
500.79356689227683
500.7940963776745
500.79462565008174
500.7951547094853
500.795683555872
500.7962121892289
500.79674060954306
500.79726881680125
500.79779681099006
500.7983245920963
500.79885216010683
500.7993795150082
500.7999066567872
500.80043358543065
500.8009603009254
500.80148680325846
500.80201309241687
500.80253916838745
500.803065031157
500.8035906807126
500.80411611704125
500.80464134012976
500.8051663499652
500.80569114653457
500.80621572982517
500.80674009982425
500.8072642565191
500.80778819989695
500.8083119299451
500.80883544665056
500.8093587500002
500.80988183998073
500.8104047165793
500.81092737978287
500.8114498295785
500.8119720659533
500.8124940888942
500.8130158983883
500.8135374944231
500.8140588769863
500.8145800460656
500.81510100164877
500.81562174372374
500.81614227227846
500.81666258730064
500.817182688778
500.81770257669854
500.8182222510504
500.81874171182193
500.81926095900184
500.81977999257873
500.82029881254124
500.82081741887777
500.8213358115767
500.8218539906267
500.82237195601687
500.82288970773624
500.8234072457739
500.82392457011923
500.8244416807615
500.82495857768976
500.82547526089337
500.82599173036164
500.82650798608387
500.82702402804915
500.8275398562466
500.828055470665
500.8285708712935
500.82908605812094
500.8296010311364
500.830115790329
500.830630335688
500.83114466720275
500.83165878486255
500.8321726886565
500.83268637857367
500.8331998546029
500.8337131167331
500.83422616495335
500.83473899925247
500.83525161961956
500.8357640260437
500.836276218514
500.8367881970193
500.83729996154847
500.83781151209035
500.83832284863405
500.83883397116864
500.83934487968344
500.83985557416776
500.84036605461114
500.8408763210031
500.84138637333325
500.84189621159106
500.8424058357661
500.84291524584813
500.84342444182715
500.84393342369316
500.84444219143614
500.8449507450461
500.84545908451304
500.84596720982717
500.8464751209787
500.8469828179579
500.8474903007554
500.8479975693619
500.8485046237683
500.8490114639657
500.8495180899453
500.85002450169844
500.85053069921645
500.8510366824907
500.85154245151233
500.85204800627247
500.8525533467625
500.85305847297394
500.8535633848987
500.8540680825285
500.85457256585545
500.85507683487157
500.85558088956867
500.8560847299386
500.8565883559733
500.85709176766494
500.8575949650055
500.85809794798723
500.85860071660244
500.8591032708434
500.8596056107023
500.8601077361715
500.8606096472433
500.86111134391007
500.8616128261646
500.8621140939999
500.86261514740903
500.8631159863855
500.86361661092263
500.8641170210139
500.8646172166529
500.8651171978333
500.8656169645487
500.86611651679294
500.86661585455994
500.86711497784376
500.8676138866385
500.86811258093843
500.8686110607384
500.86910932603286
500.86960737681665
500.8701052130845
500.87060283483146
500.8711002420527
500.8715974347435
500.872094412899
500.8725911765145
500.873087725585
500.87358406010543
500.87408018007085
500.874576085476
500.8750717763157
500.87556725258463
500.87606251427763
500.8765575613897
500.8770523939158
500.87754701185094
500.8780414151901
500.8785356039286
500.8790295780613
500.8795233375835
500.88001688249045
500.88051021277755
500.88100332844004
500.88149622947316
500.8819889158721
500.88248138763214
500.88297364474846
500.8834656872163
500.8839575150311
500.88444912818835
500.8849405266837
500.88543171051305
500.8859226796723
500.8864134341574
500.8869039739645
500.88739429908986
500.8878844095297
500.88837430528014
500.8888639863373
500.8893534526973
500.88984270435634
500.89033174131026
500.89082056355477
500.89130917108577
500.8917975638994
500.89228574199177
500.8927737053593
500.89326145399804
500.8937489879042
500.89423630707364
500.8947234115025
500.8952103011872
500.8956969761238
500.89618343630895
500.89666968173964
500.89715571241294
500.8976415283259
500.89812712947554
500.8986125158587
500.8990976874722
500.89958264431306
500.90006738637834
500.90055191366486
500.9010362261692
500.9015203238877
500.902004206817
500.9024878749537
500.9029713282943
500.9034545668355
500.9039375905738
500.9044203995058
500.9049029936279
500.9053853729367
500.9058675374287
500.9063494871006
500.9068312219492
500.9073127419712
500.9077940471638
500.9082751375242
500.90875601304987
500.90923667373835
500.9097171195871
500.91019735059393
500.9106773667565
500.91115716807275
500.9116367545409
500.9121161261589
500.9125952829249
500.9130742248371
500.9135529518937
500.91403146409306
500.91450976143386
500.9149878439145
500.9154657115336
500.91594336429006
500.9164208021827
500.9168980252106
500.91737503337316
500.91785182666985
500.9183284051002
500.9188047686641
500.91928091736094
500.91975685119013
500.9202325701512
500.92070807424415
500.92118336346874
500.92165843782453
500.92213329731106
500.9226079419279
500.9230823716745
500.92355658655055
500.9240305865555
500.9245043716891
500.9249779419517
500.9254512973436
500.9259244378654
500.9263973635174
500.9268700743002
500.9273425702144
500.92781485126096
500.9282869174405
500.928758768754
500.92923040520253
500.9297018267877
500.9301730335109
500.9306440253735
500.93111480237707
500.93158536452296
500.9320557118128
500.9325258442481
500.9329957618308
500.93346546456263
500.93393495244567
500.93440422548196
500.934873283674
500.9353421270243
500.93581075553533
500.93627916920985
500.9367473680508
500.9372153520614
500.937683121245
500.9381506756051
500.938618015145
500.93908513986815
500.939552049778
500.9400187448777
500.9404852251707
500.9409514906601
500.9414175413494
500.9418833772417
500.9423489983405
500.94281440464937
500.943279596172
500.9437445729117
500.944209334872
500.9446738820563
500.94513821446793
500.9456023321106
500.94606623498834
500.9465299231055
500.9469933964662
500.9474566550743
500.9479196989336
500.9483825280483
500.9488451424226
500.9493075420609
500.94976972696753
500.950231697147
500.95069345260384
500.95115499334264
500.95161631936816
500.9520774306854
500.95253832729935
500.95299900921526
500.95345947643835
500.95391972897386
500.95437976682723
500.95483959000416
500.95529919851055
500.9557585923523
500.9562177715356
500.9566767360665
500.95713548595126
500.9575940211959
500.95805234180665
500.9585104477898
500.9589683391518
500.95942601589894
500.95988347803785
500.9603407255751
500.96079775851734
500.9612545768711
500.96171118064325
500.9621675698406
500.9626237444699
500.96307970453785
500.963535450051
500.9639909810157
500.96444629743854
500.9649013993264
500.965356286686
500.9658109595243
500.966265417848
500.9667196616644
500.9671736909808
500.9676275058047
500.96808110614364
500.96853449200506
500.9689876633965
500.96944062032543
500.9698933627996
500.970345890827
500.97079820441553
500.9712503035732
500.9717021883077
500.972153858627
500.9726053145395
500.97305655605345
500.97350758317697
500.97395839591803
500.9744089942846
500.97485937828463
500.9753095479263
500.97575950321783
500.97620924416736
500.9766587707829
500.97710808307255
500.9775571810448
500.97800606470804
500.9784547340709
500.97890318914204
500.9793514299301
500.9797994564437
500.98024726869147
500.9806948666823
500.98114225042485
500.98158941992796
500.9820363752005
500.98248311625133
500.98292964308934
500.98337595572315
500.9838220541614
500.98426793841276
500.9847136084856
500.98515906438814
500.9856043061283
500.98604933371433
500.9864941471546
500.98693874645727
500.98738313163057
500.98782730268266
500.98827125962174
500.98871500245576
500.98915853119246
500.98960184583933
500.9900449464039
500.9904878328936
500.99093050531604
500.99137296367843
500.9918152079883
500.9922572382531
500.9926990544804
500.9931406566779
500.9935820448533
500.9940232190144
500.9944641791689
500.99490492532453
500.995345457489
500.9957857756703
500.99622587987636
500.99666577011493
500.99710544639373
500.9975449087207
500.9979841571041
500.9984231915518
500.99886201207204
500.9993006186732
500.99973901136394
501.0001771901529
501.00061515504893
501.00105290606115
501.00149044319886
501.0019277664714
501.0023648758881
501.00280177145845
501.0032384531923
501.0036749210996
501.00411117519064
501.0045472154756
501.0049830419645
501.0054186546674
501.00585405359396
501.0062892387538
501.00672421015673
501.0071589678125
501.0075935117308
501.00802784192155
501.00846195839443
501.0088958611595
501.0093295502267
501.0097630256061
501.01019628730745
501.0106293353405
501.0110621697151
501.01149479044074
501.01192719752675
501.01235939098245
501.0127913708172
501.01322313704003
501.0136546896601
501.0140860286862
501.01451715412753
501.0149480659931
501.0153787642918
501.01580924903254
501.01623952022413
501.0166695778757
501.01709942199676
501.0175290525969
501.0179584696854
501.0183876732719
501.01881666336607
501.0192454399782
501.0196740031187
501.02010235279835
501.0205304890275
501.02095841181716
501.0213861211784
501.02181361712263
501.0222408996612
501.0226679688055
501.02309482456684
501.0235214669569
501.0239478959872
501.0243741116696
501.02480011401593
501.0252259030378
501.02565147874674
501.02607684115463
501.0265019902733
501.0269269261145
501.02735164869017
501.0277761580123
501.0282004540929
501.0286245369443
501.0290484065785
501.0294720630074
501.029895506243
501.0303187362974
501.03074175318255
501.0311645569106
501.03158714749355
501.0320095249435
501.0324316892724
501.03285364049265
501.0332753786167
501.033696903657
501.0341182156264
501.03453931453754
501.0349602004032
501.0353808732363
501.0358013330501
501.0362215798577
501.0366416136721
501.03706143450626
501.0374810423734
501.0379004372866
501.0383196192594
501.03873858830565
501.0391573444394
501.03957588767474
501.0399942180256
501.0404123355058
501.0408302401292
501.04124793190994
501.0416654108623
501.0420826770007
501.04249973033933
501.0429165708926
501.0433331986746
501.0437496136994
501.04416581598133
501.04458180553496
501.04499758237483
501.0454131465157
501.0458284979724
501.0462436367597
501.04665856289233
501.04707327638533
501.04748777725393
501.04790206551337
501.0483161411791
501.0487300042668
501.049143654792
501.04955709277027
501.0499703182174
501.050383331149
501.05079613158085
501.0512087195288
501.05162109500856
501.0520332580358
501.05244520862624
501.05285694679577
501.0532684725608
501.0536797859376
501.0540908869427
501.0545017755921
501.0549124519022
501.0553229158897
501.0557331675711
501.056143206963
501.0565530340818
501.05696264894385
501.05737205156555
501.0577812419635
501.0581902201545
501.0585989861551
501.05900753998156
501.05941588164995
501.05982401117666
501.06023192857805
501.0606396338705
501.06104712707037
501.06145440819427
501.0618614772588
501.0622683342803
501.0626749792754
501.0630814122605
501.0634876332519
501.0638936422658
501.0642994393183
501.06470502442556
501.06511039760375
501.065515558869
501.0659205082374
501.06632524572564
501.0667297713505
501.0671340851292
501.06753818707915
501.06794207721754
501.0683457555619
501.06874922212995
501.06915247693945
501.0695555200081
501.0699583513537
501.07036097099416
501.0707633789477
501.07116557523244
501.0715675598669
501.0719693328694
501.0723708942584
501.0727722440524
501.07317338226966
501.0735743089287
501.0739750240479
501.0743755276455
501.0747758197396
501.07517590034826
501.0755757694894
501.07597542718094
501.0763748734409
501.0767741082872
501.07717313173765
501.07757194381014
501.0779705445229
501.07836893389384
501.078767111941
501.07916507868225
501.07956283413563
501.0799603783191
501.08035771125077
501.0807548329489
501.0811517434319
501.081548442718
501.0819449308253
501.08234120777223
501.08273727357727
501.083133128259
501.0835287718357
501.0839242043252
501.0843194257454
501.08471443611387
501.0851092354482
501.0855038237657
501.0858982010836
501.08629236741916
501.0866863227897
501.0870800672125
501.08747360070487
501.087866923284
501.08826003496705
501.088652935771
501.0890456257129
501.0894381048103
501.08983037308093
501.0902224305427
501.09061427721366
501.0910059131117
501.0913973382548
501.0917885526614
501.0921795563499
501.0925703493389
501.0929609316474
501.0933513032941
501.09374146429826
501.09413141467866
501.0945211544544
501.0949106836444
501.09530000226795
501.0956891103444
501.096078007893
501.096466694933
501.0968551714836
501.09724343756415
501.0976314931938
501.09801933839157
501.0984069731766
501.09879439756804
501.0991816115849
501.0995686152466
501.0999554085726
501.10034199158275
501.1007283642968
501.1011145267343
501.10150047891506
501.1018862208593
501.10227175258746
501.10265707412003
501.1030421854775
501.1034270866805
501.10381177774997
501.1041962587066
501.10458052957136
501.1049645903649
501.1053484411079
501.1057320818215
501.10611551252686
501.10649873324513
501.10688174399723
501.1072645448043
501.1076471356873
501.1080295166668
501.10841168776386
501.1087936489993
501.10917540039435
501.1095569419703
501.1099382737486
501.11031939575054
501.1107003079978
501.11108101051167
501.11146150331405
501.11184178642674
501.11222185987157
501.11260172367037
501.11298137784496
501.1133608224174
501.11374005741
501.114119082845
501.1144978987447
501.1148765051316
501.1152549020284
501.11563308945796
501.11601106744314
501.11638883600693
501.1167663951723
501.1171437449622
501.11752088539964
501.11789781650754
501.1182745383091
501.11865105082774
501.1190273540869
501.11940344810995
501.1197793329206
501.12015500854244
501.12053047499916
501.12090573231416
501.1212807805111
501.12165561961336
501.1220302496442
501.12240467062674
501.12277888258444
501.1231528855407
501.123526679519
501.1239002645429
501.1242736406361
501.12464680782244
501.12501976612606
501.12539251557104
501.12576505618125
501.1261373879808
501.12650951099357
501.12688142524365
501.1272531307554
501.1276246275533
501.1279959156622
501.12836699510734
501.12873786591416
501.12910852810836
501.12947898171564
501.1298492267617
501.1302192632722
501.13058909127284
501.13095871078957
501.1313281218483
501.13169732447494
501.1320663186954
501.1324351045359
501.1328036820225
501.13317205118113
501.13354021203776
501.1339081646183
501.1342759089484
501.134643445054
501.13501077296104
501.13537789269566
501.135744804284
501.13611150775245
501.13647800312737
501.13684429043514
501.13721036970213
501.13757624095473
501.1379419042193
501.13830735952246
501.13867260689057
501.1390376463498
501.139402477926
501.1397671016454
501.1401315175346
501.1404957256204
501.14085972592983
501.14122351849
501.14158710332794
501.1419504804707
501.1423136499454
501.1426766117792
501.1430393659995
501.1434019126336
501.14376425170866
501.1441263832523
501.14448830729197
501.14485002385544
501.1452115329707
501.14557283466587
501.1459339289692
501.1462948159087
501.1466554955122
501.1470159678078
501.14737623282366
501.14773629058794
501.14809614112863
501.1484557844737
501.1488152206511
501.14917444968904
501.14953347161617
501.1498922864609
501.15025089425166
501.15060929501686
501.1509674887847
501.15132547558363
501.15168325544226
501.1520408283895
501.1523981944542
501.15275535366567
501.15311230605306
501.1534690516457
501.1538255904729
501.15418192256396
501.1545380479483
501.1548939666556
501.15524967871573
501.1556051841587
501.1559604830142
501.15631557531236
501.15667046108314
501.1570251403568
501.1573796131635
501.1577338795336
501.15808793949753
501.1584417930855
501.158795440328
501.1591488812557
501.15950211589956
501.1598551442907
501.1602079664603
501.1605605824395
501.1609129922594
501.16126519595144
501.161617193547
501.1619689850774
501.1623205705741
501.16267195006816
501.1630231235908
501.1633740911731
501.16372485284677
501.1640754086433
501.16442575859463
501.16477590273297
501.1651258410906
501.1654755737001
501.16582510059396
501.1661744218049
501.16652353736566
501.166872447309
501.1672211516679
501.1675696504753
501.16791794376394
501.1682660315668
501.1686139139169
501.16896159084735
501.1693090623914
501.1696563285822
501.17000338945326
501.1703502450384
501.17069689537146
501.1710433404866
501.1713895804182
501.1717356152005
501.17208144486784
501.17242706945484
501.17277248899626
501.1731177035269
501.1734627130815
501.1738075176947
501.1741521174012
501.1744965122361
501.1748407022346
501.17518468743214
501.17552846786424
501.17587204356636
501.17621541457396
501.17655858092274
501.17690154264886
501.17724429978847
501.17758685237794
501.1779292004539
501.1782713440529
501.1786132832114
501.17895501796596
501.17929654835365
501.1796378744113
501.179978996176
501.18031991368474
501.1806606269749
501.18100113608347
501.1813414410478
501.1816815419049
501.18202143869183
501.18236113144593
501.1827006202047
501.18303990500584
501.1833789858869
501.18371786288543
501.1840565360389
501.18439500538506
501.18473327096166
501.1850713328062
501.1854091909565
501.18574684544996
501.1860842963244
501.18642154361777
501.1867585873678
501.1870954276123
501.1874320643894
501.18776849773707
501.1881047276933
501.1884407542961
501.1887765775834
501.1891121975934
501.18944761436404
501.18978282793336
501.1901178383393
501.1904526456198
501.1907872498129
501.1911216509565
501.1914558490891
501.19178984424906
501.19212363647506
501.19245722580575
501.19279061227957
501.19312379593515
501.1934567768114
501.19378955494693
501.19412213038044
501.1944545031508
501.19478667329685
501.1951186408575
501.19545040587167
501.1957819683782
501.19611332841595
501.1964444860243
501.19677544124255
501.1971061941103
501.1974367446671
501.19776709295246
501.1980972390065
501.1984271828689
501.19875692457975
501.1990864641793
501.19941580170774
501.1997449372056
501.20007387071377
501.2004026022734
501.2007311319257
501.201059459712
501.2013875856739
501.2017155098533
501.20204323229217
501.2023707530329
501.2026980721179
501.20302518959005
501.203352105492
501.2036788198665
501.20400533275637
501.2043316442043
501.204657754253
501.20498366294527
501.2053093703241
501.2056348764324
501.2059601813132
501.2062852850094
501.2066101875643
501.2069348890213
501.20725938942377
501.2075836888154
501.2079077872401
501.20823168474175
501.2085553813642
501.20887887715134
501.20920217214683
501.20952526639456
501.2098481599384
501.21017085282205
501.21049334508933
501.21081563678416
501.21113772795064
501.2114596186331
501.2117813088759
501.2121027987236
501.212424088221
501.2127451774133
501.213066066346
501.2133867550646
501.2137072436146
501.2140275320416
501.2143476203914
501.2146675087094
501.21498719704135
501.21530668543295
501.2156259739301
501.2159450625788
501.2162639514251
501.21658264051547
501.21690112989626
501.21721941961385
501.2175375097144
501.2178554002441
501.2181730912493
501.2184905827764
501.21880787487197
501.2191249675831
501.2194418609569
501.21975855504064
501.2200750498816
501.2203913455273
501.22070744202546
501.2210233394239
501.2213390377705
501.2216545371136
501.22196983750126
501.222284938982
501.2225998416042
501.22291454541636
501.22322905046684
501.2235433568041
501.2238574644768
501.22417137353335
501.2244850840222
501.2247985959918
501.2251119094905
501.22542502456685
501.2257379412694
501.2260506596469
501.22636317974815
501.2266755016221
501.22698762531735
501.2272995508826
501.22761127836674
501.2279228078184
501.22823413928626
501.22854527281874
501.22885620846404
501.22916694627014
501.229477486285
501.2297878285569
501.23009797313415
501.2304079200655
501.23071766939955
501.231027221185
501.23133657547027
501.2316457323038
501.23195469173396
501.23226345380925
501.2325720185781
501.2328803860889
501.2331885563901
501.2334965295303
501.2338043055585
501.2341118845233
501.23441926647337
501.23472645145756
501.235033439525
501.23534023072483
501.23564682510613
501.235953222718
501.2362594236096
501.23656542783004
501.2368712354286
501.2371768464547
501.2374822609574
501.23778747898604
501.2380925005902
501.2383973258192
501.23870195472244
501.2390063873492
501.2393106237491
501.2396146639716
501.2399185080664
501.240222156083
501.240525608071
501.2408288640797
501.2411319241584
501.2414347883568
501.2417374567246
501.2420399293116
501.24234220616785
501.24264428734335
501.24294617288814
501.24324786285223
501.2435493572854
501.24385065623795
501.2441517597601
501.2444526679023
501.24475338071505
501.24505389824884
501.2453542205546
501.24565434768346
501.2459542796868
501.2462540166163
501.2465535585233
501.2468529054592
501.2471520574756
501.2474510146239
501.24774977695546
501.2480483445217
501.24834671737375
501.248644895563
501.2489428791411
501.24924066815987
501.2495382626709
501.24983566272584
501.2501328683765
501.2504298796752
501.25072669667423
501.2510233194259
501.2513197479827
501.25161598239737
501.25191202272316
501.25220786901326
501.2525035213211
501.2527989797001
501.25309424420374
501.2533893148854
501.25368419179875
501.2539788749977
501.25427336453635
501.2545676604686
501.2548617628483
501.2551556717296
501.2554493871666
501.25574290921367
501.2560362379251
501.2563293733555
501.25662231555947
501.2569150645915
501.25720762050645
501.2574999833591
501.2577921532042
501.25808413009685
501.258375914092
501.2586675052448
501.2589589036099
501.25925010924215
501.2595411221966
501.2598319425285
501.2601225702933
501.26041300554624
501.2607032483426
501.2609932987377
501.2612831567864
501.2615728225441
501.261862296066
501.2621515774078
501.26244066662497
501.26272956377323
501.2630182689083
501.2633067820861
501.2635951033628
501.2638832327945
501.26417117043746
501.264458916348
501.2647464705828
501.2650338331984
501.2653210042517
501.2656079837997
501.2658947718996
501.26618136860856
501.26646777398395
501.26675398808305
501.2670400109634
501.26732584268274
501.2676114832988
501.26789693286963
501.26818219145315
501.26846725910735
501.2687521358902
501.26903682185997
501.2693213170748
501.2696056215929
501.26988973547276
501.27017365877276
501.27045739155113
501.27074093386653
501.27102428577786
501.2713074473442
501.2715904186247
501.2718731996785
501.2721557905649
501.2724381913435
501.2727204020736
501.2730024228146
501.27328425362583
501.27356589456684
501.2738473456972
501.2741286070763
501.2744096787637
501.27469056081867
501.27497125330063
501.27525175626914
501.275532069784
501.275812193905
501.27609212869214
501.2763718742057
501.27665143050575
501.2769307976525
501.2772099757066
501.2774889647291
501.2777677647809
501.2780463759231
501.27832479821717
501.2786030317247
501.2788810765075
501.27915893262747
501.2794366001464
501.2797140791262
501.2799913696287
501.2802684717155
501.2805453854482
501.28082211088844
501.28109864809807
501.28137499713915
501.28165115807377
501.281927130964
501.2822029158721
501.2824785128607
501.28275392199265
501.283029143331
501.283304176939
501.2835790228798
501.28385368121684
501.2841281520136
501.2844024353337
501.28467653124125
501.2849504398004
501.2852241610755
501.2854976951307
501.28577104203004
501.2860442018379
501.2863171746189
501.28658996043777
501.2868625593596
501.2871349714496
501.28740719677324
501.28767923539607
501.28795108738353
501.28822275280135
501.28849423171545
501.28876552419155
501.28903663029536
501.2893075500928
501.28957828364986
501.28984883103243
501.29011919230646
501.2903893675381
501.2906593567938
501.2909291601397
501.2911987776419
501.29146820936666
501.29173745537986
501.29200651574723
501.2922753905345
501.2925440798071
501.2928125836308
501.29308090207127
501.29334903519424
501.29361698306565
501.2938847457514
501.29415232331775
501.29441971583077
501.2946869233569
501.2949539459625
501.295220783714
501.295487436678
501.29575390492136
501.2960201885109
501.29628628751374
501.29655220199714
501.29681793202866
501.2970834776756
501.29734883900545
501.2976140160858
501.29787900898435
501.2981438177689
501.2984084425074
501.2986728832679
501.29893714011854
501.2992012131278
501.2994651023641
501.29972880789586
501.2999923297918
501.30025566812077
501.3005188229517
501.3007817943539
501.30104458239697
501.30130718715026
501.30156960868334
501.301831847066
501.3020939023681
501.30235577465913
501.30261746400896
501.30287897048714
501.3031402941635
501.3034014351078
501.3036623933901
501.3039231690804
501.304183762249
501.30444417296616
501.30470440130233
501.304964447328
501.30522431111393
501.305483992731
501.3057434922502
501.30600280974244
501.30626194527866
501.3065208989298
501.30677967076684
501.30703826086045
501.3072966692816
501.3075548961014
501.3078129413911
501.3080708052218
501.3083284876645
501.3085859887903
501.3088433086702
501.3091004473751
501.30935740497597
501.30961418154374
501.30987077714957
501.3101271918644
501.3103834257592
501.3106394789049
501.3108953513726
501.3111510432338
501.31140655456005
501.311661885423
501.31191703589406
501.3121720060446
501.312426795946
501.31268140566993
501.3129358352882
501.31319008487316
501.31344415449706
501.31369804423224
501.3139517541512
501.314205284327
501.3144586348323
501.31471180574016
501.31496479712354
501.3152176090554
501.31547024160903
501.3157226948576
501.3159749688743
501.3162270637328
501.3164789795068
501.31673071627046
501.3169822740978
501.31723365306306
501.31748485324005
501.3177358747027
501.31798671752466
501.31823738177985
501.31848786754216
501.31873817488525
501.31898830388303
501.3192382546096
501.31948802713913
501.3197376215457
501.3199870379037
501.3202362762874
501.32048533677147
501.3207342194307
501.32098292434006
501.32123145157465
501.3214798012095
501.3217279733198
501.32197596798113
501.32222378526916
501.32247142525983
501.3227188880291
501.3229661736531
501.3232132822081
501.32346021377015
501.3237069684155
501.3239535462205
501.32419994726155
501.3244461716153
501.32469221935884
501.3249380905692
501.32518378532376
501.3254293037
501.32567464577545
501.32591981162767
501.3261648013344
501.32640961497344
501.3266542526225
501.3268987143594
501.3271430002621
501.32738711040855
501.3276310448768
501.32787480374503
501.3281183870915
501.3283617949948
501.3286050275339
501.3288480847877
501.3290909668348
501.329333673754
501.32957620562405
501.32981856252417
501.33006074453345
501.33030275173127
501.33054458419696
501.3307862420101
501.3310277252503
501.3312690339969
501.3315101683292
501.33175112832686
501.3319919140692
501.33223252563533
501.33247296310464
501.33271322655645
501.33295331607013
501.33319323172503
501.3334329736005
501.3336725417759
501.33391193633014
501.3341511573423
501.33439020489135
501.33462907905636
501.3348677799167
501.3351063075517
501.335344662041
501.3355828434639
501.33582085189977
501.33605868742796
501.3362963501276
501.33653384007806
501.33677115735867
501.3370083020488
501.3372452742282
501.337482073977
501.3377187013752
501.3379551565028
501.33819143943987
501.3384275502662
501.3386634890616
501.3388992559059
501.33913485087913
501.3393702740613
501.3396055255325
501.3398406053727
501.3400755136617
501.3403102504794
501.3405448159055
501.3407792100201
501.341013432903
501.34124748463404
501.34148136529296
501.3417150749596
501.3419486137138
501.3421819816355
501.34241517880463
501.3426482053007
501.34288106120306
501.3431137465911
501.3433462615441
501.34357860614153
501.34381078046266
501.34404278458663
501.3442746185928
501.34450628256076
501.34473777657007
501.3449691007001
501.3452002550304
501.3454312396406
501.3456620546105
501.3458927000201
501.3461231759497
501.34635348247974
501.34658361969053
501.3468135876621
501.34704338647447
501.3472730162079
501.3475024769427
501.3477317687593
501.3479608917382
501.3481898459601
501.34841863150604
501.34864724845687
501.34887569689334
501.3491039768962
501.3493320885461
501.34956003192355
501.34978780710884
501.3500154141822
501.35024285322396
501.3504701243143
501.3506972275338
501.3509241629628
501.3511509306822
501.3513775307728
501.35160396331565
501.35183022839186
501.3520563260826
501.3522822564691
501.3525080196327
501.35273361565504
501.35295904461753
501.3531843066016
501.35340940168857
501.3536343299597
501.3538590914961
501.3540836863794
501.35430811469126
501.3545323765133
501.3547564719274
501.3549804010153
501.35520416385924
501.35542776054143
501.35565119114443
501.3558744557508
501.35609755444324
501.3563204873048
501.35654325441845
501.3567658558672
501.35698829173424
501.35721056210303
501.357432667057
501.35765460667943
501.3578763810537
501.3580979902633
501.35831943439183
501.35854071352304
501.35876182774035
501.3589827771272
501.3592035617673
501.35942418174403
501.3596446371411
501.35986492804244
501.3600850545317
501.3603050166925
501.3605248146086
501.3607444483636
501.36096391804125
501.36118322372516
501.36140236549926
501.36162134344744
501.3618401576534
501.36205880820097
501.3622772951741
501.3624956186565
501.3627137787316
501.362931775483
501.36314960899443
501.3633672793496
501.3635847866323
501.36380213092656
501.364019312316
501.36423633088447
501.3644531867157
501.3646698798936
501.36488641050227
501.3651027786256
501.36531898434777
501.36553502775286
501.36575090892524
501.36596662794926
501.3661821849093
501.3663975798897
501.3666128129748
501.36682788424895
501.36704279379654
501.3672575417017
501.36747212804875
501.3676865529225
501.3679008164078
501.36811491858947
501.36832885955204
501.3685426393801
501.36875625815827
501.3689697159711
501.3691830129032
501.3693961490389
501.36960912446256
501.36982193925854
501.3700345935112
501.37024708730513
501.37045942072535
501.3706715938569
501.37088360678484
501.3710954595944
501.37130715237134
501.3715186852016
501.37173005817107
501.371941271366
501.3721523248725
501.3723632187768
501.37257395316504
501.3727845281232
501.3729949437372
501.37320520009297
501.3734152972765
501.37362523537394
501.37383501447124
501.3740446346546
501.37425409601013
501.3744633986243
501.3746725425835
501.37488152797386
501.3750903548818
501.37529902339423
501.3755075335982
501.37571588558075
501.37592407942924
501.3761321152312
501.3763399930746
501.3765477130473
501.3767552752369
501.37696267973155
501.37716992661916
501.37737701598775
501.37758394792553
501.3777907225205
501.3779973398609
501.3782038000351
501.37841010313167
501.378616249239
501.3788222384455
501.3790280708394
501.379233746509
501.37943926554266
501.37964462802887
501.3798498340563
501.38005488371385
501.38025977709043
501.38046451427516
501.3806690953572
501.38087352042606
501.38107778957163
501.3812819028835
501.38148586045116
501.3816896623643
501.38189330871245
501.382096799585
501.38230013507103
501.38250331525995
501.3827063402411
501.38290921010383
501.3831119249375
501.38331448483126
501.3835168898742
501.38371914015573
501.3839212357652
501.3841231767919
501.38432496332547
501.3845265954555
501.3847280732718
501.3849293968644
501.3851305663233
501.3853315817386
501.38553244320036
501.38573315079833
501.3859337046226
501.3861341047629
501.38633435130913
501.3865344443513
501.3867343839797
501.3869341702845
501.3871338033561
501.3873332832847
501.3875326101606
501.38773178407354
501.3879308051136
501.3881296733709
501.3883283889356
501.3885269518982
501.3887253623495
501.38892362038035
501.3891217260818
501.38931967954494
501.3895174808608
501.38971513012046
501.38991262741496
501.390109972835
501.3903071664715
501.3905042084154
501.39070109875814
501.3908978375909
501.3910944250046
501.3912908610902
501.3914871459389
501.39168327964165
501.39187926228914
501.39207509397187
501.39227077478034
501.39246630480505
501.39266168413695
501.3928569128672
501.393051991087
501.39324691888777
501.39344169636087
501.39363632359795
501.39383080069086
501.39402512773125
501.3942193048105
501.39441333202006
501.39460720945107
501.3948009371947
501.39499451534215
501.39518794398504
501.3953812232152
501.39557435312435
501.39576733380426
501.39596016534705
501.3961528478448
501.39634538138984
501.3965377660747
501.3967300019919
501.396922089234
501.3971140278938
501.397305818064
501.39749745983767
501.397688953308
501.39788029856817
501.39807149571146
501.3982625448313
501.39845344602116
501.39864419937425
501.3988348049838
501.3990252629432
501.399215573346
501.3994057362856
501.39959575185543
501.399785620149
501.3999753412599
501.4001649152821
501.4003543423095
501.4005436224365
501.40073275575736
501.4009217423663
501.40111058235715
501.4012992758241
501.40148782286127
501.4016762235628
501.4018644780228
501.4020525863354
501.40224054859476
501.402428364895
501.4026160353307
501.4028035599967
501.4029909389878
501.403178172399
501.4033652603254
501.4035522028623
501.40373900010485
501.4039256521484
501.40411215908824
501.4042985210198
501.4044847380389
501.40467081024093
501.4048567377212
501.40504252057525
501.4052281588985
501.40541365278654
501.40559900233455
501.4057842076381
501.4059692687926
501.4061541858936
501.40633895903665
501.40652358831716
501.4067080738309
501.4068924156733
501.40707661394
501.40726066872656
501.4074445801288
501.40762834824244
501.4078119731632
501.40799545498675
501.4081787938091
501.40836198972596
501.40854504283305
501.40872795322633
501.408910721002
501.40909334625616
501.40927582908506
501.4094581695851
501.40964036785266
501.40982242398417
501.41000433807625
501.41018611022554
501.41036774052844
501.4105492290816
501.41073057598163
501.4109117813252
501.4110928452091
501.4112737677303
501.4114545489853
501.41163518907086
501.41181568808355
501.41199604612024
501.4121762632778
501.41235633965306
501.4125362753429
501.412716070444
501.4128957250529
501.41307523926633
501.41325461318064
501.41343384689225
501.41361294049756
501.41379189409275
501.4139707077738
501.41414938163683
501.4143279157783
501.4145063102948
501.41468456528327
501.4148626808405
501.41504065706334
501.4152184940485
501.41539619189274
501.415573750693
501.4157511705459
501.41592845154827
501.4161055937972
501.41628259738985
501.41645946242323
501.41663618899446
501.4168127772006
501.4169892271388
501.4171655389061
501.4173417125996
501.4175177483168
501.4176936461553
501.4178694062129
501.4180450285873
501.4182205133765
501.4183958606788
501.41857107059235
501.4187461432152
501.41892107864527
501.41909587698063
501.41927053831904
501.4194450627585
501.4196194503974
501.4197937013345
501.4199678156685
501.4201417934982
501.4203156349228
501.42048934004146
501.42066290895326
501.42083634175737
501.42100963855313
501.4211827994399
501.42135582451755
501.42152871388583
501.4217014676448
501.4218740858948
501.422046568736
501.4222189162687
501.422391128593
501.4225632058087
501.4227351480153
501.42290695531227
501.42307862779893
501.42325016557487
501.42342156873946
501.42359283739205
501.42376397163224
501.42393497155985
501.4241058372747
501.4242765688768
501.424447166466
501.4246176301419
501.42478796000404
501.42495815615206
501.42512821868553
501.42529814770427
501.4254679433083
501.42563760559773
501.42580713467277
501.4259765306337
501.42614579358104
501.4263149236155
501.4264839208378
501.4266527853485
501.426821517248
501.4269901166371
501.4271585836165
501.4273269182872
501.4274951207498
501.4276631911052
501.427831129454
501.42799893589716
501.4281666105359
501.42833415347144
501.4285015648049
501.4286688446377
501.428835993071
501.42900301020603
501.42916989614395
501.42933665098593
501.42950327483317
501.42966976778706
501.42983612994925
501.4300023614216
501.43016846230597
501.4303344327042
501.43050027271823
501.43066598244985
501.4308315620007
501.43099701147224
501.43116233096606
501.43132752058403
501.4314925804278
501.43165751059877
501.43182231119835
501.43198698232817
501.4321515240899
501.43231593658487
501.4324802199148
501.4326443741815
501.43280839948665
501.4329722959321
501.4331360636199
501.4332997026524
501.4334632131319
501.4336265951608
501.4337898488415
501.43395297427645
501.4341159715677
501.4342788408175
501.4344415821283
501.4346041956025
501.43476668134275
501.4349290394518
501.43509127003216
501.4352533731862
501.4354153490164
501.4355771976254
501.4357389191154
501.43590051358905
501.43606198114884
501.43622332189756
501.43638453593775
501.4365456233722
501.43670658430386
501.436867418836
501.43702812707164
501.43718870911374
501.4373491650651
501.437509495028
501.437669699105
501.4378297773987
501.4379897300118
501.4381495570471
501.4383092586074
501.4384688347952
501.43862828571304
501.43878761146374
501.43894681215005
501.4391058878745
501.4392648387397
501.4394236648481
501.4395823663021
501.43974094320396
501.4398993956558
501.4400577237597
501.440215927618
501.440374007333
501.4405319630068
501.44068979474144
501.44084750263886
501.4410050868011
501.4411625473303
501.4413198843287
501.44147709789894
501.4416341881435
501.44179115516516
501.44194799906694
501.4421047199516
501.4422613179219
501.44241779308044
501.4425741455297
501.44273037537226
501.4428864827109
501.4430424676486
501.44319833028857
501.4433540707343
501.443509689089
501.4436651854559
501.4438205599383
501.4439758126393
501.44413094366195
501.4442859531093
501.44444084108426
501.4445956076899
501.44475025302944
501.4449047772061
501.4450591803233
501.44521346248456
501.44536762379306
501.44552166435204
501.4456755842645
501.4458293836337
501.44598306256233
501.44613662115324
501.4462900595092
501.4464433777327
501.4465965759263
501.4467496541924
501.446902612633
501.4470554513502
501.4472081704461
501.4473607700226
501.44751325018154
501.44766561102455
501.44781785265303
501.44796997516863
501.448121978673
501.44827386326773
501.4484256290545
501.4485772761349
501.4487288046104
501.4488802145824
501.44903150615227
501.4491826794212
501.4493337344904
501.4494846714612
501.4496354904349
501.4497861915124
501.44993677479437
501.4500872403814
501.4502375883739
501.4503878188727
501.45053793197843
501.4506879277919
501.4508378064135
501.4509875679441
501.45113721248407
501.4512867401342
501.451436150995
501.4515854451667
501.4517346227496
501.45188368384373
501.45203262854915
501.4521814569661
501.4523301691949
501.452478765336
501.4526272454902
501.4527756097579
501.45292385823967
501.453071991036
501.4532200082471
501.45336790997334
501.45351569631515
501.45366336737305
501.45381092324754
501.45395836403935
501.454105689849
501.4542529007767
501.45439999692275
501.45454697838744
501.45469384527127
501.4548405976747
501.4549872356983
501.4551337594425
501.45528016900784
501.4554264644948
501.45557264600365
501.45571871363467
501.45586466748836
501.4560105076652
501.45615623426573
501.45630184739065
501.4564473471409
501.45659273361724
501.4567380069204
501.45688316715126
501.4570282144106
501.4571731487992
501.4573179704177
501.45746267936664
501.4576072757465
501.45775175965804
501.45789613120195
501.45804039047897
501.45818453759006
501.4583285726364
501.4584724957189
501.4586163069386
501.45876000639663
501.45890359419417
501.4590470704322
501.45919043521184
501.45933368863433
501.45947683080107
501.4596198618137
501.4597627817738
501.4599055907831
501.46004828894337
501.4601908763563
501.46033335312353
501.4604757193469
501.4606179751283
501.46076012056955
501.46090215577277
501.46104408084005
501.4611858958735
501.4613276009749
501.46146919624624
501.4616106817893
501.4617520577062
501.4618933240992
501.4620344810705
501.46217552872207
501.4623164671561
501.46245729647484
501.46259801678065
501.4627386281756
501.4628791307618
501.46301952464154
501.46315980991716
501.46329998669074
501.46344005506415
501.46358001513903
501.463719867017
501.46385961079926
501.463999246587
501.46413877448134
501.4642781945835
501.4644175069947
501.4645567118159
501.46469580914794
501.4648347990921
501.46497368174977
501.4651124572226
501.4652511256124
501.4653896870206
501.4655281415484
501.465666489297
501.4658047303673
501.46594286486055
501.46608089287764
501.4662188145193
501.46635662988655
501.46649433908027
501.4666319422012
501.4667694393501
501.4669068306277
501.4670441161347
501.46718129597156
501.46731837023884
501.46745533903726
501.46759220246753
501.4677289606304
501.46786561362654
501.46800216155697
501.46813860452215
501.4682749426226
501.46841117595903
501.46854730463195
501.46868332874186
501.46881924838925
501.4689550636746
501.46909077469826
501.4692263815604
501.4693618843616
501.46949728320254
501.46963257818396
501.4697677694066
501.46990285697115
501.47003784097836
501.47017272152874
501.4703074987228
501.4704421726614
501.47057674344586
501.4707112111775
501.47084557595775
501.4709798378878
501.4711139970688
501.4712480536022
501.4713820075894
501.4715158591318
501.4716496083308
501.4717832552878
501.471916800104
501.4720502428806
501.47218358371873
501.4723168227196
501.47244995998443
501.4725829956146
501.47271592971146
501.4728487623765
501.4729814937111
501.47311412381686
501.47324665279524
501.47337908074763
501.4735114077752
501.4736436339792
501.4737757594607
501.47390778432117
501.4740397086618
501.4741715325835
501.4743032561875
501.4744348795752
501.47456640284776
501.47469782610636
501.474829149452
501.47496037298555
501.47509149680803
501.47522252102016
501.4753534457229
501.4754842710169
501.47561499700276
501.4757456237807
501.4758761514508
501.4760065801128
501.4761369098666
501.4762671408118
501.47639727304767
501.47652730667386
501.47665724178995
501.4767870784953
501.4769168168893
501.4770464570715
501.477175999141
501.4773054431968
501.4774347893378
501.47756403766283
501.4776931882711
501.47782224126144
501.4779511967326
501.478080054783
501.47820881551087
501.47833747901444
501.47846604539194
501.4785945147416
501.4787228871616
501.47885116275
501.47897934160477
501.4791074238239
501.4792354095054
501.4793632987473
501.4794910916475
501.47961878830387
501.47974638881414
501.4798738932761
501.4800013017877
501.48012861444676
501.48025583135103
501.4803829525985
501.4805099782872
501.4806369085149
501.48076374337955
501.4808904829794
501.48101712741294
501.481143676779
501.4812701311768
501.4813964907052
501.48152275546335
501.48164892555013
501.4817750010645
501.4819009821053
501.48202686877124
501.4821526611608
501.4822783593722
501.4824039635038
501.4825294736542
501.482654889922
501.48278021240566
501.48290544120385
501.48303057641505
501.4831556181377
501.48328056647
501.48340542151044
501.48353018335746
501.4836548521095
501.48377942786504
501.4839039107223
501.48402830077924
501.4841525981339
501.48427680288427
501.48440091512833
501.4845249349641
501.48464886248934
501.4847726978016
501.48489644099794
501.4850200921757
501.4851436514322
501.48526711886456
501.48539049457
501.4855137786457
501.48563697118874
501.48576007229616
501.4858830820653
501.48600600059325
501.48612882797664
501.4862515643121
501.48637420969607
501.4864967642247
501.48661922799414
501.4867416011004
501.4868638836394
501.4869860757071
501.48710817739965
501.48723018881327
501.48735211004436
501.4874739411893
501.4875956823443
501.48771733360576
501.48783889507007
501.4879603668332
501.48808174899085
501.488203041639
501.48832424487335
501.48844535878965
501.4885663834836
501.48868731905117
501.48880816558807
501.4889289231898
501.4890495919521
501.4891701719709
501.48929066334216
501.4894110661614
501.48953138052383
501.4896516065248
501.4897717442595
501.489891793823
501.4900117553106
501.4901316288173
501.4902514144382
501.49037111226806
501.4904907224017
501.490610244934
501.49072967995966
501.49084902757335
501.49096828786986
501.491087460944
501.4912065468904
501.4913255458038
501.4914444577791
501.49156328291105
501.4916820212945
501.491800673024
501.49191923819416
501.4920377168998
501.4921561092355
501.4922744152961
501.49239263517615
501.49251076897
501.4926288167723
501.4927467786776
501.4928646547805
501.4929824451755
501.49310014995757
501.4932177692214
501.49333530306166
501.4934527515729
501.49357011484966
501.4936873929866
501.4938045860783
501.4939216942193
501.494038717504
501.4941556560265
501.4942725098808
501.49438927916066
501.49450596395985
501.4946225643718
501.49473908049
501.4948555124078
501.494971860219
501.4950881240172
501.4952043038963
501.49532039995023
501.49543641227336
501.49555234096005
501.49566818610464
501.49578394780127
501.49589962614385
501.49601522122606
501.4961307331418
501.49624616198474
501.49636150784835
501.49647677082584
501.49659195101066
501.49670704849626
501.4968220633763
501.49693699574476
501.4970518456957
501.49716661332303
501.4972812987207
501.4973959019823
501.4975104232016
501.49762486247226
501.49773921988793
501.4978534955423
501.4979676895288
501.49808180194094
501.49819583287166
501.49830978241374
501.49842365065996
501.49853743770285
501.4986511436352
501.49876476854973
501.4988783125395
501.49899177569745
501.4991051581166
501.49921845988996
501.4993316811103
501.4994448218699
501.4995578822606
501.49967086237433
501.49978376230314
501.4998965821391
501.5000093219741
501.5001219819
501.5002345620084
501.5003470623912
501.5004594831402
501.50057182434733
501.5006840861046
501.5007962685042
501.5009083716381
501.50102039559846
501.50113234047734
501.5012442063666
501.5013559933581
501.50146770154373
501.5015793310151
501.50169088186357
501.50180235418037
501.50191374805667
501.50202506358386
501.5021363008536
501.50224745995746
501.50235854098713
501.50246954403445
501.50258046919106
501.50269131654835
501.50280208619773
501.5029127782306
501.50302339273816
501.5031339298113
501.50324438954084
501.5033547720174
501.5034650773318
501.50357530557443
501.50368545683585
501.5037955312063
501.5039055287759
501.50401544963455
501.5041252938724
501.50423506157966
501.50434475284686
501.5044543677645
501.504563906423
501.50467336891296
501.50478275532504
501.50489206574997
501.5050013002785
501.50511045900106
501.5052195420082
501.50532854939064
501.5054374812393
501.50554633764517
501.50565511869894
501.50576382449134
501.5058724551133
501.50598101065606
501.50608949121073
501.5061978968683
501.5063062277199
501.50641448385676
501.50652266537
501.5066307723509
501.5067388048903
501.5068467630792
501.5069546470083
501.5070624567683
501.50717019245
501.50727785414387
501.50738544194036
501.50749295593
501.50760039620303
501.50770776285
501.5078150559611
501.50792227562664
501.5080294219371
501.50813649498303
501.50824349485487
501.5083504216429
501.5084572754376
501.50856405632925
501.5086707644081
501.50877739976426
501.50888396248746
501.5089904526673
501.5090968703934
501.50920321575535
501.5093094888427
501.50941568974525
501.50952181855286
501.5096278753553
501.50973386024265
501.5098397733049
501.50994561463193
501.5100513843137
501.5101570824401
501.5102627091009
501.51036826438616
501.5104737483859
501.5105791611906
501.5106845028908
501.51078977357696
501.5108949733396
501.5110001022692
501.5111051604562
501.5112101479912
501.51131506496444
501.51141991146613
501.51152468758613
501.51162939341424
501.51173402904004
501.51183859455335
501.51194309004376
501.51204751560084
501.5121518713142
501.5122561572734
501.51236037356824
501.51246452028835
501.51256859752306
501.51267260536196
501.5127765438944
501.51288041321
501.51298421339806
501.5130879445482
501.51319160675024
501.513295200094
501.513398724669
501.5135021805649
501.5136055678715
501.51370888667833
501.51381213707504
501.5139153191512
501.5140184329961
501.51412147869945
501.514224456351
501.5143273660405
501.51443020785786
501.51453298189284
501.51463568823505
501.51473832697405
501.51484089819945
501.5149434020006
501.51504583846685
501.51514820768733
501.5152505097514
501.51535274474844
501.5154549127678
501.5155570138988
501.5156590482308
501.51576101585346
501.5158629168563
501.51596475132845
501.5160665193593
501.5161682210382
501.51626985645447
501.51637142569774
501.51647292885735
501.5165743660229
501.5166757372842
501.5167770427308
501.5168782824523
501.5169794565383
501.51708056507863
501.51718160816307
501.5172825858817
501.5173834983245
501.51748434558175
501.51758512774353
501.51768584489986
501.51778649714055
501.5178870845554
501.51798760723426
501.5180880652667
501.51818845874226
501.5182887877506
501.518389052381
501.5184892527229
501.5185893888658
501.51868946089934
501.5187894689131
501.51888941299666
501.5189892932396
501.51908910973174
501.5191888625631
501.519288551824
501.51938817760464
501.5194877399951
501.5195872390852
501.5196866749647
501.51978604772324
501.5198853574504
501.51998460423596
501.52008378816976
501.5201829093416
501.52028196784084
501.5203809637571
501.5204798971799
501.52057876819885
501.52067757690355
501.5207763233836
501.5208750077283
501.52097363002684
501.52107219036833
501.52117068884166
501.52126912553575
501.5213675005395
