495.99999999999994
496.28109655039265
496.5622339509816
496.8434480912178
497.1247715553347
497.40624393624637
497.6878960532432
497.96975606230683
498.2518466835902
498.5341801625786
498.8167771214773
499.0996395363012
499.3827763944567
499.66618581564376
499.94984580141335
500.23374852222605
500.51786272944145
500.8021574580309
501.0865974175299
501.37112757706075
501.65568593219007
501.94020099478246
502.22460035958426
502.50880643080706
502.7927214013602
503.0762404728687
503.35924970857144
503.6416304475275
503.92325078718756
504.2039570639646
504.48359785222056
504.7619999246035
505.0389922901477
505.3143997416641
505.5880388779005
505.8597185384226
506.1292293342111
506.3963613558153
506.6609045066759
506.9226404088481
507.18136063773954
507.43682824388486
507.6888091119173
507.937063810936
508.1813480683854
508.42141753709507
508.65702839698827
508.8879380145411
509.1139035193095
509.33468252188646
509.55004492109975
509.7597476650029
509.9635486440824
510.1612160561468
510.35250917227023
510.5372137884815
510.71510575839824
510.8859735800425
511.04961023132967
511.2058160209288
511.35441016559747
511.49520738415515
511.62803598302605
511.7527428324675
511.86917210449207
511.9771876353224
512.076655920062
512.167466315247
512.2495118730083
512.3226984337914
512.3869469695637
512.4421871858009
512.4883686349367
512.5254588094023
512.5534347290078
512.5722964164413
512.582045327188
512.582710725691
512.5743235632455
512.5569274638481
512.5305806738539
512.4953446977652
512.4513121268502
512.3985887770976
512.3372980114078
512.2675763182538
512.1895621869714
512.1034110996177
512.0092842805752
511.90736774413875
511.79787410359125
511.6810055122687
511.5569841018797
511.42604743864194
511.28843530694496
511.14439154446205
510.99416342948643
510.83801607544405
510.6762228464662
510.5090668983068
510.3368428058191
510.1598473889465
509.97838579558896
509.7927511244666
509.6032475527983
509.41019371794397
509.21389561078064
509.0146763466897
508.81285137959276
508.6087387647743
508.4026781184269
508.19498632263435
507.9859854776428
507.7759825195575
507.56528588205776
507.3542090811328
507.1430522744689
506.93211897798494
506.72169792618206
506.51207099119085
506.3035167793731
506.0962989184094
505.89068925926983
505.6869452883571
505.48530529774695
505.28600544375695
505.0892683269125
504.8953112806519
504.7043240000299
504.51648771327467
504.33198572658955
504.1509703895836
503.97359578127106
503.7999890743607
503.63026550262634
503.46451920843947
503.30283154205597
503.145290498023
502.9919558513658
502.84287685490904
502.6980990508701
502.557620916347
502.4214488745091
502.2895779303807
502.1619879870185
502.0386401831396
501.9194795714726
501.8044355362764
501.69342203775193
501.5863509083167
501.4831255769578
501.3836306306673
501.2877456003901
501.19534572433383
501.1062961508168
501.0204681194423
500.9377027275724
500.85785996554154
500.7807870327508
500.70632840347236
500.6343336825618
500.5646347561056
500.4970687606934
500.43147466551716
500.36768315157383
500.3055392123488
500.24487880301564
500.18556236133736
500.12745375734477
500.0704258647298
500.0143661465728
499.95916688674754
499.9047330303236
499.85097679986126
499.797814301233
499.7451793822248
499.693013219453
499.6412823372855
499.5899461896036
499.5389857336591
499.4884034369537
499.43822111638525
499.38849554439986
499.339286081922
499.2906594660334
499.24269207237774
499.195473879113
499.14911666686754
499.103760087662
499.05956943499166
499.01670279199686
498.9753125045494
498.93557913966396
498.8977015004079
498.8618955548339
498.82838721242996
498.7974074555217
498.7692004765233
498.74400077550956
498.72204262515896
498.7035647122816
498.6887970285493
498.67797605570587
498.67134667457407
498.6691711347816
498.6717015280302
498.6791696742595
498.69181183352197
498.7098365090393
498.73345777270623
498.76287846094255
498.79825353403095
498.83973171641253
498.8874489234803
498.94153737589386
499.00212658865877
499.0692990509365
499.1431091629183
499.2235929957415
499.31077395690613
499.40466462059294
499.50524081775643
499.6124531929229
499.72619455065603
499.8463189774997
499.9726650112002
500.10503955021784
500.2432237671357
500.3869615448171
500.5359787161997
500.68998303027047
500.8486359894766
501.0115949118752
501.1784853873468
501.3489048188219
501.52242602078917
501.69860092464785
501.8769623001176
502.0570056376459
502.23820598144147
502.42001933179387
502.60186621879484
502.7831876831994
502.9634099028678
503.1419353000375
503.31817085819733
503.491515070707
503.6613757613604
503.82717292004565
503.98832898082804
504.144265731696
504.29438557556176
504.4381223149374
504.57492848423306
504.7042783800998
504.8256602278562
504.93856369239813
505.04252169891595
505.1370688630519
505.2217804603148
505.2962806835937
505.3602096796819
505.4132540723933
505.4551467334669
505.48564911776555
505.50458382961415
505.51180150381674
505.5072133188851
505.4907575649844
505.46241383320324
505.4222233969066
505.3702503383407
505.306618715371
505.2315034354783
505.1451234072848
505.04775645465685
504.93973218215984
504.8214314306162
504.69327471856207
504.55574123996763
504.40936168547364
504.2547043869911
504.09236329764343
503.92295815824787
503.74713601451595
503.56560312458333
503.3791001884238
503.1884149831508
502.9943557360123
502.7977417821993
502.5994154947684
502.4002235333998
502.20103743864684
502.0027498380894
501.8062332487401
501.612364021162
501.42201536416746
501.2360659984745
501.0553914834027
500.8808603118167
500.71333708063867
500.5536531291889
500.4026407903506
500.2611177097544
500.1298410023466
500.0095156105994
499.9008063702867
499.80435221498874
499.7207499702553
499.6505606133494
499.59429614927075
499.55240661543786
499.5253025398266
499.5133491767719
499.51684780582684
499.5360257881185
499.5710128641061
499.62191333959703
499.68875845159624
499.77151583460073
499.87007682063637
499.9842391138962
500.11376806012674
500.2583865161388
500.4177752468399
500.59157051372546
500.77933846670754
500.9805849198595
501.19474552185125
501.42120649988163
501.6592947679177
501.90827667889084
502.1673852541937
502.4357927908514
502.71264016867497
502.9970533754423
503.2881148136944
503.58488733539235
503.8863966643152
504.19165319557106
504.4996694984
504.8094344207698
505.11993766161754
505.43015892007435
505.7390829107677
506.0457168489791
506.3490709987678
506.64817853947136
506.9420758155259
507.2298168876662
507.5104941630011
507.7832262875984
508.04719889983767
508.30161794618914
508.54573470734556
508.7788397785061
509.0002765497235
509.209459147763
509.4058466384925
509.58897188128583
509.75842433111325
509.91382347719525
510.05487479987215
510.1813489654247
510.2930695801827
510.38994440612106
510.47191970016297
510.5390237591292
510.5913400537776
510.62901298465033
510.65226204975465
510.66135401035
510.6566406673602
510.6385134827487
510.60741235260843
510.56385140125263
510.5083813547896
510.4415909461408
510.3641032649266
510.27658919687775
510.1797631602374
510.07435702713985
509.9611310734963
509.8408871217002
509.7144404906141
509.5826424746753
509.44633498650796
509.30636846663464
509.16357120693544
509.01877294553
508.8728065766644
508.72647725588246
508.5806018531149
508.4359920783997
508.29341397548194
508.15362206762006
508.0173193083543
507.8851912437172
507.7578944189233
507.63602778848673
507.52015447794963
507.4107819230745
507.3083926387165
507.2133964921688
507.126126365805
507.0468840235352
506.97592757953703
506.9134881337703
506.85971493005223
506.81468836660014
506.77844347252903
506.75094755052856
506.7321307748953
506.7218889757315
506.7200411422658
506.7263614717081
506.7405897821347
506.76246278976635
506.7916654975983
506.82785773265556
506.8706662366405
506.91967483296435
506.9744695582445
507.03458953307023
507.0995186193131
507.1687240636706
507.24164185369943
507.3177360966524
507.3964582447634
507.47725505666483
507.5595869277161
507.6429416411346
507.72682470619714
507.8107521544487
507.89426729401475
507.9769287841993
508.05829804596226
508.13798957369005
508.2156424474252
508.29094011182184
508.3636082341698
508.43339688483206
508.50011936795
508.5636343600635
508.6238432970187
508.68068072510073
508.7341171023498
508.7841828440795
508.83095284210845
508.8745682814115
508.9152169949446
508.9531157775862
508.98853375681443
509.02177583247527
509.0531855229919
509.0831430208779
509.11207806990893
509.1404522840825
509.16874563782443
509.1974686833946
509.22716561364564
509.25838442564384
509.29171281638486
509.32773295133495
509.36703043634174
509.41020516033547
509.45784042535604
509.51053769447446
509.5688705425962
509.6333997021883
509.70468592906207
509.78326152962165
509.86963715103457
509.9642780218527
510.0676239556259
510.1800856147491
510.30200800714624
510.43371271891743
510.5754729081384
510.72751307086514
510.89000018556067
511.0630259565402
511.2466438671834
511.4408455412115
511.64555498767595
511.86064063926455
512.0858904443774
512.321041761178
512.5657701845576
512.8196900647182
513.0823554825473
513.3532437825875
513.6318006733947
513.9173940328212
514.2093136515722
514.5068189437169
514.8091041308044
515.1153363254335
515.4246194642586
515.7360061990528
516.048529679208
516.361179025041
516.6729166786413
516.9826650623514
517.2893261204684
517.5918013006832
517.888976847277
518.1797333066974
518.462919700436
518.7374129220888
519.00211434931
519.2559271076478
519.4977793051191
519.7266187285021
519.9413938965035
520.1411113490143
520.3248098791848
520.4915629696803
520.6404628150653
520.7706405477651
520.8812879743729
520.9716418508422
521.0410273281303
521.0888095730317
521.1144195213326
521.1173753269647
521.0972515074988
521.053715811773
520.9864539973876
520.8952644037712
520.7800612047762
520.6408000661229
520.4774796787749
520.2901811971747
520.0790635464299
519.8443609533983
519.5863715803189
519.3054788532559
519.0021176459685
518.676788075351
518.3300645205244
517.9625672188243
517.5749904434408
517.1680711779339
516.7426034270025
516.2994347845664
515.8394631319795
515.3636378651274
514.8729345966796
514.3683667062174
513.85096807135
513.3217995069813
512.7819596839931
512.2325613085006
511.6747247390284
511.10959780848566
510.53833647741334
509.9620854679423
509.3819981234167
508.79923036122466
508.21493722139576
507.63022781837884
507.0462207220609
506.4640031130921
505.8846580588143
505.30924629356576
504.73878830838913
504.17429240536757
503.6167172875448
503.0670049376095
502.5260701676805
501.99477300043657
501.4739259489953
500.9643010929983
500.4666395347609
499.98164378962946
499.5099638991268
499.05222758660125
498.6089897427748
498.18076493377913
497.76804024445653
497.37124493060287
496.990777321116
496.62697261038
496.2801252064929
495.9504804480547
495.63824600208164
495.3436078663153
495.0667009420985
494.80761690976965
494.56642090363
494.343137794274
494.1377583932873
493.9502212194281
493.7804530054992
493.6283639070672
493.49380138190566
493.37660648819167
493.27658910556073
493.19353613728236
493.1272240921882
493.07738785258556
493.0437549131893
493.02603797284354
493.0239277376645
493.03711636019847
493.0652727443867
493.1080571272846
493.1651223221479
493.23611300449716
493.3206692540103
493.4184165962928
493.52897570582627
493.6519632248503
493.78699020938853
493.9336869906042
494.09166042152975
494.26052522850443
494.43989366061504
494.6293915638635
494.82865941525034
495.03732286023137
495.25502216824106
495.48138445794336
495.71605048099525
495.95866870339205
496.2088827492582
496.46635816075286
496.73075435091636
497.0017582124242
497.2790277805392
497.5621978152059
497.85094187493576
498.14495448052406
498.44391398592654
498.74750616787526
499.0554103258338
499.36732918906256
499.68295994569013
500.0020069867755
500.3241859947108
500.6491930221693
500.9767522338929
501.3065784187443
501.63839434830226
501.97192411841417
502.3068755032478
502.6429658224311
502.9799148437459
503.3174423122498
503.655276521017
503.99314553207785
504.33077297918317
504.6678758204656
505.00417726880835
505.33941560672685
505.67331825679867
506.0056151522095
506.33602592477064
506.6642643245713
506.9900531085158
507.3130996191903
507.63313955686937
507.9498956427236
508.2631019414021
508.57248882342293
508.8777788882014
509.1787136387206
509.4750144923871
509.7664181047699
510.0526569190324
510.3334526646018
510.60855134383297
510.8776996563612
511.14064794109083
511.39714845932394
511.64694260280004
511.8897982357284
512.125476981173
512.3537567029068
512.5744170392148
512.7872200626717
512.99195841413
513.188420487032
513.3764171086971
513.555769022605
513.7263100171289
513.8878879006426
514.0403323971858
514.1834861313223
514.3172134699025
514.4413766239384
514.5558554336218
514.6605519087942
514.7553798213694
514.8402519304535
514.9150820426846
514.9798243784797
515.0344366197351
515.0788888623337
515.1131748136942
515.137274813957
515.1512061816794
515.1549882379916
515.1486509958311
515.1322547940941
515.1058553881833
515.0695323967429
515.0233717609352
514.9674655179687
514.9019421166319
514.8269204155146
514.7425379328963
514.6489417671133
514.546288284399
514.4347557534703
514.3145131911899
514.1857592891197
514.0487001484188
513.9035556298917
513.7505526031136
513.5899092256507
513.4218693782306
513.2466758734415
513.0645765209833
512.8758322227079
512.6807031807367
512.4794746306966
512.2724192700862
512.0598120940406
511.8419450313196
511.6191091603888
511.39160776128125
511.15972746139715
510.9237572305322
510.6839987369849
510.4407484255463
510.1943124320433
509.94498422325063
509.6930636771486
509.43885002642804
509.1826325830079
508.9247253379871
508.66542082597533
508.4050073589555
508.14377290474425
507.8819935694635
507.61996167752034
507.35796374462114
507.0962715946922
506.8351705882893
506.57491790384745
506.3157706487708
506.0579832058093
505.8018134936263
505.54750964700577
505.29530530862525
505.0454388446211
504.7981223908536
504.55358315275606
504.312050160068
504.0737324227314
503.8388387600552
503.6075690915427
503.3801166223958
503.15666565963
502.9373848602485
502.72244678946464
502.5120036761405
502.30621130742117
502.10522016032047
501.90916658888193
501.7181926096985
501.53241522488474
501.35195258932686
501.17692184270686
501.00742611095416
500.8435833378665
500.68547199166636
500.53314844573504
500.3866834736394
500.246137744942
500.11158387440236
499.9830628972083
499.8606193251611
499.7442813711802
499.6340629174617
499.5299784727385
499.4320208436691
499.3401937093699
499.25449865331643
499.17490693508915
499.10140108229456
499.0339509015935
498.9725136134063
498.91704488399205
498.86748599817724
498.8237817732856
498.7858611432555
498.75364172569874
498.72703430636346
498.7059339651012
498.6902573135274
498.6798969559984
498.6747416042501
498.6746786084894
498.67957229294575
498.6892969096001
498.7037127759105
498.7226818642193
498.7460681954173
498.7737052862913
498.80544218275014
498.8411152214343
498.88057017911615
498.9236562429994
498.97019165320467
499.02001220429787
499.0729452744095
499.12880574702876
499.18741795109975
499.2485960390529
499.312170613096
499.3779585175839
499.4457829037737
499.51547375202017
499.5868487515418
499.6597355999399
499.7339437304647
499.8092927700744
499.8856213954337
499.9627481900169
500.0405135351918
500.11875151838314
500.1972969773732
500.27599461427945
500.35468834950126
500.43323044699304
500.51147744363533
500.58928834712003
500.66652932970544
500.7430652271463
500.8187751368523
500.8935283679955
500.96721059554136
501.03971747423935
501.11094176898825
501.18079104787284
501.24917467690926
501.31599944905906
501.3811958259626
501.44466972329565
501.5063591977274
501.5662081241171
501.62416859584147
501.68018356797427
501.7342107575496
501.7862158986134
501.83615946815735
501.88402949180056
501.92982207458857
501.97350879347977
502.01507150960595
502.05450838342057
502.0918159631525
502.126999804677
502.16006320145686
502.1910221581797
502.2198985228082
502.2467133538964
502.27149996731544
502.2942796303391
502.3150963210124
502.33398375387907
502.3509740686249
502.3661150173284
502.3794389640608
502.39098876575974
502.40079740401393
502.4089115673706
502.41539832190443
502.4203014593563
502.4236741253068
502.4255587906527
502.4260067077739
502.4250689781647
502.42279418977904
502.4192459020761
502.4144808570884
502.4085492800573
502.40149932468955
502.3933658257845
502.38420944278516
502.37407283084013
502.3629979927414
502.35103256126814
502.3382077062945
502.3245707554845
502.31015880532465
502.295009539172
502.27917429488497
502.26269434690306
502.24560793099863
502.2279326711302
502.20969356951593
502.19092266368
502.17164133605075
502.15188653455795
502.1316824460366
502.1110603534357
502.0900522876466
502.06866503749364
502.0469283509605
502.02486432427594
502.00249642189254
501.9798430315627
501.95691076977346
501.9337317902672
501.9103181969195
501.88668621839406
501.8628651152309
501.83886247707636
501.8147014723757
501.790394598401
501.76596123625495
501.7414211352698
501.71678351753854
501.69207332220253
501.66730936049
501.64251985975915
501.61774721346956
501.5929936545563
501.56827811237247
501.54362041926373
501.5190409760986
501.49457612158204
501.4702455062429
501.44608494477603
501.422126799741
501.3983979596301
501.3749308373666
501.351750196065
501.32889492584536
501.30640490759737
501.2843190092311
501.2626730282022
501.24150180839814
501.220841404036
501.20073551762664
501.1812222442607
501.162356017977
501.1441661062632
501.1267135589346
501.1100498011424
501.0942211743419
501.0792777070127
501.0652754741442
501.0522614587638
501.0402799031022
501.02939169592753
501.01965453184926
501.01110521092346
501.0038120009585
500.99785082111555
500.99328376534805
500.99017686366915
500.98858706964
500.98858192485983
500.9902263133834
500.99357787430273
500.99871742281516
501.00570955599517
501.01463336904453
501.0255473339025
501.03852175092646
501.05364518753265
501.0709785970689
501.09060549742776
501.1126012370251
501.1370394940511
501.16399866499603
501.19354844971485
501.2257692402695
501.2607409617982
501.2985386078127
501.33924312192545
501.38291934370653
501.4296375463695
501.47945303904925
501.532418318739
501.5886107109425
501.6480861898784
501.71091213503286
501.7771341282465
501.84680170225903
501.91995697295084
501.9966231038711
502.0768429765922
502.1606437044083
502.2480451363591
502.33906173486156
502.43367351680973
502.53186451616284
502.63361972113876
502.7389159427296
502.84772158743255
502.95998748864923
503.07566405657957
503.1946747376427
503.3169353420231
503.4423448054784
503.570780158238
503.7021399085337
503.8362828409718
503.9730497504926
504.1122826889388
504.2537940899783
504.3973973090365
504.54287804712476
504.69001849149146
504.83858874877023
504.9883317305371
505.1389919653228
505.2902853603163
505.4419213996247
505.59359911462883
505.74499442919665
505.8957935775828
506.0456654373748
506.194260393269
506.34122002015425
506.4861512913655
506.6287015542857
506.7685051847318
506.90517202900986
507.03830828654856
507.16750643017133
507.2923810810698
507.41253074497115
507.52755866619356
507.6370806906395
507.7407028257964
507.83804253390923
507.9287234936072
508.0123747026771
508.0886429127864
508.1571746797793
508.21763112559563
508.26969821212936
508.3130576635368
508.347421113752
508.37250062247205
508.38804712256893
508.3938165661233
508.3895904610043
508.3751877371556
508.3504375507382
508.31520237419096
508.2693769785759
508.21288543427323
508.1456691186373
508.0676918336391
507.97897341565664
507.87955790249595
507.76951222505875
507.64894448398593
507.5179960145618
507.3768554747711
507.2257445897935
507.0649082288805
506.89463925308553
506.71524604824356
506.5270876553869
506.33054537573173
506.1260270712653
505.91397517537996
505.69485205934177
505.46918663365585
505.2375205699755
505.0004332476087
504.7585359751004
504.5124683515365
504.26290989152045
504.0105567878228
503.7561138330531
503.5003231296523
503.2439358049366
502.98773851145756
502.7325340698489
502.4791418948136
502.2284027947161
501.9811287778726
501.73816618863236
501.5003624354345
501.26857445060097
501.04366627818223
500.82649589555405
500.6179284727971
500.4187968213085
500.2299225650419
500.05213488972385
499.8862304871333
499.7330103540132
499.59325542089266
499.46771093654695
499.35710577627844
499.2621367232956
499.1834615436871
499.12168739268196
499.0773938456172
499.05113407302844
499.04341456399175
499.0547080537677
499.08542040319685
499.1359188443737
499.2065299593197
499.2975026796516
499.40904566353663
499.5412990830496
499.69434589829723
499.86822110337306
500.0628796672207
500.27822819626914
500.5140998917105
500.77027355173414
501.0464644259482
501.34231313398504
501.6574098988642
501.9912598728277
502.3432964706715
502.71290581785564
503.09939478894324
503.5020337659559
503.92000535360427
504.35243622026695
504.7984075388566
505.2569419884791
505.72701515359296
506.2075340875768
506.6973574278186
507.1953112116257
507.70016338956526
508.21066448083644
508.72552741401535
509.243422877382
509.7629876878324
510.28282423935264
510.8015372111269
511.3177138875438
511.8299199785973
512.3367348945477
512.8367150765259
513.3284404611608
513.8104998099762
514.2814938990703
514.7400365153861
515.1847396699682
515.6142684352777
516.0273149130824
516.422609455425
516.7989273975153
517.1550848663576
517.4899541747026
517.8024415442774
518.091512262193
518.3561914393787
518.5955645089941
518.808790413962
518.9950904581258
519.1537477491628
519.2841435608574
519.385717067272
519.457994867617
519.5005719878369
519.5131408091586
519.4955182840462
519.4475886919522
519.3693274774984
519.2607674518621
519.1220321801082
518.9533317960935
518.75494980116
518.5272491072252
518.2706509989473
517.9856637074009
517.6728955679669
517.3330092680777
516.966754594632
516.574941814035
516.1584410342901
515.7181899193686
515.2551616442803
514.7704180705276
514.2650622906821
513.7402391424581
513.1971376188808
512.6369666528999
512.0609874839303
511.4704825855621
510.86676862746066
510.2511898925896
509.62507864344286
508.9898027878489
508.34673492573813
507.69724124574276
507.0426946111155
506.3844483504415
505.723842719645
505.06222018001654
504.40092170745027
503.7412684724445
503.08452826059386
502.4319494410211
501.78474230834627
501.1440847303809
500.51113027852125
499.886983840477
499.2727193094316
498.66935820647893
498.0778746332794
497.49920691959863
496.93421903318875
496.3837386512767
495.84853624360414
495.3293459566997
494.8268454030416
494.34164447379806
493.87430912709306
493.42534361852876
492.9952014266354
492.5842920961319
492.192964150226
491.82154526194915
491.4702910462946
491.13939964691826
490.8290282130721
490.53927868549016
490.2702188127518
490.0218770732294
489.79424023101626
489.5872643561013
489.4008309794501
489.23479685302595
489.08898205727843
488.96317564904473
488.8571481925775
488.77064067895515
488.7033691049874
488.65501342575925
488.6252346295169
488.61368103834917
488.61996179700265
488.6436946499812
488.68446624412456
488.74183597513843
488.81536352995124
488.90459274063085
489.00907737234706
489.1283477525668
489.26193181097517
489.4093563375769
489.57013074600746
489.743770129341
489.929787547807
490.1277017953214
490.33703643380204
490.557316715341
490.7880775765471
491.0288430333634
491.2791490867647
491.53854918453993
491.80658031892494
492.0828054289201
492.36679019921013
492.65811714464394
492.95637110232815
493.2611064783705
493.57190569242795
493.8883544793602
494.21005020238414
494.53660578282097
494.86762726545646
495.202750443263
495.54161868941105
495.8838919489228
496.229229561066
496.5772790880729
496.9277151558494
497.28020399056686
497.63442034777256
497.9900622332843
498.34680901480135
498.70437587904695
499.0624676243645
499.4207915055502
499.7790721960876
500.13702754728865
500.49439922660457
500.85091551711525
501.20631089249383
501.56033240722286
501.9127176889697
502.26322777597034
502.61161431964734
502.95762373906257
503.30101873679655
503.6415518370018
503.9790002918788
504.3131487875106
504.6437679883781
504.97062979925846
505.29350042109974
505.6121708696814
505.9264287400962
506.23605625014665
506.5408543663346
506.84060122001046
507.1350825012573
507.4240888086431
507.7074175921981
507.98488411202754
508.2562844260681
508.5214372044546
508.78016001836056
509.0322741347292
509.27759589950807
509.5159344979221
509.74713134252596
509.9710209991936
510.18744263634693
510.3962536145651
510.5973060333152
510.790462663039
510.97556867455773
511.15248433135423
511.32110052178285
511.48129337046333
511.63295750732203
511.7759866198036
511.9102690607807
512.0357225747387
512.1522570496388
512.2598165538298
512.3583516331145
512.4478243038502
512.5282064600952
512.5994520049704
512.6615319144511
512.7144406373737
512.7581787506676
512.792761892628
512.8182011261449
512.834540207395
512.8418183859537
512.8400856836046
512.8294226654871
512.8098946901817
512.781591258035
512.7446104329323
512.6990608848024
512.6450704626432
512.5827531632987
512.5122547811053
512.4337263728745
512.3473284695335
512.2532418189752
512.1516366268531
512.0427028804652
511.92663017360087
511.80362484704403
511.6739008483074
511.5376704678624
511.3951702072578
511.24663202662384
511.09229390464316
510.9323949162613
510.76717665952856
510.5969067950527
510.42183942079106
510.24223654855575
510.05837425812564
509.8705161782481
509.67894385343163
509.4839213288129
509.2857163290414
509.0845951396102
508.8808285343894
508.6746956738369
508.4664617607002
508.25640593170186
508.0448122175043
507.8319277496449
507.6180345580956
507.4033901154278
507.18825541906824
506.9728947029016
506.7575489175383
506.5424703476035
506.32789151755287
506.11404876968453
505.90118408584163
505.68951863794945
505.4792811080162
505.2706878468509
505.0639493101437
504.8592722415865
504.6568419904765
504.45686815256624
504.2595276478846
504.06498638229084
503.8734229148501
503.68499336475986
503.49985759316667
503.3181549261157
503.1400191697154
502.96559591965155
502.7950009518086
502.62836623226184
502.4658052764932
502.30741998515066
502.1533159409961
502.00356077795607
501.85823648673426
501.7174216117338
501.5811912997924
501.4496089446697
501.32271992245376
501.2005824284119
501.0832259719293
500.9706775547437
500.8629638378289
500.7600935227634
500.6620769318907
500.56891724860486
500.480612899804
500.3971556682248
500.3185131495364
500.24466362709177
500.17557421735336
500.1112162671006
500.0515658416617
499.9965539529048
499.94612783867086
499.9002268296745
499.8587868715665
499.8217230819144
499.7889382278522
499.76035543214505
499.73589445269357
499.71545672600195
499.6989497063734
499.6862587093214
499.67728659446755
499.6719146986749
499.6700161955613
499.671469323153
499.67612885841373
499.68388079429826
499.694596831323
499.708139301994
499.7243746607326
499.74314959307964
499.7643372483208
499.78779183882426
499.8133644118879
499.8409184339749
499.87029506301536
499.90135510437017
499.93394658513716
499.9679226073711
500.00315040561145
500.03948341303766
500.0767858907643
500.1149136032938
500.1537272142486
500.1931034932937
500.23291181180315
500.2730278300945
500.31331834188
500.35366544526966
500.39395798471145
500.43407855493405
500.4739255452593
500.51339797065833
500.55240226014865
500.59085032101024
500.628655391562
500.66574094667607
500.7020384892297
500.73749212702376
500.77204566775185
500.8056272476948
500.8382083668913
500.8697470320834
500.900207493431
500.9295667219583
500.9577944997372
500.9848861348493
501.0108296051217
501.0356274171951
501.05929655679734
501.0818378301413
501.1032663903202
501.1235960942289
501.14284556634937
501.1610508039737
501.1782496653962
501.1944907524864
501.20979593399454
501.2242165380576
501.23781554059263
501.25063467597124
501.26273578004196
501.27416769124585
501.28499217541173
501.29527927257595
501.3050785826775
501.3144494839019
501.32344297847413
501.3321251175209
501.3405658253411
501.3488058554703
501.3569264433052
501.36499461212173
501.3730587694504
501.3811612804448
501.38934872322136
501.39767808394686
501.4061924885844
501.41493191055713
501.4239438981519
501.4332593642534
501.4429077277067
501.45292093655087
501.4633201062721
501.4741263908104
501.4853543668496
501.49703178971924
501.50917148184595
501.52178481064266
501.5348642595723
501.54838750311563
501.5623609834903
501.5767741499589
501.59160831483143
501.6068497035541
501.62247875091145
501.63847721399867
501.65481755104776
501.67145863311003
501.68837632887295
501.7055264263308
501.72287558842083
501.740375233163
501.7579790796756
501.7756543350856
501.7933558912839
501.81105099783196
501.82868243065866
501.8461991428778
501.86356513839127
501.88072926085255
501.89765191633234
501.9142834123238
501.93057948771013
501.9465104721897
501.9620178810189
501.9770714492922
501.9916321285866
502.0056677824465
502.01916012045666
502.03206776532033
502.0443723504418
502.0560524543622
502.0670926772008
502.0774883274126
502.08721275173525
502.09627196791865
502.10466763774053
502.11241064399525
502.1195192376176
502.12600399325146
502.1318898466819
502.1372030633269
502.14196689522316
502.1462277059078
502.15002658183823
502.15343243749214
502.1565118542605
502.15932297428594
502.1619351441387
502.16440678167845
502.1668333457961
502.1692968390537
502.1718874482421
502.17471651813827
502.1778793366698
502.18149438119997
502.18567024794766
502.1905294488279
502.1962059342231
502.2028075395055
502.21046791538924
502.21932847100464
502.2295359537573
502.2412445279931
502.2545870500828
502.2697116092426
502.28676553229707
502.30590601334245
502.32728650244513
502.3510449598944
502.37733599122953
502.40629955544796
502.4380887204867
502.47285592337397
502.51073269328145
502.5518618632297
502.5963773535838
502.64441238458096
502.69609440221143
502.75152910544136
502.81084155141275
502.8741142300974
502.9414340409331
503.0128912890992
503.0885639191644
503.16851931126985
503.2528049537668
503.3414587276471
503.4345170771649
503.5319838762407
503.6338692397661
503.740167307294
503.85084281918785
503.9658568228197
504.08514876780333
504.2086493312921
504.33625147792054
504.4678469628739
504.603316992174
504.7425234337133
504.8853244500639
505.0315462851774
505.1810052883869
505.3335082259649
505.48881984388015
505.64670459246184
505.8069115371797
505.96917261783386
506.13322077116214
506.29874244072994
506.4654326941736
506.6329738847608
506.8010365580407
506.9692892763677
507.13736907820623
507.3049152537161
507.47156146415665
507.63693697018533
507.8006702542626
507.96236181950354
508.1216290912101
508.2780814004219
508.4313213127761
508.5809633470228
508.726606676516
508.8678824397604
509.00440932406786
509.13581474625204
509.2617472842788
509.38183878342704
509.49575173199344
509.6031477585236
509.703701953984
509.7971127380767
509.88308105581166
509.96135098760294
510.03165627581797
510.09375624694843
510.14743874846124
510.1924990418842
510.2287668449695
510.25608952607575
510.2743436958944
510.2834426207698
510.2832954979156
510.27384946768854
510.2550655320444
510.2269336906666
510.1894905430498
510.1427758570945
510.08688757487005
510.0219404852466
509.94808196741735
509.86548823343816
509.7743472438588
509.67488966519056
509.56736067109296
509.452033141399
509.3292184606094
509.1992355917827
509.06245916565
508.91927146204347
508.77005558473337
508.61522277749884
508.45519760761
508.2904426155801
508.1214304382378
507.94866170816147
507.7726699988963
507.5939789059797
507.4131399522789
507.23071775444544
507.04730165869654
506.86348914656713
506.6798625916159
506.4970226677801
506.31557115289405
506.1361221392935
505.95929361542835
505.7856815059647
505.61591457420747
505.4506088865884
505.29038846891643
505.1358578928732
504.9875984547471
504.8461989897439
504.7122343036693
504.58626799999246
504.4688509677761
504.36050658759876
504.2617619341736
504.1731113097013
504.0950257363985
504.02796470894725
503.97234422156504
503.92856808648236
503.89700887944076
503.8780198705145
503.8719273294088
503.8789920756709
503.8994648423464
503.93355396111497
503.98143928142264
504.04326430361596
504.11911523164406
504.2090657625734
504.3131411262497
504.4313282272312
504.5635815704686
504.7097921555555
504.86983311457885
505.04351576836166
505.23060453430014
505.43084265162867
505.6439061285917
505.8694520918398
506.10709729806473
506.3563991100502
506.61688896168823
506.8880402656659
507.16930442602614
507.46008785901387
507.7597575877209
508.0676602442983
508.3830909312843
508.7053322269468
509.03361236894057
509.3671333818395
509.70508162986175
510.04660343559317
510.3908400868324
510.7368974665444
511.0838746652068
511.43086435290127
511.7769403187787
512.1211715038415
512.4626053382623
512.8002969539
513.133310175046
513.4606945073053
513.781519068323
514.0948671833038
514.3998290300383
514.6955073919037
514.9810077183571
515.2554806546154
515.5180968932491
515.7680525931196
516.0045855626398
516.226943169057
516.4344376579536
516.6264006087383
516.8021872269352
516.9611952482369
517.1028592470986
517.2266709940811
517.33217342529
517.4189547016643
517.4866751046511
517.5350172052498
517.563725521186
517.572582244721
517.5614352323756
517.5302309043045
517.4789539897529
517.4076506489306
517.3164184781947
517.205409507089
517.0748219362621
516.9248802339907
516.7558869948849
516.5681894444918
516.3621763161664
516.1382828889595
515.896973719304
515.6387865682591
515.3643043255136
515.0741533541575
514.768999535601
514.4495244325885
514.1164669686527
513.7705728159176
513.4126133126992
513.0433932193714
512.6637411081734
512.274524169701
511.8766017751425
511.4708421201136
511.0581341354172
510.6393819433118
510.21549539140756
509.78736966055646
509.35589950178127
508.921989122007
508.4865141629904
508.0503647149776
507.614418403226
507.17953569028333
506.7465685458211
506.3163187899361
505.8896147321021
505.46724823573913
505.04998434032484
504.63856433414185
504.23368473042524
503.8360420543456
503.4462837768332
503.06503804413256
502.69289978241994
502.3304147488355
501.9781205037157
501.6365110906762
501.3060567490782
500.9872064103724
500.68033762649003
500.3858288627005
500.1040094534868
499.8351620016662
499.57956622719934
499.3374446796545
499.1090005057583
498.8944026159043
498.6937883045552
498.5072835137513
498.3349643016541
498.17689495732844
498.03309815272763
497.9035908828037
497.78837489943726
497.6874054506322
497.600625388475
497.5279575312057
497.46931484085974
497.42458664154225
497.3936311073868
497.376293654126
497.3724142783938
497.38182428218744
497.40435196657296
497.4397910951579
497.48793699377586
497.5485742731383
497.62146211459924
497.70636305877053
497.80302364621133
497.91120764673417
498.03066377590693
498.16113724092185
498.30237250566415
498.454093999386
498.61605024683706
498.7879706537592
498.96957477803295
499.1606034627994
499.36079332354353
499.5698887274962
499.78762971698427
500.013741894504
500.2479720375344
500.4900382271459
500.73967614461867
500.9966241151419
501.2606235823464
501.53142169435574
501.8087295127631
502.0922760181363
502.38178774969793
502.67698378177096
502.9775945877889
503.2833394492714
503.5939566854329
503.9091704458684
504.22870992516084
504.552309044973
504.87968660258827
505.2105811759222
505.54471388672954
505.8817991071303
506.2215505490043
506.56366319249344
506.9078522023271
507.25382198095963
507.6012725645194
507.94991268180024
508.2994378570271
508.6495392431173
508.9998925170484
509.35018829885297
509.700134677857
510.04941648375745
510.39769584260785
510.7446405485294
511.0899219246802
511.4332173797387
511.7741801700477
512.1124945666328
512.4478284197111
512.7798359297716
513.1081819865182
513.4325183607199
513.7525259162065
514.0678562147845
514.3781623660229
514.6831144979275
514.9823651856705
515.2755915854881
515.562456495267
515.8426416409803
516.1158219611971
516.381663877954
516.639856301586
516.8900824236968
517.1320418366862
517.3654510200781
517.5900090103213
517.8054485362196
518.0114907744867
518.2078721409745
518.3943559961045
518.5706830692037
518.736633244915
518.8919979178813
519.0365788731077
519.1701980301835
519.2926566423015
519.4037969529928
519.5034653182961
519.5915235797682
519.6678514028089
519.7323243095694
519.7848595897777
519.8253835949354
519.8538340350956
519.8701751961113
519.8743804754279
519.866456723839
519.8464227782919
519.8142988242656
519.7701324959704
519.7139656940878
519.6458802058405
519.5659712613752
519.4743473839071
519.3711434583881
519.2564945132214
519.1305749903183
518.9935526415105
518.8456144846207
518.686966366256
518.5178128964794
518.3383810102063
518.1489015331764
517.9496278648119
517.7408377248199
517.5228000659902
517.2958006923069
517.0601240027356
516.8160630138987
516.5639424976525
516.3040657791252
516.0367621686689
515.7623622368212
515.4811971544866
515.1936110623924
514.8999340118314
514.6005161720329
514.2957008327776
513.9858323719277
513.6712708964983
513.3523566745931
513.0294511595915
512.7029016039029
512.3730560645233
512.0402541682535
511.7048285962517
511.3671197744849
511.02745777497586
510.68617050089495
510.34359423674283
510.00004061896277
509.6558337014507
509.3112834578419
508.9666899007902
508.6223559888421
508.2785720277336
507.93562417447754
507.5937944218006
507.25335415130655
506.91457273960043
506.57768204281444
506.2429304634597
505.9105718498552
505.58083954903117
505.25396617891704
504.93016165203125
504.60965257779714
504.29263853975834
503.9793139228664
503.6698876622334
503.36453323640933
503.0634347874111
502.76675860924115
502.4746751597331
502.18734407931805
501.90490110301334
501.62749733432645
501.3552730292526
501.0883643445134
500.826896953713
500.5709861225698
500.3207632819824
500.0763480970956
499.83784902653196
499.60536577274365
499.3789693582925
499.15874987684646
498.94478557424105
498.7371514536835
498.535925733428
498.3411612376791
498.15292688875155
497.97127037381546
497.796235297659
497.6278761814716
497.4662124811348
497.3112965591562
497.1631526569498
497.0217989984898
496.8872588504377
496.75953215073395
496.63863064025423
496.5245538778356
496.41729370730036
496.3168519638917
496.22319912253573
496.136309391954
496.0561407851924
495.9826456942385
495.9157903866914
495.8555090359289
495.80174524024534
495.7544299172212
495.71348756398027
495.6788447754438
495.6504104870125
495.62810894232183
495.6118316755324
495.60147687811036
495.59693627341403
495.59807981986836
495.60479950272384
495.61697910024145
495.63448385806385
495.65716505320916
495.68486850660895
495.7174432605259
495.7547307281234
495.7965736962947
495.8428189759488
495.8932761093415
495.9477809114234
496.00615633979936
496.068221707149
496.1337975281829
496.2026883995413
496.2747117876637
496.3496743682893
496.4273855708587
496.50765805480745
496.59028407892487
496.6750642409164
496.7617856055489
496.8502478218369
496.940256718641
497.03161386858517
497.1241302650296
497.2176093651107
497.3118497215348
497.4066692417046
497.50186385327083
497.5972538257908
497.69265574339846
497.78788728656366
497.8827808058233
497.9771619785597
498.07085018711496
498.163669431341
498.2554656445648
498.3460982847825
498.43540814046514
498.5232615500268
498.6095201202919
498.6940430515627
498.7767200789788
498.8574302581234
498.93607089750225
499.012538094945
499.08673565353183
499.1585840827503
499.227979015314
499.29485885536104
499.35916097563535
499.4208284156533
499.47981432113687
499.5360798480939
499.5896032350278
499.6403669282484
499.6883489167144
499.7335488581073
499.7759551637112
499.8155776526284
499.8524361310467
499.8865491474404
499.91795792730437
499.94669568484835
499.97282269832243
499.99639786602773
500.0174873880365
500.0361778555285
500.0525456639774
500.06669433499394
500.0787262878666
500.0887474702788
500.09687178527474
500.103190012727
500.1078348468874
500.11092345568807
500.11258754815896
500.11297518748916
500.1122242495442
500.11048619346184
500.1079212812233
500.10468284744974
500.1009300502718
500.09681177024686
500.0925030045467
500.0881717271337
500.0839873516287
500.0801356440771
500.0767855374512
500.07412619327243
500.07234741381995
500.07163103590835
500.07216405322174
500.0741121113117
500.07765625861754
500.0829638671863
500.09020779137825
500.0995549012712
500.11115874978884
500.1251981911132
500.1418351488603
500.16122280548853
500.18352050351245
500.2088804037068
500.23744722458173
500.2693644015602
500.3047540475906
500.3437470441445
500.38644954091643
500.432984149677
500.48344363020067
500.53791429946546
500.59648189547806
500.6592135293491
500.72618568882564
500.7974511367168
500.87305618935665
500.9530360267
501.0373968367693
501.1261569477171
501.2193203992103
501.3168792737905
501.41880710127595
501.52504980352467
501.6355558503032
501.7502451323244
501.86903912336277
501.9918563119178
502.11856837885523
502.2490589383944
502.3831970300802
502.5208350043321
502.66181096286897
502.80593134240985
502.95301230881336
503.1028647995032
503.25528020268825
503.4100221496777
503.56683312529054
503.72545873043623
503.8856327120852
504.0470752211564
504.2095088239483
504.3726153936994
504.5360846493493
504.699603673129
504.86283359986885
505.0254409547011
505.1870763314528
505.3474082136579
505.5060804152451
505.66272391802494
505.8169751186434
505.96846124738465
506.11681650285743
506.26167425004223
506.40266148195354
506.53942403340204
506.6715840390605
506.798795863391
506.9207124887142
507.03697364505535
507.14724183302116
507.25117266085806
507.3484640407283
507.43880955419075
507.5219131638574
507.5974970968666
507.665278880508
507.72500071430915
507.7764104789894
507.8192753276296
507.85338662782857
507.87855182158427
507.8946127789556
507.90142475593706
507.898859301498
507.8868202690624
507.8652158930943
507.83399428262555
507.7931264699843
507.742591561707
507.6824075489376
507.61262070581415
507.5332930074316
507.44450661430585
507.34637468126044
507.239039245621
507.12264694850523
506.9973747414924
506.8634269611405
506.72103673536975
506.57047435469065
506.4120100510377
506.245957642251
506.0726458478574
505.8924158884355
505.70564298942725
505.512711934201
505.3140386676102
505.1100302062652
504.901105137182
504.6877094182873
504.470290682974
504.2493140392944
504.0252645669412
503.7986301958991
503.569933039003
503.3396865565755
503.10841410654
502.87663893200994
502.6448915861498
502.4137043668836
502.1836011703202
501.9551135462482
501.72874409479414
501.50500385683284
501.28439714790017
501.0674108686123
500.8545477226519
500.6462851968519
500.4430849161108
500.24540419093245
500.0536836546511
499.86836599022024
499.6898624139327
499.51857835951165
499.35489544199095
499.1991533200282
499.05169944006235
498.9128403914613
498.78283674738174
498.66193891106866
498.55037486233607
498.4483735414655
498.35610537890983
498.27371659929867
498.20133940263855
498.1390653931345
498.08697161557467
498.04510507315825
498.0134739122383
497.9920669555136
497.9808272940135
497.97969390607693
497.9885713265485
498.00732114733773
498.0358017510526
498.0738230118772
498.1211664810082
498.17758766587775
498.24282933667234
498.3166245699746
498.39867187161735
498.48864756607753
498.5862005060107
498.69095973077987
498.80255536742646
498.9205676885735
499.04458557204026
499.17417724937064
499.30889615939094
499.4482936590373
499.5919033330848
499.7392581104538
499.88985455733905
500.04319984130984
500.1988063513269
500.35616907031346
500.51479983403664
500.67421359867376
500.833925932966
500.9934636209297
501.15235997776034
501.3101546649193
501.46639780323244
501.62063635368577
501.772455012976
501.9214230898225
502.0671484449611
502.2092459049319
502.3473559439199
502.48115480308894
502.61031014653406
502.73451268033006
502.85349208758566
502.9669938039963
503.07480598411695
503.176727555041
503.2725867002792
503.36224369031606
503.44556716864
503.5224448022443
503.592769115985
503.65649093711875
503.7135723171147
503.76399187581444
503.80777844264907
503.8449617018007
503.87561914465033
503.8998466319404
503.9177688242607
503.92954110704665
503.93531870703015
503.9352957440238
503.92968534380844
503.9186953771819
503.9025584198039
503.8814978014842
503.8557523287177
503.82558336246103
503.79125143163174
503.7530409088192
503.711243253685
503.66615373184726
503.6180767994662
503.5673296254792
503.5142327287208
503.45909396286754
503.4022340968676
503.3439618136187
503.2845770519323
503.224391859846
503.16369875202935
503.102789307939
503.04193972280575
502.9814160674374
502.9214816018713
502.8623733698398
502.80435124664496
502.747644450283
502.6924770056778
502.63909364089557
502.58770530913046
502.53851121880757
502.4916831503977
502.4473870380647
502.4057762720847
502.3669847108149
502.3311549456479
502.2984100668809
502.26885832973653
502.2426088853528
502.2197416865153
502.2003539874673
502.1845151632985
502.1722849873212
502.1637296776764
502.1588877752805
502.1578148364763
502.1605650741586
502.16717976528224
502.1776927724834
502.19210947144524
502.2104465952022
502.23271951710854
502.25894941819087
502.28915299322847
502.32331429500533
502.36145476879796
502.40359192829214
502.4497396720139
502.4999173677053
502.55413055599456
502.6123951229734
502.6747306492813
502.7411738513015
502.8117637807877
502.8865291142951
502.9655170635324
503.048760978176
503.1362935025874
503.22816824128415
503.3244203173025
503.42509232355206
503.53022939828253
503.6398831041794
503.7541220723045
503.87297925046454
503.9965279457443
504.12483326327714
504.2579519369106
504.395936202366
504.5388195892966
504.686672843187
504.839557629606
504.9975240696658
505.16062993697597
505.3288874412996
505.5023407788042
505.6810281117031
505.86497024456094
506.0541963975097
506.248715491252
506.4485466254678
506.6536902650572
506.86414535874115
507.0799137694836
507.3009630839717
507.5272767449493
507.75880573836344
507.9954988106161
508.23729774379734
508.48410649105466
508.73583660849005
508.9923736918508
509.2535895743567
509.51937661108855
509.78959072232465
510.0640930950878
510.3427350533932
510.62533865729137
510.9117340926533
511.2017138745719
511.4950589550234
511.7915471746789
512.090933361207
512.3929819199625
512.6974209337692
513.0039883239101
513.3124102020995
513.6223925613592
513.9336458967115
514.2458550894971
514.5587061862084
514.87186728919
515.1849999862592
515.4977796372355
515.8098568904555
516.1208916059113
516.4305099627414
516.7383508834746
517.0440557307295
517.3472361313236
517.6475181822348
517.9445299229886
518.2378912470848
518.5272433476352
518.8122193919965
519.0924524984629
519.367568012671
519.6371951906842
519.9009767073416
520.1585432193923
520.4095492001629
520.6536341469184
520.8904536587934
521.1196777972773
521.3409609528013
521.5539925089092
521.7584577898592
521.954051548507
522.1404804909275
522.3174438465223
522.4846817340797
522.6419384128609
522.7889672625058
522.9255377598532
523.051424959254
523.166438758378
523.2703896711865
523.363093642345
523.4443831843851
523.5140964931987
523.5721148499432
523.6183281219875
523.652641887498
523.6749691022662
523.6852170509258
523.6833241309587
523.6692396076805
523.6429451899526
523.6044441850294
523.5537243998441
523.4908148276766
523.4157526854726
523.3285921272418
523.2294018781278
523.1182429899936
522.9952276116827
522.8604640030234
522.7140626775707
522.5561731928622
522.3869403059872
522.2065368313044
522.0151238815257
521.8128829941048
521.600015522117
521.3767159053396
521.143223992057
520.8997548308288
520.6465374068372
520.3838205569647
520.111854965266
519.8309191653526
519.5412955229202
519.2432658689792
518.9371200268894
518.6231422783397
518.3016393666377
517.9729114831944
517.6372692171864
517.2950197913491
516.9464639525717
516.591936828048
516.2317725590715
515.8663151353195
515.4959163073074
515.1208916390833
514.7415877548591
514.3583446216335
513.9714950291844
513.5813990773429
513.1883979075087
512.7928485815949
512.3951087856159
511.99552804644327
511.594471668108
511.1922723187946
510.78928872469146
510.38587251858166
509.9823634764442
509.5791175658602
509.1764738250418
508.77478249506987
508.37438068337195
507.9756030746657
507.57880993925477
507.1843300040944
506.7924997806946
506.4036524133778
506.0181243222075
505.6362421521117
505.25831151384693
504.884658137569
504.5155926009241
504.1514056410487
503.79240474254345
503.4388653501187
503.09106949714754
502.7492941588074
502.4138107889464
502.0848827147795
501.76275144010054
501.44767102936504
501.1398792370179
500.83959946350706
500.54705355149287
500.262435052456
499.98595047139776
499.717786079652
499.45811197915697
499.2070949764054
498.96487651122595
498.7316011239702
498.50739000109894
498.29235154317365
498.0866008601382
497.89020515517564
497.70322953766015
497.525727728767
497.35773727945815
497.1992903399696
497.0504005019046
496.91107171147195
496.7812829116544
496.661000873054
496.5501756148169
496.4487425315724
496.35664460200053
496.27380014388365
496.2001120894947
496.1354595115774
496.07969755448715
496.0327034591698
495.9943267643351
495.9644031011876
495.94276132007667
495.9291999325254
495.9235357995153
495.92556529781433
495.93506053440166
495.9518071208133
495.97555431804506
496.0060658562627
496.04308987976066
496.08638371384546
496.1356972813693
496.1907499740311
496.25127944350487
496.3170092544102
496.3876671151834
496.4629813834727
496.5426708602726
496.6264607373788
496.71407218369353
496.80522942137003
496.89966479409964
496.9970977082729
497.09727690007435
497.1999440601842
497.30483914935695
497.41171861406394
497.52032991459697
497.63044733488056
497.7418354119896
497.8542580808843
497.96750707845746
498.0813604940057
498.1956314269277
498.31012903446407
498.42467632163533
498.5391171458537
498.653274993879
498.7670075850205
498.88018281314464
498.992672492099
499.10437230923617
499.2151581866976
499.3249496602985
499.43366611129784
499.5412268167034
499.6475748800336
499.7526528937287
499.85642680114915
499.95885512775453
500.0599259071731
500.15965454413725
500.25800507679634
500.3549790934451
500.45058414566023
500.5448307803567
500.63775580195346
500.7293955349616
500.8198098321802
500.90903823874936
500.99713237057097
501.08416650294623
501.1701891796694
501.25527521613003
501.3395055028794
501.4229536242288
501.5057052510598
501.5878381105068
501.66944363821756
501.7506002649821
501.8313924190771
501.91191880597256
501.9922615226614
502.0725207790365
502.1527861921249
502.2331319224651
502.3136509673278
502.3944173224124
502.475520559556
502.55704149616787
502.63904966196526
502.7216245523262
502.80480668362117
502.88867784199874
502.9733149847467
503.0587794506581
503.1451388455708
503.23243866256047
503.3207218957978
503.41002658696095
503.50038770737217
503.5918389993484
503.6844018969716
503.7780942439673
503.87293001692774
503.9689147268891
504.06604977566514
504.16433025417285
504.2637604006117
504.3643011434307
504.4659155630363
504.5685792052045
504.6722405230467
504.77686908558854
504.8824118983054
504.98879552609515
505.09596536776337
505.2038331455574
505.3123228582274
505.4213467299394
505.5308053358676
505.64058749165815
505.7505654811395
505.86063221233997
505.9706598685123
506.0805087950192
506.19004510320286
506.2991212451996
506.407591762327
506.5152984244952
506.62207061097746
506.72773640981995
506.8321008772344
506.9349878244
507.03619610620575
507.13551928751605
507.2327676221094
507.32772024153826
507.42017592293826
507.5099206412277
507.5967434279289
507.68045041396454
507.7607957101126
507.8375650239186
507.9105345449656
507.9794781894196
508.0441769100084
508.10440610240875
508.15995625006275
508.2105966066742
508.25609732930087
508.2962559059306
508.33085611632384
508.35971933781383
508.3826400463981
508.3994171932969
508.4098831976781
508.4138632731043
508.4111917352717
508.4017083157097
508.38527425778545
508.3617533943708
508.3310015139647
508.2929282547857
508.2474412771178
508.19445590092135
508.13392207280805
508.0657746784583
507.9899689516867
507.90646731405366
507.81526565093105
507.71637826409005
507.60982276849944
507.49565321247155
507.37393197417884
507.2447166118136
507.1081076591364
506.96420236743825
506.81314041071874
506.6550753698648
506.490183726841
506.3186519994333
506.1406789159859
505.9564885043009
505.7663256545679
505.57044738757776
505.3691384754474
505.16267429987784
504.95136208038366
504.7355229372106
504.51549161790217
504.2916207169368
504.06424290486785
503.83373771317963
503.6004733948136
503.3648250458027
503.1271904182794
502.88795981159285
502.64755828326923
502.40641174762357
502.16496585022384
501.9236721435693
501.68295693369623
501.44325977315026
501.2050236066288
500.9686761033955
500.734654490481
500.50339109556046
500.27531653577734
500.0508430126915
499.8304002639807
499.61440841521755
499.4032549158922
499.19734572379974
498.9970603797722
498.80276397926707
498.6148280102399
498.43358343563614
498.259372205951
498.09251580800986
497.9333124370632
497.7820605104334
497.63901897505804
497.5044419572725
497.3785519128807
497.26154993668695
497.153632655156
497.05495673184896
496.96566898558973
496.88588178809385
496.81568782271705
496.75517268549953
496.70437744350465
496.66335107716753
496.6321046476867
496.6106268586172
496.59890189092926
496.5968529357069
496.60440594944413
496.6214570294359
496.6478835329266
496.6835487634391
496.7282651126359
496.7818558289834
496.84411397558057
496.91481819043304
496.99374224065605
497.0806253986498
497.1751886675261
497.2771508548538
497.3862210187827
497.5021022426062
497.62444915641737
497.75292564257524
497.88717475693903
498.0268437164206
498.1715830930038
498.3209998737936
498.4747216136491
498.63236889390924
498.793556564482
498.9579057637802
499.1250297654581
499.2945594345612
499.46610749783724
499.6392872873079
499.81373349621686
499.9890549822752
500.16489027104984
500.34088450699
500.5166950570649
500.69199269882006
500.8664453137727
501.03974315938075
501.2115846683655
501.3816753357037
501.5497551598061
501.71555379843437
501.8788395725066
502.0393698818243
502.19691552826464
502.3512692386569
502.50223017586177
502.6496189305681
502.7932813170569
502.9330505822637
503.0687923830757
503.2003796178289
503.32772226085075
503.4507295723421
503.56932024109994
503.6834454995296
503.7930689681911
503.898195422404
503.998829797635
504.0949864832919
504.18670516058455
504.27402058975787
504.35698705389086
504.4356476797979
504.51006236836525
504.580289372551
504.6463773640109
504.70841443353163
504.76649425005735
504.82071956719
504.87121473799937
504.91809254741884
504.9614799915174
505.0015068414636
505.0383053809477
505.07202311407264
505.10279399966424
505.1307689606647
505.156089218544
505.1788967333603
505.19934694252055
505.21757989210806
505.233750553541
505.2479999793546
505.26046769064845
505.271304117734
505.2806262012507
505.2885822291044
505.29531616223215
505.3009717656285
505.3057013828384
505.3096331065834
505.3129056878326
505.31565303211715
505.31801734048895
505.3201407184658
505.3221413188039
505.3241572066356
505.32631135410264
505.3287268962742
505.33153158206704
505.33482481504706
505.33873880318896
505.3434037647143
505.3489483641451
505.35550017529795
505.36316190724
505.37206851196305
505.3823548665481
505.3941455671474
505.407561967265
505.42270250670066
505.4396751464889
505.45860130526484
505.4795935814
505.5027795071331
505.528264274088
505.5561855341408
505.58666112964767
505.61979787770576
505.655710889539
505.69449897397
505.73629247994234
505.7811984478046
505.8293331693511
505.88081555521114
505.9357452272403
505.9942241129043
506.05633616494896
506.1221794835488
506.1918681461672
506.26548843059646
506.3431404602896
506.4249097367054
506.51087353120187
506.60110489421464
506.69565668013075
506.7945870466806
506.8979477614469
507.0057769331073
507.1181246583784
507.23501099019546
507.35646709383184
507.48249748935257
507.61311897137165
507.7483430441101
507.8881497618242
508.03253801003575
508.1814884877911
508.33495948256535
508.49292643229177
508.6553364428762
508.8221392750402
508.9932591059023
509.1686187510288
509.3481420605453
509.53171683953605
509.7192383781432
509.9105806821125
510.105598329959
510.304160992106
510.5061049464728
510.7112634402556
510.9194619233347
511.13052663043464
511.34428472890653
511.56054071498545
511.7791077743665
511.99977780227357
512.222330578017
512.4465514625181
512.6721966522871
512.8990307463891
513.1268007756917
513.3552473361204
513.5841245293421
513.8131433799589
514.0420397655654
514.2705418011128
514.4983659604679
514.7252306961794
514.9508458378168
515.1749195872877
515.3971634195517
515.6172817616966
515.8349792215772
516.0499413117154
516.2618940851115
516.4705481592271
516.675597439972
516.8767546968065
517.0737170797083
517.2661996648585
517.4539187353314
517.6365859612541
517.8139198456583
517.9856330139055
518.1514502427423
518.3111044218258
518.4643302370083
518.6108798876041
518.7504951473104
518.8829495384668
519.0080139297121
519.1254569880621
519.2350628797283
519.3366007783259
519.4298840640037
519.5147069814374
519.5908728674868
519.6582046962646
519.7165340561448
519.765729914233
519.8056732363788
519.8362382798852
519.8573150223955
519.8687808860682
519.8705533280935
519.8625417988154
519.8446762865068
519.8169120049358
519.7792013751039
519.7315337484457
519.673894195921
519.6062792040718
519.5286989210528
519.4411551129525
519.3436845823421
519.2363347855817
519.1191748286832
518.9922889354059
518.8557433883936
518.7096385757009
518.5540757336366
518.3891717978725
518.2150699019935
518.0319086265442
517.8398459700711
517.6390547062467
517.4297090185414
517.2120040329471
516.986118297721
516.7522658008993
516.5106605543488
516.2615316832133
516.0051121979036
515.7416276051894
515.4713393051971
515.1944960870874
514.9113512040852
514.6221815796836
514.3272545476476
514.0268494325892
513.7212483462042
513.4107423459297
513.0956312267314
512.7761947208787
512.4527401278059
512.1255601441538
511.79495628324
511.46125379148623
511.1247423261503
510.7857323462414
510.4445393556246
510.10147491231965
509.7568550467316
509.4109691048542
509.06413158804406
508.71664881754344
508.36882960807105
508.0209894803713
507.67341097287095
507.3263934162533
506.9802283251338
506.63520557405536
506.29162624156044
505.94976294989095
505.6099145384927
505.2723514495839
504.937335116639
504.6051415929335
504.2760264664301
503.9502400098478
503.62803558370086
503.30964971129316
502.9953215505549
502.68527523687766
502.3797461008032
502.0789345040485
501.78302702069476
501.4922394627749
501.20675086958636
500.9267470481779
500.65239624412794
500.3838597237166
500.1212980338788
499.8648445961034
499.61464484121893
499.37084751214684
499.13358105473964
498.90296283785193
498.67908402384876
498.4620467681689
498.2519314262934
498.04881176713224
497.8527549918043
497.66379547037417
497.48199368295354
497.3073836037647
497.14000349819565
496.9798788589206
496.82702267471416
496.6814509455315
496.54315441866817
496.4121094852132
496.2883087427073
496.1717131149755
496.0622937991894
495.9599995505764
495.8647785883776
495.7765809303231
495.69533240155033
495.6209764843709
495.55342419119586
495.49258256564735
495.4383634532901
495.39064638498326
495.3493508119997
495.31437080377094
495.2855974612545
495.2629236781349
495.2462160326905
495.2353589286448
495.2302199703058
495.23067003403827
495.2365814597721
495.2477954617778
495.26418560537684
495.28561879446477
495.31193181665714
495.3429838642945
495.3786171084082
495.41869205031793
495.4630593651888
495.5115710692947
495.56408302576045
495.62043779965387
495.68050011363647
495.7441135317353
495.8111313277585
495.881421244167
495.9548178379061
496.03117497244637
496.11034824642564
496.1921841325693
496.27654387211953
496.3632858434991
496.45228998956685
496.5434189872872
496.63653823892975
496.73152467398705
496.8282315916911
496.9265433021443
497.0263402565581
497.1275057417526
497.2299304296308
497.33349066520105
497.43809238668644
497.5436253875728
497.64998306332456
497.7570798163368
497.8648095793656
497.9730920474531
498.0818422795458
498.1909796297289
498.3004388634444
498.4101308996824
498.51998649218854
498.62992969465574
498.7399016899861
498.8498499031002
498.95970601777776
499.0694338471591
499.17899012213434
499.2883290259448
499.3974217849891
499.5062283127848
499.6147301037756
499.72290618183644
499.83074871923236
499.938259305075
500.04540757144883
500.1521876810286
500.25859172279115
500.3646269597542
500.47030696367113
500.5756319015929
500.68063882666365
500.78534490171285
500.88975595285797
500.9938875938745
501.0977514302858
501.20138515371383
501.3048149403694
501.4080704367643
501.51118207056203
501.61418057434804
501.7171253729407
501.8200522429778
501.9229862922627
502.02596978973486
502.1290486052268
502.2322678793901
502.33565221445417
502.43923582689666
502.5430621582353
502.6471419565274
502.7515074695347
502.85618577949043
502.9611985392633
503.06656608540135
503.17228723979565
503.2783825163916
503.384845491676
503.4916751847183
503.5988735899263
503.70642144358055
503.81432645770514
503.92255114298723
504.0310561699368
504.13980198954596
504.24872412833224
504.3577741976553
504.46688892744885
504.57600318309443
504.6850544071062
504.79394566957086
504.9026050697888
505.01092026683597
505.1187689703678
505.2260606091672
505.3326558664034
505.43843473977626
505.54326614198015
505.647006187436
505.74950731541054
505.850592303859
505.9500959048689
506.047836261057
506.1436390176648
506.2373222341128
506.3286812250832
506.4175413992175
506.5037020221319
506.58698049429603
506.667195782567
506.74413903956673
506.8176026688873
506.8873805659709
506.9532730431498
507.01509215888177
507.07263199739026
507.12570240372315
507.174107926861
507.21765501001676
507.2561612696596
507.289445128359
507.3173464165614
507.33969450296223
507.3563287734926
507.3671102959705
507.3718785730483
507.3705110570655
507.3628843833815
507.3488815717713
507.3284033751127
507.3013487657198
507.26765028059276
507.22724398636853
507.18008097103063
507.12612551448757
507.0653554013554
506.99776899945755
506.923363649012
506.84215542237536
506.75418147754027
506.65947157988995
506.558091671509
506.4501107580688
506.3356092587182
506.21468724510027
506.08746620036493
505.9540869834431
505.8147013190085
505.66948058632175
505.51860496368704
505.3622502370026
505.20063358811086
505.0339586004066
504.8624564955251
504.68638173916224
504.50598380328074
504.3215466877948
504.13334076935473
503.9416488391199
503.7467612662114
503.5489708732283
503.3485916424226
503.14592696045764
502.94130126883204
502.735076751272
502.5275850938236
502.3191747594574
502.11019680360425
501.9010174391108
501.6920022050703
501.4834976971914
501.2758788335886
501.06951526413025
500.86476626706957
500.6620017453963
500.46158602198955
500.2638881300011
500.069265641368
499.878070265585
499.6906666145194
499.5073941187738
499.3286078930861
499.1546385355135
498.9858198865787
498.82248853226827
498.6649636578332
498.5135686672581
498.3686046702249
498.2303587828312
498.09911005141214
497.97509789604453
497.8585845478142
497.74980377846697
497.6489799061672
497.55633607803674
497.47204981435453
497.3963135943481
497.32928831097064
497.2711068775848
497.2218952179784
497.18173635162236
497.15073957964444
497.1289853906706
497.1165342987134
497.11341593041055
497.1196309378144
497.13517911787636
497.16003069924375
497.19414606588316
497.23743855411533
497.2897936489823
497.35109704158606
497.42121048545073
497.4999673568625
497.5871922448475
497.68267042805087
497.7861743463684
497.89746164117855
498.0162690304518
498.14232176089547
498.2753081192044
498.4148975696981
498.56073678112955
498.71245884564564
498.86969713592566
499.0320424393097
499.199087671355
499.370404628614
499.5455449180976
499.72406292207677
499.90548625950373
500.0893431388051
500.2751437182791
500.4623965700691
500.6506121582934
500.8392933777165
501.0279306539732
501.21601662050534
501.4030388489061
501.58850114928146
501.7718925340203
501.9527263657537
502.13052040301665
502.3047900917614
502.47507026833875
502.64089292147753
502.8017930599776
502.9573339778964
503.1070801059641
503.2506154981663
503.3875314150708
503.51746001482775
503.640026992896
503.75488486515235
503.86171097253447
503.96019664539176
504.0500716181452
504.1310737297062
504.2029732454953
504.26558645380976
504.3187525739867
504.3623460780177
504.3962494456242
504.42039132751626
504.43472784798035
504.4391995234857
504.43380139141567
504.41853025879624
504.39342334057943
504.35855522133534
504.31401108755875
504.25993011373663
504.1964657056775
504.1237872679653
504.04210813656834
503.95165445577186
503.8526821660382
503.7454699597931
503.63030343078606
503.5075114906376
503.3774085223292
503.2403478914812
503.0966877215048
502.94680692392546
502.7911125628119
502.6300101134425
502.4639217992746
502.2932785235632
502.118511851736
501.94007220303655
501.7584031924335
501.57398186887843
501.387267175121
501.1987160018269
501.0088013505633
500.8179780577526
500.6267274034782
500.43551009936607
500.2447805145929
500.0550074462092
499.8666339092855
499.6801291041307
499.49591994226836
499.31441620211586
499.1360288201237
498.96116873348114
498.7902441744491
498.6236406071301
498.46172010605505
498.30484236575126
498.1533466265749
498.0075755196839
497.86785296901047
497.73448631419217
497.6077684915157
497.4879580979574
497.3753162010438
497.27008870701894
497.1724975370106
497.0827579146715
497.0010497607292
496.92754378559675
496.8624056512223
496.80578068468157
496.7578072244053
496.7185794844277
496.68820876133606
496.66678214068054
496.65435852728257
496.65101050027664
496.65678111277157
496.6717131638688
496.6958172347458
496.7290963398001
496.7715462891094
496.823140708944
496.88383124779205
496.9535739530514
497.0323010105108
497.1199515140696
497.21642998636764
497.32165246037806
497.43551164844524
497.5578834193879
497.68865071125725
497.8276751606724
497.9748235029352
498.12996147309497
498.2929259995612
498.4635607231796
498.6416835711936
498.8271264153858
499.01970256299876
499.2192314159423
499.4255349248073
499.6384100218496
499.8576533672785
500.08305522299537
500.31439994933856
500.55147526683504
500.794043992358
501.04187024042454
501.2947105325353
501.5523225219898
501.81445389093403
502.08082872292323
502.35121065935414
502.62535497538306
502.9030269455858
503.1839721888365
503.46790826620537
503.7545793009839
504.0437099727825
504.33500979868757
504.62821661005023
504.92304610608926
505.2192137607676
505.51642585170146
505.8143878403815
506.1128239327731
506.4114421311711
506.7099740118985
507.00814055143655
507.30565300173066
507.6022244552938
507.8975525232543
508.19134343764426
508.48330119995
508.77312324663734
509.0605268460983
509.34521224549724
509.6268958323789
509.90528626507086
510.1800978997681
510.45105790602804
510.7178761942246
510.9802787008948
511.2379791233167
511.4907031218744
511.7381887109678
511.98015597705347
512.2163533300943
512.4465184315845
512.6703982998824
512.8877587307894
513.0983565326404
513.3019573687872
513.4983272033812
513.6872413043075
513.8684933474699
514.0418563887009
514.2071376672839
514.3641437017504
514.5126848091504
514.6525861258225
514.7836702693343
514.9057859783323
515.0187820343369
515.1225227295532
515.2168990806568
515.3017790999672
515.3770673330712
515.4426791394557
515.4985237977393
515.5445397479434
515.5806598453396
515.6068556017062
515.6230850858948
515.62932369445
515.6255709322228
515.6118132630238
515.588063114645
515.5543344059074
515.5106685622703
515.4571212654297
515.3937534957867
515.3206378553526
515.2378672411321
515.1455350397295
515.0437655586276
514.9326635200243
514.8123727664586
514.6830409007798
514.544834558734
514.3979308279497
514.2425041618724
514.0787437002841
513.9068484890362
513.7270138261727
513.5394658681936
513.3444307764311
513.142160979606
512.9328957874229
512.7168895239423
512.4944023615941
512.2656800618511
512.0309881619773
511.79060453906385
511.5448055547726
511.2938851607672
511.0381237243431
510.7778092579173
510.5132453658815
510.24472885109975
509.9725778334938
509.6970899985766
509.41858855988215
509.1373672843359
508.8537181181171
508.5679453921954
508.28034547183563
507.9912394161788
507.7009224542004
507.40969203613787
507.1178673440249
506.8257322900985
506.5335832535201
506.2417179103428
505.95042875678877
505.66002072230776
505.37077192295715
505.08295113052077
504.79681274817386
504.5126002188101
504.23057357258256
503.95098035587597
503.6740749094509
503.40010061593375
503.12928976341243
502.86187650030126
502.59807688456027
502.33811936352583
502.0822164371197
501.83056472356105
501.5833667154988
501.34079347207927
501.1030304104496
500.8702552805106
500.6426338990283
500.420322455527
500.20344327407076
499.99214332753985
499.7865521651518
499.58678832347414
499.3929745876735
499.2052117813357
499.02360511596953
498.8482379832928
498.6791916476877
498.51654525206146
498.3603496731072
498.2106758719337
498.0675735519559
497.9310779149377
497.80122946058236
497.6780479071703
497.5615610279451
497.4517787627898
497.3487088265509
497.2523459908491
497.1626412562653
497.0795801485618
497.0031189731042
496.93321511849297
496.86983350726115
496.8129073122823
496.7623882396953
496.71820065228206
496.68026143692055
496.6484865542946
496.6227778055674
496.603051373254
496.5892053536105
496.5811356258805
496.5787363621955
496.58188736913706
496.5904632703864
496.60434046539154
496.62339112370637
496.64748833264804
496.67647610782916
496.7102245554561
496.7485909298843
496.79141786028066
496.8385532294107
496.88983496499674
496.94511537892043
497.00424191275954
497.06704659963316
497.1333768610653
497.20306937862455
497.27596991636386
497.3519203249956
497.4307654328702
497.51235555608554
497.5965380116408
497.6831752721677
497.77213700495594
497.86327231318666
497.95644730960186
498.05151679596713
498.1483594787109
498.24685877050155
498.3468812893438
498.44831849149534
498.5510384792001
498.65494061359044
498.7599204934562
498.8658898487107
498.9727769598621
499.08048542803266
499.18894903501183
499.29809239406455
499.4078529302588
499.51818318939934
499.62901801181795
499.7403159662813
499.8520285048947
499.9641126477362
500.07654358552645
500.18926817378815
500.302258784362
500.41550391641624
500.5289883752358
500.64272831065057
500.7567254679226
500.87099157173867
500.98552654412345
501.1003380294685
501.2154478321688
501.3308657296783
501.446606895141
501.5626826727255
501.67910657622014
501.7959026830488
501.9130701821664
502.0306396784518
502.1486289679786
502.26704686375143
502.38591220358524
502.5052468165049
502.6251042057666
502.74550228255765
502.8664496610868
502.98796721124984
503.11005270649093
503.23271979055716
503.35596909787887
503.47980544621663
503.60423317606694
503.7292382871731
503.8548319562612
503.9810067554226
504.10774534808485
504.2350487939324
504.3628862041371
504.4912405788005
504.6200889195841
504.74940224111964
504.87915210400183
505.00929746306434
505.13982229092784
505.27068574328257
505.4018553251877
505.53328537079443
505.66491706565336
505.79670463465425
505.92858017753775
506.0604839968123
506.1923777700776
506.3242056578327
506.4559145826672
506.58743254108487
506.71868818780564
506.8496216653411
506.98015176784935
507.11020863449335
507.2397161121729
507.3685872349205
507.49674127001833
507.6240924012357
507.7505738917758
507.8761055373766
508.00058277981014
508.1239246271849
508.24602966325193
508.36681532600403
508.48617412566756
508.6040063215356
508.7202264763981
508.8347310125877
508.947418168908
509.058181498953
509.16689894277494
509.27346993513623
509.3777607263798
509.47965234405126
509.57902720273586
509.6757450322234
509.76969320704916
509.8607300843934
509.94872890707927
510.0335493312457
510.1150461739588
510.19308266290966
510.2675042832568
510.33816954010723
510.40493047972865
510.4676328842125
510.5261340021129
510.5802590008788
510.62986028424757
510.67477177482573
510.71483319264934
510.7498947229092
510.77978899399346
510.8043666323932
510.82346844615387
510.83694795914306
510.8446656310216
510.84646560229646
510.84222476693463
510.8318123672989
510.8150866134467
510.7919326031958
510.7622081276442
510.7257941180175
510.6825794169423
510.6324655918191
510.57536528084626
510.5111806902439
510.4398454256619
510.3613052377993
510.2755033629883
510.18240501382917
510.0819823992121
509.9742417172067
509.85918242428977
509.7368218444259
509.607200086497
509.47035875409676
509.3263631101178
509.17528236244095
509.0172095642998
508.85226653018543
508.680584619569
508.50233170056487
508.31767590085826
508.1268016631821
507.9299233150609
507.72726139995507
507.51907162673143
507.3056058078339
507.0871293505149
506.8639406566893
506.63633112266933
506.40463257512556
506.1691793953908
505.9303228197708
505.68844296230833
505.44391942092665
505.1971631451863
504.9485957907023
504.69865551980126
504.44779414099605
504.1964699636168
503.9451647632133
503.6943569375294
503.44453180995646
503.1961872164855
502.9497992720704
502.70586656104666
502.4648931199673
502.22737828458247
501.99383926014343
501.7647788498457
501.5407213100051
501.32216969536506
501.109626567008
500.9036015427338
500.704570789268
500.5130171014115
500.3294128830749
500.15420341545337
499.9878515808595
499.83077976002335
499.68341666239945
499.54615442256926
499.4193780727005
499.303442489499
499.19865763840386
499.10533467999994
499.0237535109173
498.95416769975225
498.8968227541193
498.8519001568659
498.81959045242405
498.80002657424274
498.79330883866714
498.79952782668687
498.8187110660606
498.850881379687
498.89600826417546
498.9540227627644
499.024827914023
499.10828091240444
499.2042104340559
499.31241000865896
499.43262718119536
499.56458561209865
499.7079437524135
499.86235866461857
500.027429836657
500.2027372082631
500.38783124787693
500.5821991980007
500.7853142512773
500.99660809001614
501.2154895582386
501.44134805414996
501.67351995890533
501.9113339061625
502.15408804906747
502.40105598233816
502.65151275890855
502.9046954689363
503.1598515793351
503.4162044221757
503.6729602897732
503.9293264012215
504.1844873736183
504.43764526106395
504.68799391974414
504.9347239584498
505.1770541371239
505.41419079895735
505.64535933278165
505.86979378540576
506.0867572097572
506.29553376395074
506.4954207955986
506.6857471058792
506.86586243676896
507.0351375509855
507.19298602690947
507.33883987710567
507.4721641034195
507.5924553228722
507.69925994404946
507.7921838257901
507.87084511687357
507.9349208289994
507.9841186585484
508.0182122259329
508.03704613519994
508.0404890662425
508.02846557764224
508.00094812921
507.9579643730171
507.8995935634564
507.8259429955584
507.7371766317345
507.63349732209457
507.5151372755274
507.38238294419165
507.235553573438
507.0750300372749
506.90122014442346
506.71458299568445
506.51562508543174
506.3048789511846
506.0829278369118
505.85037350660474
505.60784090822517
505.3560068260628
505.09553886807424
504.8271346075779
504.55150107736546
504.2693714908535
503.98149808903764
503.6886208271623
503.39151916930547
503.0909567535746
502.78768919725616
502.4825046668753
502.176170767621
501.86946269261915
501.5631191402697
501.25786787478626
500.95444232043866
500.6535592571806
500.3559454867464
500.06228822214564
499.7732599276557
499.48950389679624
499.21162403678284
498.9402250607053
498.6758631667035
498.41908437916123
498.17040635322496
497.9302936208765
497.69920066953847
497.47753407663157
497.2656737749284
497.0639814452538
496.87277196783975
496.69233972201727
496.5229368498288
496.36477766932745
496.2180627172436
496.08293962036987
495.95954956472616
495.8479840741143
495.7483162817477
495.66057973797
495.5847709733449
495.52089832928107
495.4689221008947
495.42879542737137
495.4004483950514
495.3837502557796
495.3785872452287
495.3848223843554
495.4022839448948
495.43080624103266
495.47018942574783
495.5202337738195
495.58071473363174
495.6513971952645
495.73204978310486
495.8224110808373
495.92223676875483
496.03127237622385
496.1492523375127
496.2759121196635
496.4109694110179
496.5541577044836
496.70520531277356
496.86383837846097
497.02977928402987
497.2027404097706
497.38244834305175
497.5686397106932
497.7610397216636
497.95939099827467
498.1634298166623
498.3729171651143
498.5876132912712
498.80727858954475
499.0316916391717
499.26060802196986
499.49381765436993
499.7311059195736
499.9722695751728
500.21709520502753
500.4653565604366
500.71685102963846
500.9713817521832
501.2287462449228
501.48874879725156
501.751182038202
502.01585663815354
502.28259177681264
502.55119929537847
502.8215206084745
503.0933829175145
503.36661903295465
503.64104971962576
503.9164964436376
504.19278961644454
504.4697462298919
504.747182568164
505.0249113277791
505.30274094604925
505.58049692659245
505.85797316883287
506.1349906694184
506.4113624089129
506.68689560121675
506.961398290407
507.23465528988834
507.50647634699783
507.77665681811794
508.04498675382945
508.31127105394927
508.5752772080613
508.83677237775817
509.09552729623806
509.3513293963218
509.60398144585105
509.85324999108843
510.0989162178081
510.34074773335357
510.5785032482797
510.81195235407324
511.040858181723
511.26499757476404
511.4841395632202
511.69806109951514
511.9065409795413
512.1093405974138
512.3062437318646
512.4970306508975
512.6814895118698
512.8594213454893
513.0306122173826
513.1948665454124
513.3519900362902
513.5018055772127
513.6441497197005
513.7788406560893
513.9057269346577
514.0246552052248
514.1354839412737
514.2380883897919
514.3323481448593
514.4181588165167
514.4954103622149
514.5640156629505
514.6238974963629
514.6749709481635
514.7172027079124
514.7505522759786
514.7749851298558
514.790505635436
514.7971047311742
514.7948037311253
514.7836324898132
514.7636317316573
514.7348618932584
514.6973767606589
514.6512714459591
514.5966385715433
514.533576816192
514.462203641021
514.3826505154376
514.2950626713315
514.199596624881
514.0964132307699
513.9856838238039
513.8675874223256
513.7423342517369
513.6101370258058
513.4712018911328
513.3257630061405
513.1740537507104
513.0163239657068
512.8528111358096
512.6837616881254
512.5094456740425
512.3301079523477
512.1460265321704
511.9574615735222
511.76467425660536
511.5679431718286
511.36754605694244
511.1637615794976
510.95686650439274
510.74713714799464
510.53486193176496
510.32031257793176
510.1037722575883
509.8855221403023
509.6658279176575
509.44497010989215
509.22319553511727
509.00075378631817
508.77789857975904
508.5548828128648
508.33196712098766
508.10937599922204
507.8873477318615
507.6661100577859
507.4458800283125
507.22688567228033
507.0093154875473
506.7933859566814
506.57929546578305
506.3672265794819
506.15736350607773
505.9498657293709
505.7449183396264
505.5426731411225
505.3432704869508
505.14686973853856
504.95358591363083
504.7635619043822
504.57693599391376
504.39382495759764
504.2143417456443
504.0385734549153
503.86662286433324
503.69857345598797
503.53449581884456
503.3744826029509
503.21859616172634
503.0669125147391
502.91949534773016
502.7763985047674
502.63767270728164
502.5033458680099
502.3734669001464
502.2480709058111
502.12718597857565
502.0108442766291
501.8990558949562
501.79183747716513
501.6892035263812
501.5911599465096
501.4977106529869
501.40884214568274
501.3245541661941
501.24483783547316
501.1696778979722
501.09906380651074
501.0329679296209
500.97137849762885
500.91426715354714
500.8615914582847
500.8133232042316
500.76940447982633
500.7298110925543
500.6945045604495
500.66343467722237
500.6365573502143
500.61379959185047
500.59510960315913
500.5804172147728
500.56965336225
500.56275868041007
500.55965520868006
500.5602772774565
500.56454532068784
500.5723746560883
500.5836909396622
500.59839978664354
500.6164042924705
500.6376113304867
500.6619182704008
500.6892370008108
500.71947459942703
500.75254270317305
500.78832944840855
500.82671916321874
500.8676164001065
500.9108980284352
500.9564504179649
501.0041429342918
501.0538627512017
501.1055083934862
501.1589507102121
501.2140813154111
501.2707756029711
501.32892363673574
501.3884242440036
501.44914405657175
501.5109657647435
501.57376855088114
501.6374348308905
501.7018568985151
501.7669086625971
501.83248739537305
501.89848342618734
501.9647782255018
502.03126854192413
502.09783578714666
502.164392089656
502.23085021083773
502.2971110570392
502.36308137033825
502.4286473083427
502.49373110735337
502.55824505292065
502.6221134601326
502.68527295768735
502.747644313977
502.8091787364177
502.8698078397813
502.9294588911749
502.9880830686608
503.04561816601193
503.1020301939944
503.15726734799233
503.2112993340209
503.26410451348204
503.3156371902032
503.3658954748551
503.4148580590329
503.462503917887
503.5088209619042
503.55378827434197
503.59740632333956
503.63968355274693
503.68062987034233
503.7202766767469
503.75863119886213
503.7957159969263
503.83154914666983
503.86615047489477
503.89955659349397
503.9317857584416
503.9628880554538
503.9929015045921
504.02187166236376
504.0498493933345
504.0768710395906
504.10299532805834
504.1282880172179
504.15280450612454
504.1766182931489
504.19978385151273
504.22237384912955
504.2444637661784
504.266110006598
504.2873911688816
504.3083682719278
504.3291194236418
504.3497042793221
504.37019851063394
504.39070459929326
504.41129295871156
504.4320699485325
504.45310799820953
504.4744715483732
504.49624706540726
504.5185185996915
504.54139415348124
504.5649579500739
504.5893013134009
504.61450740126617
504.6406399170568
504.6677840314646
504.6960239989806
504.7254275289698
504.7560825574931
504.78805524352964
504.8214335291448
504.85629873467013
504.8927255868248
504.9307930801891
504.97054710005597
505.01205443425647
505.0553758236084
505.1005746048259
505.1477146546456
505.19682088717286
505.24794660916257
505.3011315302219
505.3564192456729
505.41383966681957
505.4733997614241
505.5351180082078
505.59900420885435
505.6650569086148
505.7332716624378
505.80362071326124
505.87609199603446
505.95065823410056
506.0272943260214
506.10596430993695
506.18660162841155
506.2691504727012
506.3535304700405
506.4396538509502
506.5274405492266
506.61678320206306
506.707582238339
506.799708645175
506.8930234505353
506.98739947302397
507.082684377372
507.1787428276666
507.2754089772892
507.37250444318386
507.4698516546119
507.5672477692489
507.6644999496267
507.7613971894744
507.85771724456225
507.9532511658211
508.0477600568424
508.14101934654764
508.23278862128706
508.3228253097028
508.41088304458816
508.49669683627116
508.5800317798111
508.66062468555316
508.73821762881613
508.8125587051687
508.8833964420759
508.95049630828845
509.0136157724339
509.0724988227311
509.12690516004847
509.17657356483346
509.221272634604
509.26077951578833
509.29488080248393
509.32338013263086
509.3460620569037
509.36274767850296
509.37325380197564
509.37740670104944
509.3750535644368
509.36604988329714
509.3502777708183
509.3276204744636
509.2979671679925
509.2612416042011
509.217358604527
509.16627466084407
509.10795328680314
509.04236306488315
508.96952822829974
508.8894570429785
508.802205815833
508.7078335365273
508.6064267134058
508.4980978430174
508.38295080507714
508.2611315315673
508.1327777838733
507.99806714217857
507.85722154396643
507.71046404998344
507.55803455375616
507.4001677249596
507.2371208546233
507.0691751262395
506.8966303021314
506.7198194267229
506.5390841248891
506.35477155690734
506.1672686407593
505.9769553429158
505.7842432672149
505.5895486236847
505.39330454413727
505.19595376979146
504.9979346402846
504.79972398237635
504.6017858339128
504.40458323397047
504.2085897762281
504.0142747656413
503.8221543136641
503.63272473532635
503.4464681005204
503.26389011219527
503.08547713664484
502.9117256895611
502.74313453881
502.58018379234824
502.4233621866322
502.27313084754564
502.12996141646164
501.99430857098685
501.8666066010551
501.7472831845403
501.63673372938695
501.5353636928235
501.4435478194703
501.3616441926716
501.2899973695593
501.2289063912794
501.17866702040664
501.1395352063927
501.1117452955354
501.0955195411051
501.09102297185933
501.0984101127345
501.11779066694874
501.14924344777626
501.1928327171215
501.2485699995434
501.3164439482515
501.39639554711283
501.4883370100458
501.59215799358833
501.70768183457994
501.8347179626665
501.9730246726152
502.1223201008718
502.28229103991316
502.4525734387145
502.632790020006
502.82249822970414
503.0212322551651
503.2284949597466
503.44375005632475
503.66643634953465
503.8959492503951
504.13164863730793
504.3728800347559
504.6189456597255
504.8691457695324
505.1227414836301
505.37896130258935
505.6370204913655
505.8961031974861
506.15541723703916
506.41414233060186
506.67144199369164
506.92648632087577
507.1784200716894
507.426398425301
507.66957239688713
507.9071050561387
508.1381814424104
508.3619682599311
508.5776740606985
508.7845043891048
508.981693370973
509.1685112890355
509.34421730178923
509.50812550962223
509.6595525815644
509.7978590002661
509.9224529258321
510.03275461503455
510.1282481708605
510.2084632181503
510.27297887159483
510.3214190005376
510.35341615195455
510.36866877617086
510.36692824038755
510.34801257581995
510.31181412737374
510.2582593819535
510.18733867699024
510.0990940115472
509.9936089218281
509.87102872259214
509.731529922303
509.5753459782148
509.4027531326327
509.21408202355065
509.0097093766373
508.7900605145606
508.5556272667065
508.30694002817575
508.04456389478133
507.7691209804275
507.4812558451526
507.1816621005221
506.87104057954775
506.5501293126913
506.2197250687297
505.8806065757971
505.5335952384335
505.17953253966635
504.8192529099228
504.45362199224144
504.0834938764262
503.70974926789347
503.3332636369653
502.95490823987154
502.5755687555196
502.1961005958012
501.81737405179155
501.44022977696255
501.06549990776887
500.6940053236653
500.32653342865535
499.96387085057904
499.6067707317062
499.25596406278225
498.91216474600054
498.5760331398839
498.2482229027487
497.92934277117024
497.61996659215123
497.32064566846805
497.03187081191027
496.75411523104333
496.4878163861802
496.2333692577771
495.99113048024583
495.7614003704762
495.54447737048497
495.34061225068876
495.1500195966439
494.97288073809955
494.80932697723193
494.6594753107124
494.5233964016381
494.40113094979046
494.29269736748756
494.19806668437303
494.1171943248303
494.0499993016607
493.9963698269413
493.9561864778744
493.9292929924306
493.9155285039821
493.91470077085114
493.9266010349938
493.95102345630426
493.987721291462
494.0364394416017
494.0968893543856
494.1687803873969
494.25182954985024
494.3457299201871
494.45018260132105
494.5648760997414
494.6894918875607
494.82371635123735
494.9672109871687
495.11966142190886
495.2807300729602
495.4500983695178
495.627447763773
495.81244293180754
496.0047784269256
496.20414011074234
496.4102280565893
496.6227510313202
496.84139664285453
497.0658844683329
497.29592286197897
497.5312156910923
497.7714949869982
498.0164882676528
498.2659520606028
498.5196333032204
498.777276233432
499.03864191049433
499.3034661277359
499.5715155829465
499.8425521580139
500.11632778081974
500.39261190743395
500.6711752458744
500.951810970606
501.2343170501918
501.5184985673178
501.80415910863053
502.09110087111543
502.37913125223065
502.66804728634764
502.95763944878286
503.24771949997495
503.53807187461
503.8285078237406
504.11882992129773
504.4088405457791
504.6983481432231
504.9871250753377
505.2749791033963
505.5617179736921
505.8471383762763
506.1310523546423
506.4132481886616
506.6935343324145
506.97170897915095
507.24756246244783
507.520899317952
507.79150343009434
508.0591733120348
508.3237004715028
508.5848740527138
508.84249201506816
509.09634603021726
509.34623732852026
509.59195750968416
509.8332888178589
510.07003044422277
510.30196348658194
510.5288904108736
510.7506110735934
510.9669230152301
511.1776437341008
511.38257174958835
511.5815330934436
511.77433586061926
511.96079009994213
512.1407319780475
512.3139783210179
512.4803752781053
512.639754786979
512.7919542777994
512.9368276590031
513.0742258994561
513.2040259194247
513.3260960087422
513.4403136314681
513.5465745534308
513.6447647500562
513.7348066773068
513.8166138731237
513.8901046070513
513.9552197829959
514.0118903995619
514.0600704775632
514.0997107926248
514.1307740547443
514.1532413102447
514.167076695026
514.1722839985848
514.1688804528005
514.1568840649741
514.1363357321231
514.1072598709196
514.0697081139126
514.0237351066551
513.9694027739614
513.9067976914066
513.8359872237604
513.7570718113542
513.6701474827877
513.5753297588175
513.4727402939171
513.3624912123041
513.2447285487928
513.1195882053271
512.9872153391827
512.8477771207343
512.7014296785753
512.5483552926561
512.3887317030893
512.2227451710343
512.0505970728549
511.87245987587704
511.6885288875538
511.49900612928
511.3040999688425
511.10403380023195
510.8990086297
510.6892574074329
510.4750053320138
510.2564740157511
510.03390987033947
509.8075470605386
509.5776338179597
509.34441043509946
509.1081135265814
508.868977866555
508.62723361483535
508.3831253337793
508.1368961058064
507.8887871699947
507.6390551147781
507.3879343746391
507.1356852043652
506.88254981036397
506.62876959291606
506.3745980113095
506.1202654129684
505.8660359018229
505.61215272229725
505.3588446565333
505.1063496263871
504.8548945348078
504.6047234847745
504.3560626925479
504.10913333104605
503.86417525879517
503.6214009299627
503.3810302520206
503.14328377005626
502.9083715705251
502.6765195243685
502.4479146757551
502.22274207766776
502.00119268955535
501.78345406807904
501.569732231711
501.360190631727
501.1550069742223
500.95434442225644
500.7583445854695
500.56716850044535
500.3809435842867
500.19981794661385
500.0239097832447
499.8533465270519
499.68825383284917
499.52872487970853
499.3748772487465
499.22681160602974
499.0846121216671
498.94835551489047
498.81809785172686
498.69390284406694
498.57581985761294
498.4638883059019
498.35814207794766
498.25860286245904
498.165286733825
498.07818640806494
497.99729261605404
497.9226070519603
497.8541031353628
497.7917568608229
497.7355315285312
497.68538224095516
497.6412648489989
497.6031098649801
497.5708621829156
497.5444420049297
497.52376456282246
497.50876005574474
497.49931727498506
497.4953430043547
497.49672725624885
497.503361030323
497.51513672944566
497.53191795520087
497.55359021527073
497.5800219850161
497.6110826623218
497.6466430261796
497.68654939665544
497.73066776279717
497.7788468124545
497.83093784844334
497.8868038621961
497.9462804189839
498.0092195773397
498.07547034975045
498.14487018988626
498.2172779366297
498.2925324527108
498.3704991101942
498.4510287941895
498.5339625900121
498.61916246139424
498.7064764733046
498.7957764965444
498.88692145837166
498.97975976285034
499.07415999196064
499.169971480579
499.26706577808653
499.36530146680735
499.46454137313884
499.5646654810852
499.66554702556846
499.76708122336964
499.8691505374251
499.9716380105796
500.07444267541695
500.17744463158687
500.2805422650752
500.3836280989606
500.4865974549755
500.5893615335825
500.69181016736326
500.79386213667345
500.8954147394292
500.99637630035164
501.0966791367137
501.1962360847195
501.2949669897953
501.3927876084755
501.4896291451059
501.5854362619204
501.680123575826
501.77363037186296
501.86589661264435
501.9568498996439
502.0464315810407
502.1345613613794
502.221196149819
502.3062931963907
502.3897906929884
502.4716381623996
502.5517652484989
502.63014265064714
502.7067319714677
502.7814859862929
502.8543816842726
502.9253722110557
502.9944350313408
503.0615369511165
503.126667111486
503.1898024524824
503.25091007197125
503.3099755903558
503.3669810911163
503.421896082286
503.47471444213966
503.5254215368998
503.57401617133587
503.6204929938418
503.6648422895536
503.70707601083797
503.74719282510785
503.7851999786817
503.8211175886219
503.854959246768
503.8867453772417
503.9164768008317
503.9441781983636
503.9698805454855
503.99360596928807
504.01539197519077
504.035252116008
504.0532196458634
504.069329758335
504.08361957079154
504.09612596739214
504.1068699161894
504.1158999571157
504.1232549841101
504.1289772993355
504.13310806655505
504.1356782424464
504.13673899197954
504.136333132026
504.13450377233136
504.13130077253754
504.1267543358893
504.12092523487877
504.11385459848293
504.10558367116244
504.09616682050415
504.0856364221818
504.0740421940071
504.06142709262866
504.0478250021816
504.0332956786789
504.0178656760778
504.0015829556706
503.9844839400995
503.9666043845966
503.94799910836076
503.9286939097378
503.9087270940379
503.88812954758004
503.8669288331384
503.84517103939703
503.82288370747824
503.8001088209606
503.7768832371152
503.7532367225685
503.7292096342692
503.70482227111825
503.68012522823085
503.6551448800573
503.62990986513194
503.6044577311279
503.57880647532915
503.55298510937337
503.52702255395917
503.50095403486847
503.474834385506
503.4486860532318
503.42255207065824
503.3964655871311
503.37046758367944
503.34460057230257
503.3188756466445
503.29333112824423
503.26800608040975
503.2429381322508
503.21816984950084
503.19371775329574
503.1696310809568
503.1459456623634
503.12269033952657
503.0999151984254
503.0776499690195
503.05594564774583
503.0348372900357
503.01435705898
502.99456923719424
502.97550940651854
502.95722650232375
502.93975216740984
502.92311580169996
502.9073663240327
502.8925371492873
502.87867685558456
502.86581645714404
502.8539845696874
502.8432068207218
502.8335119276106
502.8249403640431
502.81752249949164
502.8112718610251
502.806217634746
502.80237586169625
502.799777622561
502.79844720211344
502.79840656227725
502.7996842966313
502.802280736579
502.80622038515924
502.81151261890454
502.81815819924054
502.8261688247416
502.83554970039717
502.8463173258574
502.8584692641444
502.87198629807807
502.8868648866988
502.90307962389346
502.92063556211014
502.93952243840545
502.9597213202241
502.98122200037494
503.00400121568674
503.0280403049597
503.05331642020286
503.07980468207563
503.10749137713316
503.1363435978675
503.1663380085593
503.19744779598005
503.22963842383876
503.2628852676084
503.2971452545329
503.3323942404106
503.368578908908
503.40566687644457
503.44363796841753
503.48244297028793
503.52204536488995
503.5624037927066
503.60347196091766
503.64522703914673
503.68761719449975
503.7306164244245
503.77418758827025
503.81829361396143
503.86290874715274
503.90797937384593
503.953472156592
503.99935658029506
504.04559201999206
504.0921519518682
504.1389911792653
504.1860830216136
504.23340185440287
504.2809101225095
504.3285913485583
504.37640219069283
504.4243249483972
504.4723191291673
504.5203495916829
504.5684016579576
504.616446048305
504.66447188523153
504.7124695705
504.76041808636006
504.80829810712254
504.8560608084886
504.90369070338187
504.95117031110004
504.9984756445521
505.0456022661146
505.09252589216123
505.1392464745918
505.18575127231645
505.23203465287537
505.2780961588166
505.32391231656715
505.36949148704076
505.4148193740583
505.4598831531339
505.5046911807963
505.5492249358778
505.5934981261862
505.6375021315665
505.68123892245063
505.72472992073006
505.7679504812063
505.81091062455704
505.8536154941594
505.89606977687447
505.9382952578167
505.98029592166694
506.0220885980747
506.06368095395885
506.10509334668103
506.1463589987713
506.187491505711
506.228519972855
506.269460506137
506.310340162769
506.3511970321355
506.3920673856271
506.43299241561544
506.4740117445904
506.51516344321055
506.55649930626885
506.5980542226729
506.63988783465277
506.6820494597009
506.7245955588461
506.76758759931346
506.8110810520528
506.8551273522618
506.89977768264635
506.9450954862428
506.9911694497065
507.0380634084411
507.0858668707357
507.13464467731984
507.1844740066371
507.23543541302826
507.28759728115784
507.341039593594
507.395844960684
507.45208525745034
507.509847477769
507.5691850851511
507.6301786435099
507.69290463899796
507.7574241259518
507.823810640336
507.89211678758846
507.9624108794721
508.03474583250727
508.1091851890963
508.18578099752835
508.264551341279
508.34553429491984
508.42876982791677
508.51428648324304
508.6021167533331
508.6922531467469
508.7847024301188
508.8794435238845
508.97644867110165
509.0756914024647
509.17712180460893
509.28070332049975
509.38638199784634
509.4940819708965
509.60373374226486
509.71523253631096
509.8284775443848
509.9433519399988
510.0597203409675
510.1774527174356
510.2963806660599
510.4163609359155
510.5372144402105
510.6587506464496
510.78079192032067
510.90312144647936
511.0255208586553
511.14775297997886
511.2695772382917
511.3907610565086
511.5110326204649
511.63014732549937
511.7478339457522
511.86380863417793
511.97780628166333
512.0895266509588
512.1986878181012
512.3049921952935
512.4081406339843
512.5078353333482
512.6037674214466
512.6956507618839
512.7831857739931
512.8660802098364
512.9440547814507
513.0168092195465
513.0840757075698
513.1455737629055
513.2010396002232
513.2502227126274
513.2928558794711
513.3287216121287
513.3575941522894
513.3792600951762
513.3935367291422
513.4002313494473
513.3991967830477
513.3902886453246
513.3733840429492
513.3483869847261
513.3152030950845
513.2737800958984
513.2240826835716
513.1661047838286
513.0998578271235
513.0253675202164
512.942694334197
512.8519188373393
512.7531466717496
512.6465221850981
512.5321785661584
512.4102947436579
512.281068650799
512.1447252972856
512.0015292108365
511.85175330593165
511.6957110836413
511.5337517137991
511.3662423617238
511.1935853449172
511.01617375026234
510.8344541267013
510.64887094654773
510.45990068511225
510.2680441444413
510.0737990479287
509.87769803474896
509.68028958075615
509.4821321551431
509.28381245193657
509.0858978941784
508.88899839596064
508.69371650588346
508.50065862952044
508.3104528343701
508.12371207830574
507.9410630026053
507.76311548644435
507.59048231424504
507.42377685908724
507.26359112466446
507.11053968086
506.9652098349919
506.82815747847445
506.69993966918275
506.5810729214125
506.47207479118396
506.3734266651105
506.2855935137268
506.20901971780324
506.14409864233784
506.09120552417943
506.05067553568443
506.0227994315592
506.00784991404885
506.00604031809746
506.01756673876105
506.04258264496957
506.0811780922265
506.1334156580386
506.1992897953215
506.27877191172206
506.3717591393146
506.4781237136394
506.5976995699724
506.7302364453427
506.87545227012083
507.0330222976532
507.20256653610306
507.3836591071328
507.57580245048104
507.77849600794366
507.9911521549934
508.2131564385532
508.4438689417124
508.682571347581
508.9285189698845
509.18092922791664
509.43899233375555
509.7018781767874
509.9686975811998
510.2385532335617
510.51051180409223
510.7836134595551
511.0568924030634
511.3293603939949
511.6000388625932
511.86792350192326
512.1320035032252
512.3912807760281
512.6447345424033
512.8913755959092
513.1302107543029
513.3602708420319
513.5806148195112
513.7903010438608
513.9884371791319
514.1741314208442
514.3465330281552
514.5048376813364
514.6482555046683
514.7760466034787
514.8875123608914
514.9819885153639
515.0588706732611
515.1176047023066
515.1577057772072
515.1787379333801
515.1803219364411
515.1621342573998
515.1238924157741
515.0654190662561
514.9866015820936
514.8873847230296
514.7677762549263
514.6278235610845
514.4676642324121
514.2874758602329
514.0874908753486
513.8680173697367
513.6293896306487
513.3720255171881
513.0963849774415
512.8029875435235
512.4924166158796
512.1652819600088
511.82227851740055
511.4641316092068
511.0915967740513
510.7054789076456
510.3066008117741
509.89583748045953
509.4740780596388
509.0422400149031
508.60127013998857
508.15211268474087
507.69574297662206
507.23314413051895
506.76531025366694
506.2932431461592
505.81792257463945
505.34034202692015
504.86146983604993
504.3822737190126
503.90372380553623
503.42674776197816
502.9522844586147
502.48124176113436
502.0145072315912
501.552950287526
501.09738957242286
500.64863270287236
500.207446136871
499.7745557634921
499.35066956563776
498.93643265435605
498.5324698681133
498.1393650208187
497.75765347189684
497.387854568097
497.03041248294414
496.68574853017566
496.35424782496307
496.03626178539497
495.7320868389081
495.44196030077165
495.16610444267485
494.9047052186477
494.65789773959904
494.42580443096267
494.20848379776106
494.00598436264744
493.81829333151074
493.64539478751254
493.48724725299553
493.3437459466054
493.21479224726176
493.10026061483507
492.9999918968241
492.91381256560175
492.8415012592706
492.78285159044015
492.73763002498714
492.7055863497653
492.6864707740984
492.6800050476274
492.6859102187804
492.7038860055437
492.7336316721096
492.77485166709124
492.8272240378435
492.89045413709636
492.9642343096622
493.0482495330463
493.142189329373
493.24572870233885
493.358568098509
493.4803968403025
493.6109135924278
493.74982708995645
493.89682380616955
494.0516185723346
494.2139396744365
494.3835120309326
494.56008639503233
494.7434007709868
494.93320726776943
495.12926146758025
495.3313138488142
495.53913161571126
495.75248331536454
495.9711586480104
496.19493765175287
496.4235965820769
496.6569289556396
496.8947251720517
497.1367917676518
497.3829245286751
497.63293620879523
497.8866451710433
498.1438485776787
498.4043808238853
498.66806070272037
498.93470855220806
499.20416770003874
499.4762561159715
499.75080789146415
500.0276312074738
500.3065358445469
500.58735425258004
500.86989516379737
501.15398041424857
501.43942927321064
501.7260539279439
502.0136658772301
502.30205365487336
502.5910282993476
502.88038803770445
503.1699180908851
503.4594165992967
503.74866377492623
504.0374658014556
504.3256115791971
504.6128865228266
504.89907961986916
505.18395754718176
505.4673066903914
505.74888976614847
506.02846567551836
506.30579824867885
506.5806298617935
506.8527295163244
507.1218580466013
507.38777292643294
507.6502397070683
507.9090039914027
508.1638355763222
508.4144961833517
508.6607355475396
508.90232008996105
509.1389937747752
509.37053101287796
509.5967153799197
509.81731843643206
510.0321134559501
510.2408627991443
510.4433598858934
510.6394012021749
510.8287737167292
511.0112903250742
511.18673985563476
511.35494431817614
511.5157221045689
511.6689103436311
511.8143544672231
511.95188219013914
512.0813650298642
512.2026662251313
512.3156629624351
512.4202489786386
512.5163108769569
512.6037766613848
512.6825616059295
512.7525904208348
512.8138104380729
512.8661676205089
512.9096394725052
512.944202427606
512.9698451971676
512.9865775605008
512.9943975021049
512.9933414057158
512.9834444099683
512.9647422984816
512.9373104976454
512.9012179561707
512.8565643750321
512.8034407246367
512.7419508885358
512.6722201451245
512.5943642839565
512.5085397438137
512.4149042185177
512.3136121958916
512.2048431454798
512.0887596254859
511.96555492882317
511.83542199973346
511.6985573428982
511.5551846117295
511.40551279918566
511.2497665238445
511.0881723053225
510.9209644285095
510.7483974680261
510.5707065481664
510.3881353258963
510.2009374693101
510.0093717207058
509.8137036721992
509.61419451379317
509.41111852540973
509.20473438232847
508.99531529612005
508.78314003347856
508.5684553068218
508.35152972242986
508.132629075067
507.9120269572699
507.6900002641083
507.46679388332075
507.24267699352924
507.017905394226
506.7927297918711
506.56741284578726
506.34220057411795
506.1173596061305
505.89312912006415
505.669746936514
505.44746906400934
505.2265194469407
505.0071292856657
504.7895124776395
504.57388473245896
504.36046111818933
504.14944039139834
503.94103090624816
503.7354241206436
503.5328096784427
503.33339064532595
503.13734430026244
502.9448574713425
502.7560938073417
502.57120670718575
502.3903587228911
502.21368642174394
502.04133969382815
501.8734465290744
501.7101323990317
501.5515310410142
501.397745074268
501.2488963243
501.1050909218251
500.9664082743356
500.8329290765209
500.7047218028354
500.58188648419355
500.46449391427296
500.35259696203224
500.2462591473252
500.14550660166265
500.0503783488838
499.96090648709094
499.8771184119879
499.7990348275157
499.7266523077459
499.659980523833
499.5990115642922
499.5437286538408
499.49411921346416
499.4501507903369
499.4117975227202
499.3790094857755
499.3517432627585
499.3299577716607
499.31358613936845
499.30256651645675
499.29681572479336
499.2962509543789
499.3008028694293
499.3103698995107
499.3248733332102
499.34422048086094
499.3683072809296
499.397042997537
499.4303003461848
499.4679724958918
499.5099338190643
499.55605326367703
499.6062098263529
499.66026641663524
499.71810086440826
499.77957124902196
499.84453125986164
499.9128411868759
499.9843438579858
500.0589018877456
500.1363671984135
500.21659434424606
500.2994496513331
500.3847635137213
500.4723940668335
500.5622011992866
500.6540471598354
500.7477884565782
500.84325422799077
500.9403008393217
501.0387880065191
501.1385660014943
501.239495420686
501.34141657424743
501.4441843525751
501.54766588469437
501.6517276885114
501.75623817048506
501.8610502206025
501.96604291629285
502.07109106257496
502.1760719639466
502.28087655894245
502.3853769335228
502.4894727387384
502.5930433737159
502.6959699299623
502.79814370779116
502.8994417121289
502.999769967093
503.09901945417556
503.19709443812746
503.2939124363116
503.3893734946166
503.4833996112469
503.5759175090248
503.66684368391566
503.7561042550211
503.8436262687369
503.9293379014181
504.01316846380894
504.09505268453427
504.174941709351
504.252752792147
504.32842589798315
504.40190795861815
504.47314841607374
504.54210819183385
504.6087225627663
504.67296448517
504.73479872541805
504.7941931778644
504.851123526068
504.90554489558855
504.95743780622246
505.0067752696479
505.0535314144247
505.0977012053969
505.1392700959844
505.1782384346186
505.214579793844
505.24828204668904
505.2793536352731
505.30777976227597
505.33357489453056
505.35675878344375
505.3773413293417
505.39534448299975
505.4107781917796
505.42367769609507
505.4340642888898
505.4419583764627
505.44740764519514
505.4504322733393
505.4510772847284
505.44938393251715
505.44540283284675
505.4391918132224
505.43079186214936
505.4202752607727
505.40770642914794
505.393148902179
505.37667861042314
505.35833992020696
505.33821305086906
505.3163721375988
505.2928849030511
505.2678363836885
505.2412980443181
505.21336266488174
505.1841047774951
505.1535955925
505.1219331797492
505.0891896478474
505.05545234296335
505.0208102397412
504.98535379550117
504.9491772304553
504.9123611104496
504.8750007744353
504.8371800170237
504.7989665562912
504.7604442566894
504.72166644519757
504.68272548860216
504.6436979127272
504.6046486001623
504.5656391209903
504.52672508032526
504.48798007603835
504.4494585544939
504.4112131771927
504.37331006250724
504.33578303057266
504.298686323307
504.26206196961846
504.22592885733087
504.1903195694292
504.1552516601257
504.1207605660157
504.0868626796337
504.0535620109578
504.02087622209274
503.9887838750367
503.95728328634135
503.9263615496067
503.89600977023446
503.8662387133632
503.8370379301556
503.8084116785797
503.7803380922173
503.7527916262018
503.72576309454064
503.69920967153183
503.6730987998621
503.64739926372783
503.6220657633948
503.5970717322824
503.5723766221982
503.5479478385897
503.52376094294146
503.4997826436345
503.4759864987808
503.4523224157253
503.4287781290327
503.4053382290657
503.3819629158838
503.35862973995927
503.33531172709206
503.3120063012115
503.28868760953725
503.26533276850694
503.24193709751273
503.218479154147
503.1949624681954
503.1713806724498
503.1477371553773
503.12404728183196
503.1003057273359
503.07652359765086
503.0527150486847
503.02889949104406
503.0051104305395
502.9813647519811
502.9577066148066
502.93417052191745
502.91078345338985
502.8875821004051
502.8645905531938
502.8418635623476
502.8194403297303
502.7973750602548
502.775737070579
502.7545627080566
502.73391432555485
502.7138428899205
502.6943986282662
502.6756371539264
502.6575970052054
502.64033849894315
502.62389278420227
502.608304679826
502.59363637697305
502.5799300157152
502.5672558868882
502.5556623304627
502.54518446627037
502.5358723783594
502.52774929971207
502.5208529010788
502.5152086690711
502.51084501893513
502.50781091069837
502.5061104933522
502.50577536123023
502.5068186402411
502.5092392752467
502.5130369370792
502.51819627465267
502.52471937326845
502.53259050798283
502.54179785153735
502.5523468462427
502.5642015933352
502.57735729069094
502.59178355747355
502.6074486335811
502.62432395832354
502.6423692270353
502.66154586156904
502.68180404890524
502.7030981438622
502.7253868245107
502.7485850298352
502.7726468862892
502.79751309234086
502.8231242416291
502.8494365830839
502.8763831838669
502.90390490840133
502.93192650137274
502.9603806524698
502.9892147517036
503.0183429417325
503.0477118843151
503.07726393383547
503.1069332177403
503.13667661307943
503.1664149566488
503.19609004980754
503.2256339316344
503.25498204091446
503.28409312151115
503.3128924825806
503.3413421384839
503.3693996461316
503.3970097456824
503.42414392244694
503.45075696417246
503.47682669709945
503.5023193744575
503.5271942911571
503.5514299734232
503.5749891522909
503.59786254774605
503.62002065748715
503.6414352048903
503.6621094792422
503.68202811127713
503.7011810291779
503.7195652266399
503.737184578049
503.75405436352906
503.7701706758174
503.7855519669587
503.8002171850258
503.814188167425
503.8274876022634
503.8401169962995
503.852108928325
503.8634875556166
503.874279389392
503.8845328191479
503.894263493518
503.90350223253046
503.9122791405096
503.92062755320455
503.92858822580223
503.93620486205657
503.9435352024207
503.95061178832714
503.9574724407291
503.96416209660526
503.97070167663
503.97713795286506
503.98350823385704
503.98985104126444
503.99622125796054
504.002653011717
504.0091970456101
504.0158879777715
504.02277511484846
504.0299051410165
504.03730238265933
504.04500582147324
504.0530425207045
504.0614338800705
504.07022169041744
504.0794176218178
504.0890577416434
504.09916957544294
504.1097743316546
504.12089346200105
504.13251977806385
504.14468265443367
504.1573888233926
504.1706485508677
504.18447571031544
504.198872645242
504.21385884534874
504.2294362303818
504.245604764877
504.26236694646167
504.27970147667264
504.29761585603336
504.3160917835403
504.33511569754904
504.35466989530465
504.3747279871032
504.3952678590222
504.41626718549435
504.43769685619526
504.4595318092573
504.48172009652507
504.5042594522674
504.5271188657181
504.5502629826134
504.5736566635511
504.5972540249436
504.6210181570422
504.64490598201115
504.66887946422855
504.69291468150675
504.71696072509747
504.74098626992503
504.76494500299015
504.7887845231619
504.812468280844
504.83592294215373
504.8591102746915
504.8819789032894
504.9044774299157
504.92657416926426
504.94820697131854
504.96934243889575
504.9899300762124
505.00991541070215
505.0292618645905
505.04791126258397
505.0658296122571
505.0829610832969
505.09925855250583
505.1146945935519
505.1292180038166
505.14279788542564
505.15539099168956
505.16696162520617
505.17747975011855
505.18690139830335
505.19520158120076
505.20235061059594
505.20830772263884
505.21304712346284
505.2165315741302
505.21874305712305
505.2196588414043
505.21924713620064
505.21749322324143
505.21436442361124
505.2098584007508
505.2039595698381
505.19666119311114
505.1879524697382
505.1778029938441
505.1662171776002
505.15319285383026
505.138725775619
505.1228227189823
505.1054862912844
505.0867215683002
505.06652060340616
505.0448906439326
505.02185623891387
504.9974265349355
504.9716262160406
504.9444716450406
504.9159861879539
504.88620027236783
504.85512066550467
504.8227783157455
504.7892018497463
504.7544285042044
504.7185042578597
504.68145332434796
504.6433219272595
504.60414976830987
504.56396993128135
504.5228393593567
504.4807993110199
504.4379104444173
504.3942179306483
504.34977085964937
504.3046329354672
504.25885631512665
504.21251242417924
504.1656569304874
504.1183514488813
504.0706634109715
504.02265066364157
503.97438544376104
503.92592568821965
503.8773321839164
503.8286813838912
503.7800258056319
503.73144631378256
503.6830081764115
503.63478289959454
503.5868350496677
503.5392264261295
503.4920245584582
503.4452959843238
503.39910827729074
503.35354540026054
503.30866428557454
503.2645433136585
503.2212384635097
503.17880267646837
503.13729876718804
503.09677519966544
503.0572899076721
503.01889250614727
502.9816306792003
502.9455652292986
502.91071939760315
502.87713753578623
502.84485850323455
502.81391770836603
502.78436461674926
502.75621910064064
502.7295329133482
502.70433307568277
502.6806440373852
502.6584944362415
502.63788861736583
502.61885255622605
502.6013923795393
502.5855183899154
502.57126269210363
502.5586337836686
502.54765216569336
502.5383156639068
502.53062150973466
502.52457949476127
502.5201702505861
502.51740418999555
502.51628220564373
502.51680252591706
502.51897628377617
502.52279287283676
502.5282551768369
502.5353598615915
502.5441106883326
502.5545298885978
502.566612804476
502.58036547279886
502.59578716508895
502.612879031348
502.6316615886626
502.6521310875118
502.67430994470186
502.69821397032376
502.72385463184355
502.75126088783884
502.7804530620916
502.81147168907324
502.8443405498545
502.8790886080244
502.9157542684024
502.95436986893515
502.99497682385567
503.03761234234906
503.0823290338659
503.12918618932747
503.1782190538386
503.2294778337588
503.2830163511691
503.3388939934515
503.39717116858736
503.45789593101205
503.52113001382077
503.58692441712543
503.65532530822634
503.7263863153499
503.8001369904602
503.8766322995165
503.95591472159197
504.03802455817765
504.1230126575471
504.2109072247136
504.30173735414206
504.39551935854485
504.49227814759286
504.5920249962678
504.6947461574714
504.80043941778234
504.9090894535966
505.0206696075136
505.135143685916
505.2524522691657
505.37254489905445
505.49535551307343
505.6208044176962
505.7488134789059
505.879264373106
506.0120531067133
506.1470459859094
506.28409904275617
506.4230622042944
506.56377715668344
506.7060711945192
506.8497597897094
506.99465350709914
507.1405432129758
507.28719162395436
507.4343729651219
507.5818450757949
507.72934336965926
507.8766053526092
508.02334693143666
508.1693001014849
508.31417869585124
508.45768810268305
508.59954811812963
508.73944141508105
508.87707150742426
509.0121310575239
509.14430513368126
509.27329847283954
509.3987928111216
509.52050070477503
509.63810341095774
509.75128902885723
509.8597728960915
509.96325701943664
510.0614705969447
510.1541448359997
510.2410251887762
510.32187485498827
510.3964341933752
510.4644804356574
510.52579326821274
510.58017743799496
510.627476888344
510.66752786062284
510.70021271500576
510.72541527062475
510.74303946989295
510.75302364108535
510.7553153033398
510.74990526822523
510.73678966757194
510.7159840286008
510.68754782965834
510.6515345555183
510.6080533232508
510.55723432768826
510.4992337580924
510.4342341328124
510.3624201145121
510.28403273628135
510.1993230248308
510.10856010979404
510.0120653230262
509.9101588099688
509.80320680705177
509.6915835593233
509.57570321626457
509.4560103681226
509.3329466757196
509.20697832812226
509.0785924371219
508.9482913558903
508.8165934242841
508.68401801349825
508.5511187153889
508.418457617338
508.28660146646854
508.15612202295824
508.027587427933
507.9015863079051
507.778710478455
507.659553186677
507.5447118116948
507.43475982759423
507.3302886815541
507.2318774824473
507.1400912524851
507.0554835860172
506.9785815494404
506.9098988286731
506.84992905128286
506.79914569705954
506.75799090310124
506.72688156462976
506.70622885933426
506.69640556415396
506.6977440645637
506.71055621431736
506.73510747750754
506.7716438185116
506.8203507675316
506.8813713209118
506.9548281840769
507.040778558272
507.13925900563356
507.25024954584666
507.37368379251336
507.5094592902071
507.65740430088886
507.8173035296496
507.9888976152019
508.1718741897674
508.3658719926645
508.5704764579351
508.7852353687554
509.0096461974197
509.2431611758628
509.48519726797736
509.7351137038103
509.9922464349159
510.25587271172725
510.5252261163449
510.7995226670315
511.0779082377893
511.3595242002645
511.64347269131133
511.92883684118925
512.2146817162602
512.5000203571573
512.7838627052288
513.0651944034007
513.3430019646828
513.6162831857981
513.8839963548315
514.1451276013828
514.3986467477783
514.643533096518
514.878785860915
515.1033996820938
515.3164146640503
515.516879007773
515.7038706699441
515.8765079692952
516.0339096424858
516.1752508208127
516.2997310742426
516.4065902995002
516.4951221562284
516.5646499701523
516.6145481183926
516.6442497952738
516.6532549021726
516.6411361467854
516.6074924139477
516.5520112449071
516.474419579249
516.3745128435272
516.2521663043502
516.107313856932
515.9399752460744
515.7502152655737
515.5381770051542
515.3040867172925
515.04819292138
514.7708207585472
514.4723490254997
514.1532219294984
513.8139407792104
513.4550486008502
513.0771759624513
512.6809973536804
512.2672289674913
511.8366545276149
511.3900877370455
510.92839811953587
510.4524862582137
509.96327851575353
509.46174334563466
508.9488725288758
508.42569970756654
507.8932663839766
507.35262928711677
506.80486312972334
506.25104141938505
505.69226764099517
505.129629977452
504.56420170877715
503.9970631360846
503.4292798986625
502.8619231188411
502.29605495533286
501.7327124931698
501.17293120379475
500.61770977908475
500.0680255490445
499.5248189969019
498.9889914352945
498.46142693776113
497.9429509651116
497.4343787936272
496.9364744881515
496.44997819909366
495.9755857772741
495.5139282478082
495.06561454253705
494.63120670878953
494.21121729322556
493.80612218407606
493.4163362476853
493.04225701911776
492.6842366611435
492.34258491628066
492.0175766905285
491.70942259339466
491.4183093873806
491.1443813520344
490.8877414661782
490.6484613082252
490.426569229975
490.2220825282009
490.03496093134805
489.86513871986153
489.7125393491336
489.5770333291558
489.4584946397092
489.35676318410526
489.2716532465136
489.2029551340301
489.1504299419559
489.1138503864796
489.09296755808043
489.08751054568603
489.0972142988453
489.12176856164524
489.16088259446184
489.21424251053224
489.281538638818
489.36245574924374
489.45665870492047
489.5638282846162
489.6836313136542
489.81573449534335
489.9598159949573
490.11552659365213
490.28254710259046
490.46054522788853
490.6491892721682
490.8481661207906
491.0571490216079
491.2758354520546
491.5039261478527
491.7411106947662
491.9870898292202
492.2415449530512
492.5041819689928
492.7746984311146
493.05281419302827
493.3382541768793
493.6307178807811
493.92992717618756
494.2355908416201
494.5474238224643
494.8651443453323
495.1884466497988
495.51706574119055
495.85073332333826
496.18917558106983
496.53213054013395
496.8793150942508
497.2304641740336
497.5852908932878
497.94351659636374
498.3048748338152
498.6690738488946
499.0358443209839
499.4049041427966
499.77595827630375
500.1487334863092
500.52293447593274
500.8982810388521
501.2744751115691
501.6512160188885
502.02822000304513
502.4051918717423
502.7818495556435
503.15788735755757
503.5330046933972
503.9069152471159
504.2793169013555
504.6499272659749
505.018447016296
505.3845711768717
505.74801120539126
506.10845139753843
506.46560360280625
506.819170298484
507.1688557988975
507.51438184096594
507.8554508573863
508.19179457621533
508.5231263015162
508.8491630562018
509.16963434563667
509.48426923371863
509.79281443822964
510.0950107495627
510.3905998742082
510.67934439677975
510.9610041732526
511.23536104779924
511.5021801120385
511.76123177055416
512.0122959465161
512.2551552848895
512.4896215039265
512.715509564615
512.9326380752465
513.1408449925849
513.3399573588475
513.5298287957601
513.710300204784
513.8812414009028
514.042536089585
514.1940580725814
514.3357130220992
514.4673993330762
514.5890234555847
514.7005151583327
514.8018057764114
514.8928547223254
514.9736124793714
515.0440380754458
515.1041186762252
515.1538278969318
515.1931848851209
515.2221999093182
515.2408964555937
515.2493068538546
515.2474656007776
515.2354398603094
515.2132922714881
515.1810962502149
515.1389468000058
515.0869209346542
515.0251255015733
514.9536725889582
514.872692256595
514.7823369401508
514.6827443634032
514.574081284182
514.4564996068447
514.3301665684693
514.1952795921844
514.0520202577513
513.9005936818027
513.7412086606861
513.5740818681312
513.3994309533012
513.2174717043304
513.0284482152306
512.8325865611544
512.6301357761776
512.4213586920878
512.2065055068122
511.98584427489953
511.75963201567
511.52813364598177
511.2916302088905
