485.99999999999994
486.3386390796292
486.6776021660622
487.0172122582111
487.3577836312303
487.6996248706151
488.0430330672576
488.3882987665896
488.73570203065833
489.08551726478566
489.43800940468185
489.7934258900287
490.1520105813164
490.51399377579236
490.879584530839
491.24897832599555
491.62235386221187
491.99987436750285
492.38167590987086
492.767868778355
493.1585320971441
493.55372126749916
493.953471032665
494.35779003890383
494.76664659643365
495.1799937259684
495.59775716345854
496.01984132014746
496.4461179462785
496.876425697068
497.310585229114
497.7483818472772
498.18956125682627
498.63384046574805
499.0809011723899
499.53039184635816
499.98193651497587
500.43512847792584
500.88954182203094
501.3447147942617
501.80015063550405
502.25532483997904
502.7096925767677
503.16267887143914
503.6136907833961
504.06211006015326
504.50729908837263
504.94860263976636
505.3853454625896
505.8168386476427
506.2423750765482
506.66123145267346
507.07267696005795
507.47597775527134
507.87038843683325
508.25514997922005
508.62949835065166
508.99266858857146
509.34390545811067
509.68245894941333
510.00758429113597
510.31855074319463
510.6146395137719
510.8951527652138
511.15940744148276
511.4067355361899
511.63649068929925
511.84805707035486
512.0408474567178
512.214310136988
512.3679249392728
512.5011925524822
512.6136519884546
512.7048691901451
512.7744471462206
512.8220424321878
512.84734679418
512.8500881639669
512.83004895621
512.7870625038952
512.7210140278364
512.631837234378
512.519512952461
512.3840809462799
512.2256210470563
512.0442602436694
511.84016406436956
511.6135384069707
511.36464172039405
511.0937816307044
510.80132032596003
510.4876602576864
510.1532493948354
509.7985908187634
509.4242371737068
509.0307831589681
508.61886905352594
508.18917768638903
507.74243148343004
507.2793961226088
506.80087992662504
506.3077268252792
505.8008116609782
505.2810639668038
504.74946146594056
504.2070440367956
503.65489362411523
503.0941303516562
502.5258978252835
501.95136551465487
501.37171946074545
500.78817172153964
500.20196908292075
499.61438363918734
499.02672019859784
498.44032110943783
497.85654899333775
497.2767842549461
496.7024217210285
496.13488844403565
495.5756393578479
495.026177073647
494.48802171723463
493.9627291557816
493.4518745670075
492.9570650471084
492.479913090294
492.0220362410883
491.58506528239
491.1706260707188
490.7803474030725
490.41584874898507
490.07874964702495
489.770670319148
489.4932148430937
489.2479717395851
489.036507764046
488.8603592894085
488.72102776038366
488.6199659640379
488.55859228581414
488.538276391629
488.56033356343386
488.6260143990258
488.7365075185967
488.8929115137278
489.09624152432804
489.34742663425277
489.6472984316871
489.99659062185316
490.3959211491955
490.8457852727518
491.3465551703545
491.8984796077256
492.5016620905115
493.1560590188289
493.86148904330844
494.61761891430575
495.42395874137253
496.2798445831722
497.1844497852851
498.13678159937064
499.13566983667715
500.17977146251343
501.2675671002739
502.3973649418178
503.56729245314216
504.77529753464864
506.0191590606193
507.2964785714761
508.6046924156147
509.94106715681636
511.3027288226264
512.6866495670661
514.0896660860834
515.5084794117918
516.9396555213227
518.3796507160461
519.8248182946097
521.2714182781588
522.7156190231998
524.1535256468857
525.5811740151613
526.9945623516581
528.3896525427724
529.7623981673347
531.10875766993
532.424725629813
533.7063452111482
534.949710280864
536.1509808456286
537.306393984326
538.4122964050173
539.4651593626347
540.4615824172873
541.3983097153543
542.2722608904218
543.0805307919487
543.820403743127
544.4893645290822
545.085118993963
545.605591424433
546.048940233145
546.4135875584947
546.6981839594602
546.9016257001733
547.0230256634611
547.0617536909891
547.0174660763572
546.8901080355744
546.6799247592439
546.3874594891016
546.0135453309936
545.559294906927
545.0260942605033
544.4155811005049
543.7296419383418
542.970426044353
542.1403374684012
541.2420206422257
540.278345704495
539.2523823514481
538.1673593819937
537.0266858767633
535.8339028939075
534.5926969102188
533.306876699472
531.9803687856715
530.6172034149369
529.2214867045528
527.7974029050788
526.3491836482013
524.8810923332229
523.3974083486522
521.9023914409805
520.4002875363677
518.8952931583456
517.3915550444059
515.8931461037372
514.4040574044736
512.928186649911
511.4693122488783
510.03108136137706
508.6169988230951
507.23041478500335
505.87451332216057
504.5523263367038
503.26671194576573
502.0203299278464
500.8156466496072
499.65492784735414
498.54023909138954
497.47344760144875
496.45621221614255
495.4899677097275
494.5759558385502
493.7152226274905
492.9086081643023
492.1567460688504
491.46007901064405
490.81887073715495
490.2331928356414
489.7029382916752
489.2278333987822
488.80744149930143
488.44117152686454
488.1282803508127
487.86789949106725
487.6590382060459
487.50058472015604
487.3913294940644
487.32996457785686
487.3151006048706
487.34526615863314
487.4189353458562
487.5345203618085
487.6903945255405
487.88489764304734
488.1163432855214
488.3830256437978
488.6832324233037
489.0152551299921
489.377390139872
489.76796338029965
490.1853175247425
490.6278314848097
491.09391533847963
491.5820264708277
492.09066305225036
492.6183677564252
493.16373295574164
493.7254118644734
494.3021227005743
494.89263930804066
495.495792020456
496.11047450538894
496.73564363241945
497.37030781650117
498.01353887283875
498.66447047150547
499.32231182326444
499.98631980633934
500.655810487764
501.3301574856216
502.008783547025
502.6911720067988
503.37684593188266
504.06540020339213
504.7564750308405
505.4497402421837
506.1448965846609
506.8416589908046
507.53976750925864
508.2389692559068
508.9390216897947
509.63969302139355
510.3407733428192
511.042059591084
511.74334243932043
512.4444035606771
513.145025633278
513.8449693630243
514.5439964563185
515.2418735179474
515.9383460028425
516.6331629965445
517.3260611036915
518.0167598783632
518.7049621088671
519.3903479453414
520.0725804023066
520.7512980509898
521.4261146251791
522.0966233382478
522.7623861085775
523.4229537282628
524.0778447667783
524.7265707202349
525.3686111355921
526.0034282641038
526.6304620711649
527.249133996578
527.8588398249469
528.4589710005038
529.04889671309
529.6279789100089
530.1955676290028
530.7509896343028
531.2935607391804
531.8225915818173
532.3373935184987
532.8372670820564
533.3215035376786
533.7893949121876
534.2402352403934
534.6733309278322
535.0879827873604
535.4834875353838
535.8591456185112
536.2142756165532
536.5481981736341
536.8602372900974
537.1497346455365
537.4160443294455
537.6585341808837
537.8765871198718
538.069600279129
538.237001722959
538.3782322896725
538.4927471038098
538.5800322312572
538.6395972402678
538.670974444073
538.6737269108354
538.647438983497
538.5917152635651
538.506196806692
538.3905554399458
538.2444990621578
538.0677682802574
537.8601506322816
537.6214577956355
537.3515464830097
537.0503064486833
536.7176571247497
536.3535658638804
535.9580355249137
535.5311249470433
535.0729213582488
534.5835519351217
534.0631863283725
533.5120369634136
532.9303570143384
532.3184425121347
531.6766344055194
531.0053162446269
530.3049161867899
529.5759023826643
528.8187936206258
528.0341525096287
527.2225875048786
526.3847328485089
525.5212632129754
524.6329038144669
523.7204208789296
522.7846033513785
521.8262748354036
520.8463141824517
519.8456303817563
518.8251681321074
517.7859001435828
516.7288235775222
515.6549737550628
514.5653961133019
513.4611748669961
512.3434267333191
511.21328617588125
510.0719014670021
508.920441424764
507.76009338669365
506.59206341430297
505.41756108202065
504.2378126642353
503.05404802854605
501.86750489870974
500.6794310994618
499.4910759891126
498.3036818288889
497.11849259997445
495.9367452692759
494.7596742412336
493.58850493566433
492.4244408250283
491.26867879614986
490.1223916322215
488.98674992183936
487.8628894201622
486.7519331640482
485.6549718807483
484.57307509486003
483.50728704156995
482.458622705515
481.42806394033363
480.4165689001639
479.425048742381
478.4543880837851
477.5054305492367
476.57898406441575
475.6758176022283
474.7966602261557
473.9422046217972
473.1130844889746
472.30989993714445
471.53321679510924
470.78355092480894
470.0613722488571
469.36710218767536
468.7011154946438
468.0637465873797
467.4552851083329
466.8759715039747
466.326003609137
465.80553906696355
465.31468478063044
464.8535038761334
464.422020482021
464.02021158122096
463.6480165121229
463.3053289100998
462.9920018642501
462.7078642955407
462.4526916181829
462.2262222258204
462.0281563997649
461.8581574257061
461.71586590314485
461.6008925348868
461.51281326257543
461.45117306156163
461.41548307621974
461.4052373462602
461.4198857193533
461.4588745761299
461.5216154347298
461.6075061400681
461.7159302939581
461.8462523758185
461.99782381623453
462.1699736648851
462.36202328008244
462.57328361499594
462.8030524515535
463.0506247064554
463.31529397708397
463.5963388595831
463.8930419210317
464.204680160461
464.53053300025095
464.8698814997168
465.2220074902106
465.5861925293256
465.9617276587959
466.34791233075003
466.74406671560786
467.1495068200951
467.5635522278198
467.9855446816758
468.41484493838357
468.8508142602909
469.2928307165137
469.7402856949094
470.19259130563216
470.64918351043804
471.10950993932005
471.57304182827835
472.03926617374873
472.507677498007
472.97780005402063
473.4491860192467
473.9214095179849
474.39406726255453
474.8667747255666
475.33917097245046
475.81091684056315
476.28169735543054
476.75122182000393
477.219223862607
477.6854548780047
478.14969706578216
478.61175235648597
479.0714487446119
479.52862902013044
479.9831611288843
480.4349485773791
480.8839104468248
481.3299964539107
481.7731602834821
482.2134005877932
482.6507278349206
483.0851750045652
483.5167906738358
483.9456406508424
484.371807217845
484.7953882722663
485.21649626606984
485.63526584341207
486.0518483966547
486.46640448010356
486.8791048728454
487.2901358661874
487.6996892338989
488.10796080398364
488.51517095906684
488.921537203249
489.32727497794195
489.7326069889479
490.13775285266894
490.5429362083926
490.9483787184141
491.35430502608267
491.7609324703317
492.16847181655834
492.5771279209185
492.98708944349937
493.3985448103107
493.81166988207855
494.226617868501
494.64353322531247
495.06253931887125
495.4837347729585
495.907202830762
496.3329921174107
496.761143344901
497.19167031982647
497.62456527179137
498.05979121495983
498.4972873559116
498.93696149732585
499.37869584672376
499.82233764542406
500.2677140075038
500.71459867655074
501.1627553688264
501.611900229332
502.0617257185096
502.51188966653143
502.962021959573
503.41171609348413
503.86053399213296
504.30799997713757
504.753612284723
505.1968393626182
505.6371295890646
506.0738994080884
506.50653026444553
506.93439189091845
507.3568198448866
507.7731368972291
508.18264835682584
508.58464429375914
508.9783976189971
509.36317104611294
509.738206577226
510.10274116644683
510.455991618199
510.79717434767656
511.1255164815023
511.4402431191442
511.74057773764997
512.0257534880323
512.295017964374
512.5476359056302
512.7828833012719
513.0000523286735
513.1984561673504
513.3774426249032
513.5363772764913
513.6746660177729
513.7917403429127
513.8870598836533
513.9601212067591
514.0104576882198
514.0376436263521
514.0413003925937
514.0210981430901
513.9767509407955
513.9080160182627
513.8147014475409
513.6966737036767
513.5538455211755
513.3861920214135
513.1937339441631
512.9765580424967
512.7347979640972
512.4686279306729
512.1782799567234
511.8640366238352
511.52623909238673
511.16526192083205
510.78154206123503
510.37556407260615
509.9478651029583
509.49902886613546
509.0296948768265
508.5405503842699
508.0323268963697
507.5057988742793
506.9617780031688
506.4011272748486
505.82475134485907
505.23359809631694
504.62865179644547
504.01093970575175
503.38154312331216
502.74160041918697
502.09229378415205
501.43482128020025
500.770405903428
500.1002864116956
499.425731378054
498.7480218018865
498.0684701210254
497.3884189453665
496.70923939854856
496.0323401930017
495.3591371456616
494.6910614748206
494.02956960078404
493.3761437175251
492.7322900465776
492.0995481938619
491.4794788341738
490.8736758120569
490.28374795696425
489.71132088276863
489.15803246885775
488.6255328698738
488.1154603264668
487.62946032128553
487.16917162170296
486.73624277973204
486.33230691445965
485.95900908715083
485.617970199576
485.3107966563735
485.03907229269925
484.80435654046744
484.6081713405546
484.45200083359396
484.3372862964592
484.2654317628988
484.2377876370924
484.2556428639976
484.3202167421387
484.4326591691116
484.5940421068388
484.8053508143267
485.06748369555095
485.38123246755947
485.74727516911344
486.16617768282373
486.63838651473566
487.16422173129956
487.7438745781744
488.3773967036112
489.0646964028603
489.80553313469176
490.5995013122414
491.44603628616113
492.3444099478951
493.29373136391604
494.29293055641614
495.3407625183075
496.4358053468439
497.576461334099
498.76095443564463
499.9873218617169
501.25343268582577
502.55697889559696
503.89548266378193
505.2662958884996
506.66660713288456
508.09345159671693
509.5437199462894
511.0141572508674
512.5013693760577
514.0018411512048
515.5119445672814
517.0279478775404
518.5460166772997
520.0622418909279
521.5726310834034
523.0731505726111
524.5597221762243
526.0282403259223
527.4746117296065
528.8947498455575
530.2845940699061
531.6401227435482
532.957381790363
534.2324806341502
535.4616229951117
536.641124401112
537.7674317443218
538.8371184423912
539.8469160770561
540.7937299543809
541.6746452001935
542.4869450197963
543.2281101881227
543.8958432709968
544.4880628175516
545.002941895766
545.43889707135
545.794551383117
546.0687599076817
546.2606303112458
546.3695703306064
546.3952912021588
546.337804925424
546.197413046614
545.9747108795793
545.670572033898
545.2861369201048
544.8228071446607
544.2822367867301
543.666355920171
542.9773613682476
542.217687869334
541.3899874234035
540.4971272504355
539.542158124848
538.5283096760946
537.4589642781332
536.33765105131
535.1680295425156
533.9538895287794
532.6991323210724
531.4077648268127
530.0838692559572
528.7315965807653
527.3551290724936
525.9586797544761
524.5464588644141
523.1226577450456
521.691448064239
520.2569528850934
518.8232335150153
517.3942746945706
515.9739727572152
514.5661246219239
513.1744023959059
511.80233982811467
510.4533305931946
509.1306123228381
507.83725832967093
506.5761727575721
505.35007603598575
504.1614958546896
503.01277026794105
501.90604551507823
500.84326640599886
499.8261700943535
498.85628963212116
497.93495196422833
497.06327913343097
496.2421992737116
495.4724433859626
494.7545497341904
494.088860404886
493.4755381784752
492.9145620930945
492.40574336594216
491.9487287477272
491.5430131803412
491.18794638121057
490.8827376679833
490.6264742761674
490.4181289888997
490.25655711298873
490.1405197319653
490.0686960764005
490.039693897565
490.0520533059214
490.104250476541
490.19471632743364
490.3218483822369
490.4840179974652
490.67957727505717
490.90686555867165
491.16423520573517
491.4500442787558
491.76267747617663
492.10052943311405
492.46201783963784
492.8456089456662
493.249800780175
493.67313412547736
494.1141984602376
494.57164165989775
495.04416380584865
495.530523594887
496.02954198794566
496.54009863158126
497.061127629318
497.5916325213777
498.13067683800944
498.6773829246101
499.23093703341357
499.7905876932574
500.3556528670278
500.9254988038374
501.49956269636
502.0773206016459
502.6583011853736
503.24210657315126
503.8283990642882
504.41688392385345
505.00729837799616
505.59938878475407
506.19293063903507
506.7877084705556
507.3835323016539
507.98022515835896
508.5776257633125
509.1755866362006
509.77396766094176
510.3726226839237
510.97138982427464
511.5701120287327
512.1686337429484
512.7667848579415
513.3643956593806
513.9612882506717
514.5572752511819
515.1521569432097
515.7457321597652
516.3377726188846
516.9280282109472
517.5162237379432
518.1020690641653
518.6852433774176
519.2654082424688
519.842196824795
520.4152186557174
520.9840778905614
521.5483438410703
522.1075697965867
522.6612856926807
523.2090062454686
523.7502326716483
524.2844348173307
524.811072521783
525.3295951543466
525.8394391162617
526.3400253483717
526.8307633115841
527.3110547786802
527.7802910228219
528.2378609554404
528.6831526605354
529.1155483248508
529.5344256898175
529.9391660233688
530.3291489193545
530.7037623160708
531.0623950615743
531.4044403161009
531.7292943729552
532.036364169519
532.3250814940218
532.5948780870388
532.8452001020426
533.0755071263983
533.2852711757965
533.4739821740045
533.6411424115907
533.7862807106362
533.908942584497
534.0086846837775
534.085099830302
534.137798446873
534.1664140577243
534.170597653833
534.1500249884364
534.1044104349535
534.033490459158
533.937031203961
533.8148184181509
533.6666756752908
533.4924563837822
533.2920335553251
533.0653110998362
532.8122239750734
532.5327471772689
532.2269028796098
531.8947327507191
531.5363028823791
531.1517214879094
530.7411281486096
530.3046961768102
529.8426304919901
529.3551764741915
528.8426069258318
528.3052351267627
527.7434082356727
527.1575051544828
526.5479386081336
525.9151571145331
525.2596381925523
524.5818923502567
523.8824558742754
523.1619054850187
522.4208444844417
521.659902014751
520.8797431396407
520.0810613041219
519.2645708234883
518.4310233678223
517.5811871802309
516.7158678924658
515.8358789960034
514.9420756405245
514.0353184475084
513.1164919015094
512.1865029812085
511.2462754962091
510.2967510227587
509.33888764145047
508.3736587692551
507.40204314107297
506.42502320098436
505.4435943435308
504.45875442698525
503.4715084691703
502.4828712250655
501.49385904804103
500.5054794442236
499.5187467184199
498.5346671288627
497.5542481543931
496.5784792214804
495.6083495831493
494.6448334409577
493.6888926375269
492.741483748994
491.8035345271474
490.87595975861353
489.9596552350669
489.055500520381
488.16434655225265
487.28701622768716
486.42431817551795
485.577030111373
484.7459019026755
483.93165209296393
483.1349754919978
482.3565334926275
481.59695098788467
480.85682421925935
480.1367178299337
479.4371532646436
478.7586124375924
478.10154573129716
477.46637134892626
476.85347278339515
476.26318769192255
475.6958230347453
475.15164406833594
474.6308831398254
474.1337354645257
473.66034392451974
473.21082320768465
472.78525128234384
472.3836719631527
472.0060954883308
471.6524926806503
471.3228044696724
471.01693176650195
470.73474502054637
470.4760852103156
470.240756115032
470.02853401802116
469.8391665927187
469.6723762819356
469.5278572267021
469.40526762975907
469.30424822764394
469.2244146021052
469.16537155634023
469.1266969904883
469.1079498689464
469.1086826820824
469.12843224270017
469.16671496996474
469.2230351120606
469.2968751738429
469.3877169256566
469.4950452017559
469.61832777289146
469.757027928436
469.9106059573885
470.0785184260297
470.26022395133555
470.4551868139038
470.6628630922326
470.8827150141119
471.1142121502477
471.35683043591627
471.6100489190772
471.87336616088896
472.14628392532404
472.42831713043194
472.7189883406188
473.01782862806897
473.324406879335
473.6382893873617
473.9590584174552
474.28631744772576
474.61968104526034
474.9587777215008
475.30325905394113
475.6528044801204
476.0070977439934
476.3658490838899
476.7287845455461
477.09565259149605
477.46622408648165
477.84028799326546
478.2176513301913
478.5981499531966
478.98162883907
479.36795288350504
479.7570042587979
480.14868622042206
480.54292242207845
480.93964959989387
481.33882555221044
481.7404240208748
482.14443164103994
482.55085576097065
482.95971041256627
483.371026280905
483.78484305525745
484.20120827975416
484.6201871314097
485.041834895565
485.46621955901486
485.8934158580197
486.3235015132321
486.75655336736844
487.192654516772
487.6318906107435
488.07434183766105
488.52008149314554
488.96917447366053
489.4216756530392
489.87762809894303
490.33706342216584
490.8000043639255
491.26645426258744
491.7363995613421
492.2098145718981
492.68666218514056
493.1668816854783
493.6503831206002
494.1370525121782
494.62675717505005
495.11933807532506
495.6146045511817
496.1123377708286
496.61228314669336
497.11416915637744
497.6176870391726
498.1225056146807
498.6282534552742
499.13452963077646
499.640907975524
500.1469241426764
500.65208468483854
501.15585868537494
501.6576913268809
502.1570001659026
502.6531717183838
503.1455669599589
503.63351823930356
504.11633515825037
504.59330847978896
505.0637055005777
505.5267699640442
505.98172631232154
506.4277795710885
506.86413288926383
507.2899636517746
507.7044455232373
508.1067487362858
508.4960362162984
508.8714706484404
509.23221497117544
509.5774371213348
509.9063105610491
510.2180258856633
510.5117827168774
510.7868057722307
511.0423325353751
511.2776271082273
511.49197885680604
511.684707665241
511.855169070357
512.0027528966821
512.126884129759
512.2270169157514
512.3026478795567
512.3533204537648
512.3786268667517
512.3782101130494
512.3517391909797
512.2989516724352
512.2196437510937
512.1136669277538
511.9809334592919
511.82141753482864
511.63513874978673
511.4221712855213
511.182637518429
510.9167142999268
510.62464305531034
510.306717792469
509.96327946050405
509.5947340600424
509.20153349202366
508.7841736460075
508.3432207202547
507.87929417437033
507.3930631115208
506.88524491770085
506.3565950892906
505.807923277722
505.24008545070194
504.65398521213785
504.050562332292
503.43079447862044
502.7957165583315
502.14642315023207
501.4840500365794
500.80977187301164
500.1247737295398
499.4302747723154
498.72750980731354
498.0177428182441
497.3022557438056
496.58235851113966
495.8593918924409
495.13471686774807
494.4097124118329
493.6857815867526
492.96434413413056
492.2468374627133
491.53472812963
490.8295080099651
490.13269071502475
489.4458191942864
488.77045846076726
488.1081887522929
487.46059892980344
486.8292865307944
486.2158535463469
485.6219064873649
485.04904310359683
484.49886058127987
483.9729766866446
483.4729966003066
483.00052805650034
482.5571590997029
482.1444772657874
481.76403173017405
481.41736075094946
481.105966269064
480.8313164324105
480.5948454784854
480.3979490046066
480.2419899635953
480.12827180183257
480.0580353562019
480.03246189028147
480.0526605246219
480.1196707779772
480.23444972632177
480.3978634118553
480.61068244538575
480.8735863694808
481.1871419189691
481.5518033094346
481.96789487109874
482.43562654487437
482.9550703333119
483.52616761545494
484.14871943527976
484.822379550152
485.54665008657616
486.3208731359937
487.1442382238314
488.01577068601426
488.9343293857332
489.898604957703
490.9071186149344
491.9582215491079
493.0501037533162
494.1807884234217
495.348131451929
496.54982389384094
497.7834040813817
499.0462619953924
500.3356469423222
501.64866531751755
502.98228805072324
504.33335674539217
505.6986017366048
507.0746390446021
508.4579787328016
509.84503818694856
511.23215586343383
512.6156099487112
513.9916268747255
515.3563970529233
516.7061154820749
518.0369776141374
519.3451804034211
520.6269389815557
521.8785123394862
523.096202701582
524.2764007271585
525.4155806473738
526.5103104512134
527.5572723154447
528.5532890629291
529.4953304492313
530.3805255347661
531.2061652810846
531.9697167980131
532.6688426652047
533.3014146186321
533.8655216804428
534.3594503351197
534.7816709906125
535.1308741054961
535.406006269128
535.6062924720364
535.7312301700535
535.7806011346592
535.7544529279647
535.6531067855366
535.477139220892
535.2273783716452
534.9048996892604
534.5110430355853
534.0473922664139
533.5157918153294
532.9183238955003
532.2572721926269
531.5351258343065
530.7545557008146
529.9183978286743
529.0296435533442
528.0914365794465
527.1070598563479
526.0799234756367
525.0135669420465
523.9116346675747
522.7778732392691
521.6160936422582
520.4301350019286
519.2238822632431
518.0012267682638
516.7660617132603
515.5222511068966
514.2736448010153
513.0240437389572
511.77720314541256
510.5367951467848
509.3064115772583
508.0895348157954
506.8895158787174
505.70958590789587
504.5528381284088
503.4222196793458
502.32051578211644
501.25034803881823
500.2141694141961
499.2142496373853
498.25267484131246
497.33133493143396
496.4519359665695
495.6160028276951
494.82486141498146
494.07964371258663
493.3812914807682
492.73055208193205
492.1279838104857
491.57397078751495
491.0687168967981
490.6122471118464
490.2044268097933
489.84495760085315
489.53339357712326
489.2691427715713
489.05148445276285
488.8795672418034
488.7524184258803
488.668955558792
488.6279915863394
488.6282553635458
488.66839910721
488.74700375926784
488.8625842871456
489.013603462502
489.1984810298118
489.4156092443178
489.66336169440837
489.9400997802423
490.24417461147885
490.5739482464166
490.9277904724788
491.3040860463418
491.70125017121455
492.1177282630527
492.5519839563689
493.00251664518385
493.4678716897618
493.94665018222395
494.43751398027376
494.939186150578
495.45042907095177
495.9700721002246
496.4970015585321
497.0301721579305
497.5685894843328
498.1113203921271
498.6575009098591
499.20633324039795
499.75708502737467
500.30907980046726
500.86170038472716
501.41439220458693
501.9666581907884
502.5180850905321
503.068326720571
503.61706542662915
504.16401865607656
504.7089380505003
505.25159683683665
505.7918004707999
506.3293770102237
506.86418682720193
507.3961057843794
507.92504096407396
508.45090446851896
508.9736218648975
509.49310505252726
510.0092725731418
510.5220612460298
511.0313989640922
511.5372303639905
512.0395016599882
512.5381638398502
513.0331567596568
513.5244221530354
514.0119019275777
514.4955107929849
514.9751461604379
515.4506826413257
515.9219798713447
516.3888864430503
516.8512309391983
517.3088263644025
517.761477129127
518.2089755055947
518.6510896438231
519.0875690061246
519.518134302864
519.9425023499197
520.3603628552629
520.7713967878087
521.1752752664114
521.5716497615707
521.960164042924
522.340446401887
522.7121281946883
523.0748144169693
523.4280977557548
523.7715745975994
524.1048328569949
524.4274618462758
524.7390424683167
525.0391394125112
525.3273304083973
525.6031831780844
525.8662652159758
526.1161403007873
526.352378093009
526.5745438977536
526.7822102586896
526.9749644222361
527.1523875035075
527.3140663655231
527.4595988274291
527.588590160876
527.7006518121766
527.7954066737695
527.8724922508578
527.9315573469098
527.9722632575927
527.994284899467
527.997307348669
527.9810332524626
527.9451837570163
527.8894973258075
527.8137351501459
527.717675648073
527.6011132671217
527.4638571150598
527.3057513961058
527.1266543507178
526.9264521740876
526.7050554018934
526.4623974528491
526.1984352763479
525.9131609533197
525.6065959046003
525.2787852095798
524.9297983503029
524.559727378936
524.1686891674317
523.7568386456395
523.3243645801107
522.8714942430613
522.3984741993229
521.905590361316
521.3931573976357
520.861516826622
520.3110414568816
519.7421331452181
519.1552270473279
518.5507914201387
517.9293141227602
517.2913262343487
516.6373863087174
515.9680754359933
515.2840141981028
514.5858468698278
513.8742473146715
513.1499160933708
512.4135731117285
511.66596753864746
510.9078635727486
510.1400633191023
509.3633706092047
508.57862017809435
507.7866694674223
506.9884017354695
506.18470741010253
505.3764803871548
504.5646425543752
503.75011360196976
502.93383760641393
502.1167594321124
501.29984070949257
500.484034195385
499.6702883754789
498.8595562578334
498.0527823564024
497.25091351902404
496.45489665874385
495.66567463028844
494.8841691208198
494.1113006373745
493.3479646468238
492.5950404525442
491.8533956697756
491.1238733777629
490.4073034772815
489.70448122767937
489.0161829844442
488.3431579330786
487.68612436888884
487.04577923286195
486.4227815297661
485.8177577209112
485.231285043341
484.6639251614328
484.11619915870233
483.58857791697636
483.0815029055752
482.5953698563995
482.13053663780755
481.6873204221777
481.26599046396444
480.86678279244774
480.48988903190747
480.13547171061316
479.80364489805453
479.4944790965009
479.2079995096295
478.9441842019696
478.7029754234345
478.48428022764506
478.2879646571056
478.11385243133265
477.9617324600594
477.8313576729801
477.7224417735788
477.6346669393586
477.5676895333337
477.5211351181668
477.49459579554815
477.4876340923084
477.4997889609947
477.53057314638045
477.57947712606534
477.6459708654773
477.7295122795875
477.8295428516116
477.9454832323149
478.0767462181054
478.22273229319876
478.38283169655773
478.5564330071921
478.74292088683114
478.9416760005788
479.1520747715995
479.3735044773527
479.6053588235104
479.8470314438536
480.09792676567
480.3574619824856
480.62504918982586
480.9001076521339
481.1820845129086
481.4704362028351
481.7646448262641
482.06421715693716
482.36867508737475
482.67756791027267
482.9904626717011
483.30694531403145
483.6266303703755
483.9491508161878
484.27416730906145
484.60136424409984
484.9304544517377
485.2611794088053
485.59330282349543
485.92661937292644
486.26094816136765
486.5961325810919
486.9320531907906
487.26859896560904
487.60571288081286
487.9433413753765
488.2814490598229
488.6200197094827
488.95906587051985
489.29862763760684
489.63876045680354
489.9795447747434
490.3210649284541
490.6634206289649
491.00672509498014
491.3511097286642
491.6967158445483
492.04369732461817
492.3922256527383
492.74246879504494
493.09458734600014
493.44874342244805
493.80511395794326
494.16386922037077
494.5251777223586
494.8892024776819
495.2560927411409
495.62599321980497
495.9990248185756
496.3753024173193
496.7549219621849
497.13795188383085
497.5244550032574
497.9144623139964
498.3079906347693
498.7050363598389
499.105576190167
499.50954829822115
499.9168728066929
500.3274486338815
500.7411418789575
501.15778529720745
501.577171320623
501.99907125208216
502.4232196277537
502.8493162136332
503.2770302754641
503.7059895239946
504.13579098283714
504.56600116061924
504.9961586073294
505.42577458066967
505.8543252606064
506.2812593323425
506.7059903082004
507.12791311982176
507.5463924700246
507.960771026558
508.37037125004866
508.774488665873
509.1724003953362
509.56336273559765
509.9466220471462
510.3214104987327
510.68694839184434
511.04244872931423
511.38712182964406
511.72017346169724
512.0408073769219
512.3482322745735
512.6416623462235
512.9203265534264
513.1834583807664
513.4303118971083
513.6601514542064
513.8722654305384
514.0659580594423
514.2405542845091
514.3954064412433
514.5298963348179
514.6434484089347
514.735521171712
514.8056051099791
514.8532424948856
514.8780210844291
514.8795567333382
514.8575149773666
514.8115993834983
514.7415526022437
514.6471767735218
514.5283144000404
514.3848706305032
514.2168027542191
514.0241250352233
513.8069047658081
513.5652450632605
513.2993021971746
513.0092761377239
512.6954116191561
512.3580053919537
511.997400070809
511.61399108052206
511.2082204957188
510.78057513217107
510.33159356918463
509.8618403428173
509.3719369755827
508.8625452859628
508.33436843667937
507.7881499048525
507.22467263693505
506.6447519513346
506.0492373845087
505.43900819780123
504.8149975862853
504.1781867010119
503.5295995987449
502.8702793673447
502.2012861467037
501.52369227884026
500.83858333047334
500.1470803366977
499.4503221768579
498.7494648821305
498.04568902633474
497.3401980857881
496.63421655250244
495.9289921038096
495.22578220687393
494.5258798190906
493.83059520167734
493.1412662000272
492.4592688454559
491.78599113240944
491.1228529627968
490.4712892176278
489.83274608201964
489.2086904806573
488.60060438892896
488.0099660222753
487.4382568058611
486.8869524742372
486.35753999123494
485.85151908982715
485.3703840827532
484.915629584938
484.48874741498
484.0912256064128
483.7245299357697
483.3901092949433
483.0893919014106
482.82378121312865
482.5946384898364
482.4032956824993
482.2510351302176
482.1390930815717
482.06864754396014
482.04081675255804
482.0566486557348
482.1171210488791
482.2231329559243
482.37549376734773
482.5749231597075
482.8220444895637
483.1173805598388
483.4613343537271
483.85418735660966
484.29609333993966
484.78707879471506
485.3270349438265
485.91572111757677
486.55274472772805
487.23755468159624
487.96945916875075
488.747604757909
489.5709758664992
490.4383947502583
491.3485308971831
492.29989623724344
493.2908303272194
494.3195101506565
495.3839495512434
496.48200378330307
497.61137496869384
498.76961618487906
499.9541298164711
501.1621910048101
502.3909371250509
503.63737783927166
504.8984147321856
506.1708376516028
507.4513372697224
508.7365094806406
510.0228777151604
511.3068896314389
512.5849426915735
513.8534126733251
515.1086613011809
516.3470425899131
517.564927442981
518.7587046852818
519.9247977084495
521.0596767784971
522.1598799186331
523.2220181797625
524.2428023652262
525.219060643523
526.1477491968745
527.0259711268935
527.8509795523431
528.6201841424613
529.331158447409
529.9816697965181
530.5696794383215
531.0933678007187
531.5511057407059
531.9414366570528
532.2631147429928
532.5151477322953
532.6968106413563
532.8076465508698
532.8474745203869
532.816362747175
532.7146387771156
532.542877622383
532.3018915542982
531.9927497842522
531.6167584029657
531.1754552807695
530.6706285562436
530.1042779021774
529.4786145479616
528.7960340964518
528.059103189336
527.2705576690895
526.4332751291224
525.5502764344905
524.6247214852522
523.6598820440023
522.6591355073184
521.6259668601589
520.5639464583609
519.4767167226566
518.3679657320374
517.2414049832958
516.1007556991459
514.9497262314703
513.7920088939674
512.6312438933741
511.4710272543377
510.314894974797
509.1663054942297
508.0286183834646
506.9050978862309
505.79889325905236
504.71302885350326
503.6503931716568
502.61372676230604
501.6056177216739
500.6284983406004
499.68462107056615
498.7760792941055
497.9047834371587
497.07245143755193
496.2806173368912
495.530623119824
494.82364230597557
494.1606787269213
493.5425405584527
492.96986332338594
492.44308765475654
491.9624790503616
491.52814591766446
491.14003463018844
490.7979273559756
490.5014599126552
490.2501315014459
490.0433018896086
489.8801996545189
489.7599436673681
489.6815454329101
489.6439183806913
489.6458828106029
489.68617960955237
489.7634796006701
489.87639060209693
490.02347536175563
490.20324758970247
490.4141875020152
490.65476155715766
490.92341137734286
491.21856411777634
491.53866204986815
491.88214821390613
492.24747568030506
492.6331315349622
493.0376299593117
493.4595113730102
493.8973450799857
494.3497464365971
494.8153736672988
495.29292410486556
495.78115381442075
496.2788769882175
496.7849650021659
497.2983560816269
497.81804068305445
498.3430682589228
498.8725425131299
499.40561616495194
499.94150280659846
500.4794798850187
501.01889627797493
501.55914508366396
502.09967353325544
502.639979516094
503.17961044304144
503.7181979302997
504.2554254482345
504.7910179215379
505.3247154624736
505.8562790377206
506.3854929180461
506.9121577880073
507.4360986178092
507.95716992113825
508.4752458871251
508.9902014668316
509.50192355389066
510.01031327077544
510.5152616975496
511.01666689970483
511.5144160027144
512.0084133880184
512.4985635367575
512.984767716191
513.4669321973797
513.944964014378
514.4187475317387
514.8881671902267
515.3530977961221
515.8133885890646
516.2688778161094
516.7193920947883
517.1647352189879
517.6046968216435
518.0390480117973
518.4675635053925
518.8899937123463
519.3060875136741
519.7155891451329
520.1182352896099
520.5137436263062
520.9018211326003
521.2821743894816
521.6544957859445
522.0184694316783
522.3737791278329
522.7201010438899
523.0571116350138
523.3844712709911
523.7018536902685
524.0089161610141
524.3053197931395
524.5907521635843
524.8648912427473
525.1274284743782
525.378041268841
525.6163999397521
525.842200627903
526.0551283893745
526.254896986008
526.441223213637
526.6138252246291
526.7724294798154
526.9167776772651
527.046616204983
527.1617030748001
527.2618149332044
527.3467367958062
527.4162560392591
527.4701759178205
527.5083094221178
527.5304840627126
527.5365400772962
527.5263308145286
527.4997208697965
527.456586249941
527.396818902769
527.320335758639
527.2270506638887
527.1168987117301
526.9898343061866
526.8458247885852
526.6848572774121
526.5069370409144
526.3120725818685
526.100293232498
525.8716448578404
525.626198820868
525.3640347768438
525.0852474198044
524.7899642020963
524.4783195275852
524.1504747253836
523.8066008127104
523.4468786444999
523.0715206745946
522.6807556493538
522.2748243649813
521.8539928522052
521.4185458419674
520.9687889525643
520.5050310540706
520.0276102563674
519.5368893273879
519.0332359042397
518.5170507957499
517.9887459186162
517.4487484418912
516.8974915571563
516.3354400551012
515.7630789515487
515.180902256003
514.5894346010771
513.9892026926395
513.3807392277171
512.7646017783078
512.1413612408595
511.5116079362248
510.87593578034364
510.2349526122563
509.5892640735422
508.9394989165551
508.2862794259574
507.63024411095256
506.97203331011923
506.3122988704481
505.6516896184986
504.990874233491
504.3305095833734
503.6712548236942
503.0137811389863
502.3587378968472
501.70676651616395
501.05851844401917
500.4146385058195
499.7757748440754
499.14255603233903
498.5156031479964
497.8955309143394
497.28293349163414
496.6783853548868
496.082459601264
495.4957160551067
494.91868503402446
494.35187930355784
493.79579946813607
493.2509175370221
492.71769117881877
492.1965429821243
491.68789224287974
491.1921322236677
490.70962966358036
490.24073102884137
489.7857378175065
489.3449386365216
488.9185801544576
488.5069015420631
488.110112414772
487.7283818058722
487.3618642289792
487.01068212653894
486.6749281031666
486.3546760542911
486.04997289645183
485.7608304415882
485.48724123567297
485.2291682394038
484.9865454440509
484.7592850438539
484.5472782336741
484.35039176728264
484.168477727028
484.001363782993
483.8488588466152
483.7107565137841
483.5868320672557
483.4768394995872
483.380519342753
483.29758656775533
483.22776443145375
483.1707661535584
483.12628776564156
483.0940116293281
483.0736249919769
483.06480379373386
483.0672316801665
483.0805752512675
483.1045137967751
483.1387229653513
483.1828827690782
483.2366747107793
483.299780808504
483.3719022622366
483.45273221839494
483.5419831212018
483.6393857541522
483.74466861997894
483.85756986748606
483.97784914195057
484.10527976442467
484.2396518186369
484.3807554633426
484.5284056318949
484.68242711706137
484.84265245023727
485.00894589892533
485.1811771519603
485.35923638275057
485.54303176410286
485.73249151144563
485.9275526041902
486.12815577747836
486.33425996058133
486.54583667889483
486.76287773238636
486.9853834817662
487.2133617812966
487.4468267215001
487.68580598503587
487.9303263855474
488.18042130175166
488.4361445991201
488.69754763680623
488.96468923309607
489.2376127648892
489.51637121546963
489.80099739979744
490.0915198736096
490.3879565621442
490.6903215194935
490.99862304552653
491.312846403876
491.63298708123386
491.9590254495799
492.2909102698678
492.62857695344354
492.9719416648413
493.3208977777498
493.6753168810121
494.0350431051106
494.3999115549947
494.7697234280151
495.14424301529306
495.5232097315496
495.90634374575217
496.29334760387525
496.6838819696414
497.0775874406481
497.4740801948966
497.87295255064475
498.2737517934348
498.67598919052415
499.0791599014644
499.4827346984786
499.8861608383703
500.28885657242387
500.6902233608816
501.089625319943
501.48641884016604
501.87994545100145
502.2695206462111
502.6544422858936
503.0340012149054
503.40746574709004
503.7740967919217
504.13315656745004
504.4838890611393
504.82553761828797
505.15734713697674
505.47855543115116
505.7884063681558
506.0861585609987
506.371078908438
506.64244513292533
506.899550589379
507.1417067581777
507.3682480339051
507.5785301950065
507.7719397990888
507.9478883398779
508.10580403705717
508.2451383557351
508.3653942053274
508.46610395392594
508.54682467666805
508.60716579304494
508.6467729010559
508.66534894811224
508.66261845083613
508.6383501693662
508.59237288825256
508.5245586337889
508.434827769685
508.3231318115672
508.18947307954414
508.03389768669615
507.8564946778885
507.65740161146323
507.43679917585365
507.1949099062407
506.9320031390878
506.6483845736458
506.3444210112416
506.02051947413065
505.6771262521185
505.3147369918038
504.93387185169826
504.53510316022727
504.11903291634235
503.6862967340504
503.23757436764754
502.77356766325096
502.29502692020696
501.80275558285035
501.2975980201946
500.7804368803283
500.25218454204526
499.71376144799405
499.1661197418208
498.61020702921013
498.0470212058948
497.47759053622394
496.90295571720964
496.32418858775054
495.7423732356665
495.1586349147903
494.57412053106935
493.99001858189024
493.4075399499507
492.8279226185414
492.25244500408576
491.6823935620462
491.1190981925396
490.5638997483892
490.0181591420335
489.48327086023454
488.9606591116747
488.45176104048033
487.958031974296
487.48095278388485
487.02200441820855
486.5826659288118
486.1644359108702
485.7688233377245
485.39733606540955
485.051479774322
484.73273874709065
484.4426130619026
484.1825900697994
483.954131057809
483.75869040636854
483.5977020603465
483.4725683890128
483.38464648985376
483.33524260684635
483.32561703147076
483.3569800285735
483.4304790221544
483.5472011482713
483.7081406011846
483.91421152400267
484.16623891474364
484.46495395162594
484.8109782748749
485.2048214928788
485.6468831127688
486.1374305034277
486.67660570066056
487.2644193882023
487.9007320575347
488.5852794318876
489.3176373837992
490.0972201287253
490.92327201362195
491.794886011082
492.71099008416866
493.67033209168443
494.6714848012494
495.71286452710945
496.79270245561946
497.90907583847115
499.0598986780263
500.24293338237027
501.4557749241284
502.6958666388268
503.9605083906137
505.2468436871623
506.55187586899814
507.87248482708856
509.2054404576129
510.5474041881766
511.8949244770203
513.2444744926784
514.5924490999456
515.9351956554857
517.2690195521528
518.5901862030397
519.8949387668921
521.1795270916922
522.4402175876896
523.6733146005421
524.8751448403698
526.0421050959167
527.170648250035
528.2573278487508
529.2988182917836
530.2918977693733
531.233496281024
532.1206793495637
532.950676768629
533.7209016240183
534.4289397331593
535.0725926253272
535.6498712608285
536.1589552873672
536.5982240266222
536.9662847735717
537.2620083658041
537.4845405640727
537.6332873403572
537.7079506087216
537.7084874312881
537.6351103011002
537.4882978931219
537.268783307873
536.9775768040007
536.6159312571853
536.185348402809
535.6875731701756
535.124591751438
534.4986049580097
533.8120045228185
533.0673960742062
532.267552893339
531.4154337430157
530.5141602705634
529.5669999069822
528.5773363878858
527.5486696391187
526.4846125256252
525.3888562347403
524.2651944564572
523.1174757419747
521.9495866349203
520.7654390323773
519.568968742136
518.3640952642011
517.1547194237222
515.9446729780776
514.7377226215698
513.5375631765677
512.3477913852813
511.17189322545835
510.0132471835852
508.8751109061435
507.76061125131935
506.6727202159699
505.6142382923364
504.5878069994928
503.59588525655016
502.64076642350045
501.7245442131453
500.8491300488707
500.0162364781332
499.2273770958046
498.4838807680421
497.7868676202963
497.13725672222756
496.53578783345824
495.9829982489775
495.4792401316584
495.02466116539455
494.61924688679255
494.26280490400393
493.9549894537799
493.6952937915452
493.4830497383686
493.3174518296461
493.1975775149242
493.12236401703206
493.0906468086892
493.1011544269397
493.1525209234586
493.2432917696926
493.3719383191853
493.5368700721029
493.736440253245
493.9689731346822
494.2327652580886
494.52607551928713
494.8471605997511
495.1942575861044
495.56561208715044
495.9594771162681
496.374126750543
496.807860506997
497.25901147473013
497.72596070476186
498.2071339130495
498.7009865942068
499.2060318311633
499.72082342077
500.2439976348523
500.77424686451593
501.3103477241054
501.8511276680989
502.3954548225211
502.94229695012706
503.49066648671993
504.0396571944789
504.58843244529305
505.1362200240232
505.6823243906137
506.2261039964012
506.7669767159009
507.3044541534838
507.83811136427175
508.36758515554385
508.89254555490686
509.41270371593413
509.9278169900166
510.4376671026542
510.94206821753806
511.44086141793156
511.93392407978536
512.4211636294436
512.9024957520037
513.3778659824503
513.847234026456
514.3105579516044
514.7678064322898
515.2189623332068
515.6640182087978
516.1029722030476
516.5358309934007
516.9625935554756
517.3832615266597
517.7978282133719
518.206290032567
518.608643328188
519.0048685388596
519.3949365136223
519.7787862452767
520.1563483455492
520.5275380664533
520.8922615109462
521.2503932971684
521.6017957700101
521.9463273808977
522.283845092297
522.6141965196063
522.937216673495
523.2527313383788
523.560571658228
523.8605453299849
524.1524491388127
524.4360701289769
524.7111933600789
524.9776011816879
525.2350680066679
525.4833702263528
525.72226979746
525.951539324732
526.170952111518
526.380280986734
526.5793060087137
526.767795742818
526.9455210873048
527.11227559083
527.26783667347
527.4119945000701
527.5445523855451
527.6653297091207
527.7741407860111
527.870808572652
527.9551606465029
528.0270226753825
528.0862403018299
528.1326836920549
528.1662150073922
528.1867193426235
528.1940897854871
528.1882211469762
528.1690232041066
528.1364120335504
528.0903165811233
528.0306873896274
527.9574859529486
527.8706740903527
527.7702204983694
527.6561159789414
527.5283513990834
527.3869460975246
527.2319284831987
527.0633363064936
526.8812211925255
526.6856377971899
526.4766502072243
526.2543249537757
526.0187392290675
525.770004552726
525.5082361230004
525.2335640226223
524.9461268117542
524.6460715776585
524.3335407012612
524.008702127218
523.6717517324842
523.3228633319433
522.9622521083138
522.5901244729367
522.2067022211144
521.8122114883954
521.4068825028771
520.9909666957033
520.5647189556247
520.1284016618482
519.6822997011959
519.2266941564554
518.7618730832326
518.2881398433618
517.8058016370502
517.3151821859988
516.8166061531771
516.3104209339676
515.796979141962
515.2766276861242
514.7497339216478
514.2166635462876
513.677791243743
513.1335092659938
512.5842099374553
512.0302855416626
511.4721434035688
510.9101903211279
510.34483880627715
509.77650231766097
509.2056012649395
508.63255805244796
508.0578008516131
507.4817606864946
506.9048730179108
506.32757944940533
505.7503252306272
505.1735634009157
504.5977524984567
504.0233324746203
503.4507528111129
502.8804633891895
502.31289869464
501.748501007812
501.1877086363331
500.6309618488602
500.0786978697962
499.5313392115915
498.98932362600766
498.4530818936714
497.9230397850965
497.3996134182186
496.88321561840496
496.37425344530925
495.8731168918152
495.3801981411907
494.8958823601224
494.4205297192677
493.95450309191364
493.49814103512625
493.0517920600847
492.61580104332637
492.1904871101899
491.7761717660875
491.3731612579763
490.9817441798431
490.6021976091632
490.23478889513314
489.87978204828664
489.5374180511975
489.2079345803455
488.89155945378207
488.58849739621303
488.2989452765272
488.02308330782665
487.76107925397247
487.5130971385934
487.279286439384
487.0597889612211
486.85472390764215
486.6641900385709
486.48827626060086
486.3270680146217
486.1806474184597
486.0490761248048
485.9324065927401
485.8306713523345
485.7438962071577
485.67209157629986
485.6152525062087
485.57336516210904
485.5464067188269
485.5343497373008
485.5371690341456
485.5548026597446
485.5871847827386
485.6342369062392
485.6958634091141
485.77196438863115
485.86243561736865
485.9671510374745
486.08597557640684
486.2187782463943
486.3653971938201
486.5256702211509
486.6994215850336
486.8864641443079
487.0866015931964
487.2996086048079
487.5252566120295
487.7633022838035
488.0134890660781
488.2755532814724
488.54923061088783
488.83423859547935
489.13028105941197
489.4370371140447
489.75417850510166
490.08135623244937
490.4182022921595
490.7643512672465
491.1194161826611
491.4829994323055
491.85468627396597
492.2340316882063
492.62058416521575
493.0138833219167
493.4134511928363
493.8187945524371
494.2294051460168
494.64476658673476
495.06433948210633
495.487577204605
495.91391104953124
496.3427549578884
496.7735166787968
497.20558498909486
497.6383454795878
498.07115917103454
498.503378198354
498.9343573882688
499.3634333868629
499.78994090407946
500.21321610102905
500.6325738935073
501.047326649018
501.45677654991715
501.86021657683904
502.2569489087998
502.64627269703715
503.027485159976
503.3998805773762
503.7627645313773
504.115455241353
504.45726765913247
504.78753273074193
505.1055837978816
505.4107690589786
505.7024643256354
505.98004231246364
506.24291630680665
506.4905007366521
506.7222305989678
506.93756992918367
507.1359984671368
507.31702007559534
507.48016884044694
507.62500190875164
507.7511052654661
507.85809046350647
507.94560880121526
508.01335016963935
508.0610352130233
508.08841839566685
508.0952909769091
508.08148602392447
508.0468811770591
507.99137519183273
507.91490786582284
507.8174598925781
507.6990616226703
507.5597669680917
507.3996684274481
507.2188896290239
507.0175927768866
506.79599258676075
506.5543443317209
506.2929431870669
506.01212801232253
505.71228315951856
505.3938254362945
505.05721303256183
504.7029302828412
504.33150288108754
503.9434713136425
503.5394277938839
503.1200029959055
502.685875006488
502.2377679468705
501.77645103150854
501.3027425171651
500.8174881404881
500.32157022006123
499.8158967397545
499.3014056017651
498.7790618030888
498.24985825159865
497.7148335144425
497.17506528296394
496.6316792845685
496.08582749353127
495.5386964473248
494.9914821544417
494.44543191477635
493.9018220926981
493.3619685654835
492.82722614101607
492.29898818171245
491.77868852179836
491.26779255016373
490.767799389633
490.28023299973614
489.8066484628786
489.3486273555131
488.9077775309086
488.48574195350017
488.0841682747462
487.70470422111197
487.3490009766447
487.01871370514175
486.7155015852941
486.4410208346607
486.19692627913713
485.98486396056296
485.8064636356475
485.66333774003226
485.55705371649213
485.4891562044565
485.4611429459421
485.4744734975025
485.5305385302202
485.63067031060626
485.77613334191875
485.96811057740587
486.2076893819572
486.4958736477451
486.83356314426703
487.2215461551272
487.66050750049635
488.15099512114057
488.6934128603169
489.28803283900265
489.93498849761835
490.6342549750747
491.38563189756746
492.1887657259325
493.0431376235766
493.94804996234257
494.9026286215492
495.9058060698887
496.95634250491827
498.0527973251544
499.19354067563387
500.3767547782781
501.6004294506225
502.8623717754087
504.16020597405554
505.4913787181841
506.8531568670389
508.2426307224929
509.65672907776366
511.0922200085102
512.5457103843936
514.0136635886793
515.4924138036636
516.9781769928919
518.4670453310471
519.9550083655608
521.4379881463018
522.9118296077884
524.372322240802
525.8152179494346
527.2362718910019
528.6312452308698
529.9959111789067
531.3260550041333
532.6174954686852
533.8661100614454
535.0678709630192
536.2188327302521
537.3151653893484
538.3531804768876
539.3293414191834
540.2402865854782
541.082821048992
541.8539686361215
542.5509575464706
543.171231019361
543.7124650260473
544.1725580547983
544.5496405982341
544.8420929252376
545.0485829831119
545.1680594029618
545.1997698437129
545.143281090832
544.9984772444546
544.7655383614821
544.4449380916973
544.0374379550028
543.5440915256794
542.9662608671746
542.305595369681
541.5640718413173
540.7439163659128
539.8476193533368
538.8779076461371
537.837736953641
536.7302979275224
535.558974896252
534.3273534113076
533.0392044418691
531.6984630574772
530.3092102883315
528.8756472100314
527.4020874410337
525.8929375974736
524.3526881999602
522.7859133585545
521.1972315169196
519.5912972362398
517.9727626747326
516.3462568115228
514.7163777995152
513.0876636389731
511.46458303109864
509.8515113898691
508.2527338083123
506.67239852201584
505.1145124266577
503.58292828040845
502.081350333501
500.6133061552704
499.18214589551326
497.7910122626338
496.4428620348989
495.1404253908607
493.88622329561093
492.682564321889
491.5315100554623
490.4349005643938
489.39435488051936
488.41125536662605
487.4867396572157
486.6217240047094
485.8169191516772
485.07281272474086
484.38966583839834
483.76754344965457
483.20628870671084
482.70555053220073
482.26478760579135
481.8832816508843
481.5601449427284
481.29432167318527
481.08461353568094
480.92968162217534
480.8280618510061
480.7781652097292
480.7782977955686
480.82668755273806
480.9214717892253
481.06072630606417
481.2424704843894
481.46467457236105
481.72527100235993
482.02216306680884
482.35325958774155
482.716457013059
483.10964288456375
483.53072903793486
483.97764915522606
484.4483644403836
484.9408683318403
485.4531726642585
485.98334963559694
486.52955143194646
487.0899884447903
487.6629421517132
488.24674433668997
488.8398124555289
489.4406276319646
490.04775355437306
490.6598350784153
491.275590034538
491.89383151593614
492.51343515861953
493.1333694551262
493.75267572814806
494.37046758574655
494.98596528472905
495.598471784063
496.2073601297691
496.81208010724157
497.41213610305533
498.0070994989902
498.5965764520935
499.1802139597107
499.75772486322836
500.3288667888508
500.89345815175886
501.451359201855
502.00244841774355
502.5466376277877
503.08383591281944
503.6139916701676
504.1370779236685
504.65308903892605
505.1620445033159
505.6639622143864
506.15889335055795
506.6468901166376
507.1280001793799
507.60228091658456
508.0697878657339
508.53058360060743
508.9847208791112
509.4322478884325
509.8732115588456
510.3076326290149
510.73552887742545
511.1568902885407
511.5716980328682
511.97993056305626
512.3815437389269
512.7764838469863
513.1646832827884
513.5460651930416
513.9205350435406
514.2879986889039
514.6483546804891
515.0014912457898
515.3472810303117
515.6855800680775
516.0162198936611
516.3390432167452
516.6538673969131
516.9605179798253
517.258805394986
517.5485342692216
517.8295063689544
518.1015258233444
518.3643888774286
518.6178978545257
518.8618623816556
519.0960876829279
519.3203647134408
519.5344730241854
519.7382073962762
519.9313496761332
520.1136909768818
520.2850430318277
520.4452104534518
520.5940046016277
520.7312508281702
520.856780743942
520.9704244294397
521.0720089068842
521.1613803266374
521.2383911893754
521.3029185360733
521.3548274280299
521.3940042783116
521.4203396983958
521.4337397704651
521.4341243216179
521.4214187620213
521.3955654927934
521.3565065501454
521.3041967552311
521.238621409038
521.1597681582065
521.0676468631706
520.9622788529282
520.8436861951358
520.7119268764042
520.5670666463536
520.4091746430477
520.2383495100765
520.0546954479282
519.858344367798
519.6494408604334
519.4281536305734
519.1946607411268
518.9491410917192
518.6917962514282
518.4228304954471
518.1424788483846
517.8509847761891
517.548615288459
517.235652239356
516.9123745486294
516.5790859908426
516.2361104323927
515.8837696324315
515.52240899748
515.1523751220011
514.7740392439905
514.3877837239087
513.9940015713206
513.5931025049317
513.1854818379443
512.771552335366
512.3517388949334
511.9264691185318
511.4961879203623
511.0613393380208
510.6223656716033
510.17972842659833
509.7338879088399
509.28531586235425
508.83446860561463
508.38181022365535
507.9278227669154
507.4729729797573
507.0177271082706
506.5625545694256
506.1079361490324
505.6543397383302
505.2022133902309
504.7520129061281
504.30418116415785
503.8591691418995
503.41742439453077
502.9793818484594
502.54547431826586
502.11611680475335
501.6917300154539
501.2727202176773
500.85948330050326
500.45239988116765
500.0518390092502
499.658161815492
499.27171645113333
498.8928419180168
498.52188307587795
498.1591598916847
497.8049827231037
497.45964998813525
497.12345238713795
496.7966685102985
496.4795826085551
496.17245018846126
495.875515956723
495.58900520302376
495.3131347142636
495.04810179640043
494.79410391114027
494.5513411384804
494.31998391083187
494.1001996515627
493.89215313894215
493.69597830697836
493.5118111338176
493.33977660529564
493.1799865358137
493.03255271594264
492.8975718723997
492.775156777261
492.66538645782066
492.568337162547
492.4840669329727
492.4126439272772
492.3541180955708
492.30853431077276
492.27592126434666
492.25630206809706
492.249698361638
492.25612140644955
492.27557189447094
492.3080573209804
492.35357659726367
492.41212903480294
492.48368843153236
492.5682249589537
492.66570961386094
492.77610123759445
492.89935091489974
493.03539546341534
493.18413962135014
493.34549456304956
493.5193572309405
493.7056028324298
493.90409895361057
494.1147020536014
494.33726960266523
494.5716397304327
494.8176482504903
495.07510634019127
495.3437978051718
495.62349140708324
495.9139465273584
496.2149060546945
496.5260849557732
496.84718049170954
497.17787822748375
497.5178407628518
497.8667184755305
498.2241341508033
498.5896917282297
498.9629630789662
499.3434941927657
499.7308268517227
500.1244724464121
500.5239142686002
500.9286251590809
501.3380501947474
501.75161578073397
502.1687257705565
502.58875088435826
503.01105070923114
503.43496085272056
503.8598110337917
504.2849128483001
504.70954097723285
505.13296899903054
505.55445955780647
505.97325915673565
506.3885775355312
506.7996302937025
507.20564251852306
507.6058245520738
507.99937857179714
508.3854919262309
508.7633542176662
509.1321526268827
509.49106521378707
509.8392913211177
510.17602285630596
510.50047031308947
510.8118628182232
511.10943547036806
511.39244081134717
511.66014479441935
511.91183364744273
512.1468229207434
512.3644379812357
512.5640359067663
512.7450164584907
512.9068047660928
513.0488514635665
513.1706346033357
513.271663137621
513.3514911987461
513.4097127805763
513.4459650518917
513.4599271603192
513.4513299775414
513.419946093324
513.3655795385962
513.2881035085863
513.1874347913466
513.0635190850261
512.916363996927
512.746021513257
512.5525834840779
512.336189872689
512.0970256502492
511.8353395978235
511.5514106249153
511.24558194007113
510.91824517999396
510.5698334302257
510.20082061409045
509.8117273630314
509.40311821707826
508.97560111289965
508.5298181905701
508.0664648364202
507.58627611922685
507.0900333516669
506.57855972587623
506.0527313039537
505.51346455126304
504.9617155951004
504.3984708573438
503.82475047952596
503.24159175350616
502.65006474806125
502.0512787326766
501.44639537527695
500.83659815598793
500.2230876203214
499.6071067986603
498.98991583338886
498.37280321632693
497.7570744902127
497.1440667645008
496.53514315943306
495.9316936870975
495.3351517205447
494.7469802048041
494.1686580941322
493.60169755217356
493.04762872216025
492.5080000147752
491.984371753085
491.47830762004895
490.99137666276306
490.5251440010177
490.081174285778
489.66103471258094
489.26628250839735
488.8984672615938
488.55912197824506
488.2497891508183
487.9719791544032
487.72718334895086
487.5168673617247
487.34245575560016
487.2053406780006
487.106855149904
487.04827447793707
487.03081052029717
487.0556142075038
487.1237738735245
487.2362895980936
487.39406686565263
487.5979229224621
487.84859772171757
488.14671495454235
488.49277342134013
488.88714905027973
489.33011004536377
489.821797571112
490.3622068765611
490.9511882484783
491.5884702748166
492.2736267974147
493.0060686504717
493.78504004096067
494.6096127000805
495.47871334339743
496.3911061530724
497.3453806854001
498.33996890543943
499.3731300673118
500.4429606503584
501.54739422023056
502.68419312587883
503.85095840308924
505.04514715627784
506.26407351115733
507.50490622403925
508.7646824929031
510.0403095766235
511.32857599899694
512.6261525391524
513.9296091005928
515.2354189471246
516.5399965232291
517.8396681824102
519.1307155133501
520.4094063895778
521.6719746128861
522.9146548136936
524.1336940414246
525.3253574952428
526.4859474857221
527.6118047881318
528.6993426415974
529.7450433076581
530.7454956246955
531.6974104198845
532.5976161736672
533.4430912322688
534.2309624588323
534.9585315834024
535.6232986170628
536.2229428428614
536.7553507818509
537.2186254381198
537.6110656758979
537.9311607719384
538.1776369253323
538.349475892267
538.4459153717812
538.4664552007139
538.4108872625914
538.2792598753388
538.071885549276
537.7893369822946
537.4324359458391
537.0022899076984
536.5002518493163
535.9279389674465
535.2872116668065
534.580169759794
533.8091349917936
532.9766282088877
532.0853649110718
531.1382404292087
530.138313456041
529.088803473678
527.9930560601247
526.8545504383926
525.6768838501114
524.4637594216914
523.218980268494
521.9464171776713
520.6500199920675
519.3337855845584
518.0017349902873
516.6579061690294
515.3063120311439
513.9509401051508
512.5957146774176
511.2445025859995
509.9010886474344
508.5691577728478
507.25231037656386
505.95402394976134
504.67766152829853
503.426461745934
502.2035105977206
501.0117185066485
499.85383299334364
498.7324282813042
497.64991818349426
496.60851350483057
495.61022629083266
494.6568791921992
493.7501051592141
492.89135291053765
492.0818475838752
491.3226242405052
490.61452071795145
489.9582045309081
489.3541373138253
488.80258153359955
488.30364067581803
487.85723922397074
487.4631407396354
487.1209422355531
486.8300798426125
486.5898613255479
486.3994421985868
486.25784791576046
486.16399612921407
486.11669080729024
486.1146362325431
486.15645545145384
486.240691283086
486.36582040515293
486.53025435011847
486.73235559416
486.9704468011787
487.2428242546572
487.54777557298445
487.88356685093095
488.2484622855376
488.6407189642798
489.0586227120268
489.5004755548629
489.96458688087006
490.4493097396161
490.9530152464722
491.4741253043428
492.01110984140706
492.5624771442152
493.126798553298
493.7027020329007
494.2888874766003
494.88409136102854
495.48710295173487
496.0967907602718
496.71207632382243
497.3319581186152
497.9554960376893
498.5817956073141
499.2100245579519
499.8394116260039
500.4692342503733
501.0988589657235
501.7277215781975
502.3553100960614
502.9811538691487
503.6048298949664
504.2259555754257
504.84415669386544
505.45910891751555
506.07051985031694
506.6781152170146
507.28166853693637
507.8809561100022
508.47577725211977
509.06594346544983
509.6512650816528
510.23156599750456
510.80667636159797
511.3764431185131
511.94072358061106
512.4993728961305
513.0522537356458
513.5992223788862
514.140154780339
514.6749318916918
515.2034169952653
515.7254616354926
516.2409048816972
516.7495815217897
517.2513040670585
517.7458686754043
518.2330632961713
518.7126474893752
519.1843870449384
519.6480452318599
520.1033702991915
520.5501051313322
520.9879817618155
521.4167271007958
521.8360532263129
522.2456651085347
522.6452463859696
523.0344665047911
523.4129941511532
523.7805088671264
524.1366758428353
524.4811644411956
524.8136161781853
525.1336934832657
525.4410631484984
525.7353845313327
526.0163173337623
526.283507194619
526.5366215987008
526.7753159209816
526.9992628242932
527.2081201547077
527.4015511560127
527.5792404163195
527.740866116238
527.8861204211441
528.0147014909616
528.1263031654313
528.2206350943914
528.2974098614646
528.3563630324908
528.3972473509568
528.4198117217702
528.4238281346242
528.4090793080447
528.3753638890538
528.3224971794077
528.2502965968226
528.1586086552055
528.0472987953801
527.9162502084713
527.7653538994525
527.5945114219166
527.4036658936711
527.192778793561
526.961833291118
526.7108307439551
526.4397869745443
526.148754776199
525.8377938303902
525.5069974271155
525.156473003224
524.7863573946477
524.3968279090558
523.9880786812845
523.5603231214862
523.1137981356845
522.6487837366759
522.1655968685329
521.6645656097941
521.1460513313024
520.610429004689
520.0581021865463
519.4895092644493
518.9051145980243
518.305408324401
517.6909171160156
517.0621666693868
516.4197225256963
515.7641674063161
515.0961114304093
514.4161868831256
513.725040663503
513.0233618565796
512.3118459769842
511.5912049357232
510.8621813127082
510.12551666616105
509.3819699518747
508.6323182808332
507.8773356926539
507.117828763317
506.35459573855894
505.58845116285926
504.82021750292535
504.05072131130396
503.2807983102431
502.5112788600429
501.74300846755864
500.97681577698035
500.2135065159989
499.4539030440989
498.6988207090985
497.9490663948847
497.20543699004526
496.46871788375165
495.7396815447073
495.0190751008911
494.3076517231734
493.60613438446563
492.9152188597026
492.23558976646603
491.5679083283807
490.9128178109718
490.27094480565904
489.6428853789325
489.02921318783723
488.4304834128475
487.8472281895677
487.2799477236188
486.72910345894735
486.19514174514677
485.678467251545
485.17947781112986
484.6985227574008
484.2359156795982
483.791960120519
483.366920930961
482.9610462451587
482.5745500714245
482.2076366933329
481.8604684703575
481.53318180579873
481.22588996746555
480.93867046941284
480.67157857947285
480.4246564630569
480.19791856077217
479.9913658019425
479.8049780302397
479.63871084301667
479.49250106681933
479.3662633604022
479.25991110564945
479.17333151926886
479.106400160833
479.0589756115744
479.0308917250161
479.02197603734766
479.03203948514397
479.0608767054905
479.1082771566928
479.174032031465
479.2579327277873
479.35974520821736
479.47923010423784
479.61614963419527
479.77025486599985
479.9412971787552
480.129013350368
480.3331477689507
480.55344200352323
480.7896332557938
481.04144832070824
481.30860370072287
481.5908143117048
481.88780446694017
482.19928837391427
482.5249702214723
482.86454601083136
483.2177162831082
483.5841705625927
483.9635936437507
484.3556563851725
484.76002363537015
485.1763598506409
485.60431952817027
486.0435397610536
486.49366127239375
486.9543034944037
487.42508111351617
487.90560539793626
488.3954660348162
488.89424808094356
489.4015137718191
489.9168149806024
490.4396839226352
490.96963020689446
491.50615313992785
492.04874332988066
492.59686912040314
493.149991817042
493.7075394029391
494.2689437217853
494.83361453537367
495.40093335611107
495.97026686373624
496.5409562038025
497.112336969731
497.68371543438167
498.2543842242926
498.82364710610483
499.39076755987105
499.95500036317253
500.5155902780345
501.071766531186
501.622746114949
502.1677349170876
502.70594651655296
503.2365751918426
503.7588106027601
504.27184163068745
504.77485146099104
505.26703015535566
505.7475633331235
506.21563394769333
506.6704392372919
507.1111881804364
507.5370948092401
507.9473868127534
508.34130759094086
508.71812736187513
509.07712154311656
509.41759725172886
509.7388759229278
510.04031532776185
510.3213056425575
510.5812412535715
510.8195708711693
511.03576015937745
511.22931107388195
511.39975654774656
511.54666601432353
511.6696640406478
511.7684205379908
511.84265003057396
511.89211530060027
511.91660442487387
511.91596209767033
511.89008144887515
511.8388914550819
511.76237469565825
511.66054538642845
511.5334685392591
511.38124799069624
511.2040426631304
511.002074154122
510.77559750369426
510.524926833451
510.25043918744285
509.9525482289341
509.6317152833671
509.2884405117473
508.923256061748
508.5367318566986
508.1294921510982
507.70221497242085
507.2556100409665
506.79042963937087
506.30747516274613
505.8076083744118
505.29174362531256
504.76083205490966
504.21585933652847
503.65784551788954
503.08784232101175
502.5069453386091
501.9162598420429
501.3169446324091
500.71019650517076
500.0972324661572
499.4793040083604
498.85769331570987
498.23372667917914
497.6087615412998
496.9841776708006
496.3613872516538
495.74183803675965
495.12701886431904
494.51844789336985
493.91768945464315
493.32634506946675
492.7460252039495
492.17836924347944
491.6250281248429
491.087662004781
490.56795502429736
490.06759502886945
489.5882771949183
489.1317049412906
488.69957736816224
488.2935982646042
487.91547191488877
487.56689469736216
487.24954426836246
486.9650661401309
486.71508844482355
486.5011991658365
486.3249624844067
486.18789112672243
486.09145136789806
486.03705696886544
486.02604079570733
486.05967869821745
486.1391674334917
486.2656176928426
486.4400448750758
486.66337073282324
486.9364119247565
487.25985756368027
487.63427718328495
488.0601179008551
488.53769967599135
489.06720011303395
489.6486395487608
490.28190133184023
490.9667178256875
491.7026505765242
492.48908831482714
493.3252585095354
494.21020239540996
495.1427876557974
496.12169967498517
497.145451122199
498.21237270270234
499.32061558562043
500.4681502180942
501.65277029722904
502.8721110149193
504.1236222679762
505.4046083777588
506.7122187647007
508.0434418939896
509.3951417771644
510.76403195775373
512.1466895568344
513.5395851987231
514.9390699724321
516.3414157223916
517.7427991447319
519.139330098432
520.5270850049297
521.9020954143167
523.2603900456322
524.5979961226701
525.9109437122181
527.1952856411332
528.4470886282493
529.6625007808657
530.837736060812
531.9690758865011
533.0529291555614
534.0858155897869
535.0644056186744
535.9855380374312
536.8462178258492
537.6436174996852
538.3750879076775
539.0381959661881
539.6307285033107
540.1506861148503
540.5962750225182
540.9659116850667
541.2582665907508
541.4722869334421
541.6071947166123
541.6624954817662
541.6379602771976
541.5336554809327
541.3499086439552
541.0873216064487
540.7467877094937
540.3294563716652
539.8367628086149
539.2703894823718
538.6322884841027
537.9246687686078
537.1499524763278
536.3107759524369
535.4099760260005
534.4505836630059
533.435778838037
532.3688760311624
531.2533579359952
530.092848952588
528.8911034712995
527.6520026042465
526.3794959374717
525.0776347645412
523.7505353609295
522.4023469026585
521.0372389607815
519.6593668113507
518.2728646335697
516.8818406268011
515.4903482657769
514.1023952225365
512.7219049362566
511.35272929234594
509.9986009767607
508.66312828129224
507.34978839197953
506.0619083519788
504.802664502367
503.57507858898055
502.3819911039561
501.22606204136275
500.1097727650053
499.03540949376526
498.00506549246336
497.02063590180154
496.08381822315664
495.19610078967315
494.35875426994323
493.57285666089354
492.83929097410316
492.1587351712062
491.5316615133642
490.9583628832234
490.4389493947612
489.97334800941724
489.5613226094021
489.2024663913221
488.8962143618881
488.641856186773
488.4385451050489
488.2853029471314
488.1810276594787
488.12451187653994
488.11444850798665
488.1494387911186
488.2280068238611
488.34859644857363
488.5096009944578
488.70935113109147
488.9461417756668
489.21824583449154
489.5239014477728
489.861349213931
490.2288166141957
490.6245502374118
491.04681053698386
491.4938529029295
491.9639712941199
492.4554820262832
492.96672431465277
493.49608853591127
494.0420067509877
494.6029779249225
495.17754235923724
495.764294889263
496.36190433050166
496.9690799130724
497.5846094296005
498.20733575393615
498.8361546984531
499.4700211630206
500.10795943564995
500.7490713224143
501.3925093359016
502.0374781469013
502.6832555057786
503.32918297032717
503.9746726549569
504.61919218646216
505.2622448961255
505.9033779350318
506.542163577341
507.1782258693087
507.81122759202617
508.440850646228
509.0668043576423
509.6888132506591
510.3066373142617
510.92003501541507
511.5287848712498
512.1326672157423
512.7314586524999
513.3249637836859
513.9129862321639
514.4953328141261
515.0718069299671
515.6422288890918
516.2064443614453
516.764281259638
517.3155593622072
517.8600847893914
518.3976313555696
518.9279766585237
519.4508791194004
519.9660703449122
520.473278357546
520.9722161897513
521.4625995776026
521.9441302482677
522.4164969607141
522.8793833103824
523.33244729185
523.7753446219723
524.2076906068404
524.6290981927298
525.0391832019901
525.4375502278991
525.8238049858614
526.1975493149216
526.5583563959909
526.9058178323991
527.2395143122253
527.5590257118247
527.8639235069686
528.1537761214132
528.4281606468708
528.6866461730639
528.9288208252738
529.1542863270532
529.362639729252
529.5534833295771
529.7264212614879
529.8810801437799
530.0170860135433
530.1340695917818
530.2316800383055
530.3095768093784
530.367437006558
530.4049584233757
530.4218517238888
530.4178479060037
530.3926905657062
530.3461523435238
530.2780141434282
530.1880726121406
530.0761605625293
529.9421083877133
529.7857840540661
529.6070783083095
529.4059054069467
529.1822038526194
528.9359347996805
528.6670892656591
528.3756821696584
528.0617616402894
527.7253986355591
527.3666741783093
526.9857233785798
526.5826941762014
526.1577628667688
525.7111430108587
525.243074746617
524.7538294114139
524.2437031184338
523.7130233048698
523.1621531832075
522.5914699285336
522.0013951682135
521.3923707146258
520.764860441293
520.1193628864872
519.4564020623853
518.7765291881382
518.0803130696976
517.3683543783608
516.6412914031131
515.8997664946555
515.1444601098113
514.3760767954531
513.595333434346
512.8029735236839
511.9997529387794
511.18646078087113
510.3638832709513
509.53281963959
508.69410456261244
507.84858080444815
506.9971047672309
506.1405387077224
505.2797582196248
504.4156444072796
503.54908029968317
502.680960361003
501.8121714333444
500.9436086159838
500.0761671623194
499.21074317002825
498.34823208195064
497.48951172664385
496.6354580865627
495.78693258712934
494.94479337130093
494.1099025183676
493.28310962084277
492.4652331100116
491.6570873735331
490.8594573151771
490.0731122033779
489.2988040647944
488.537266238056
487.78920776378385
487.0553011288869
486.3362093141667
485.6325692044613
484.945004060453
484.2741101610005
483.6204433318582
482.9845359978256
482.36689011458157
481.76797452467196
481.1882445410085
480.62810251117634
480.08793471747043
479.56808712258896
479.06888502944685
478.59062226610416
478.13355912884487
477.69793574522174
477.2839570464752
476.891788628313
476.52157672220153
476.1734332491606
475.84745382669126
475.5437029877463
475.2622171266767
475.0030273545867
474.7661213079745
474.5514705577535
474.35902729742384
474.18871894745286
474.0404515109556
473.9140996471477
473.8095381537071
473.726607940644
473.6651454749115
473.6249816587792
473.6059079476765
473.6077276994843
473.630220004753
473.67314711720707
473.73626823292574
473.81932922759233
473.92206986457484
474.04423096270534
474.18553546051925
474.34570647314837
474.52445456152225
474.72150466866714
474.9365574019811
475.1693222983679
475.41950522205985
475.6867979792889
475.97089605703354
476.2714899868867
476.5882676781548
476.9209078318117
477.26908621595504
477.6324841616509
478.01076422522596
478.4035914362716
478.81063926863254
479.23155865630406
479.66601035375106
480.1136447863918
480.574106024756
481.04703119896465
481.53203223179236
482.0287365210025
482.53674893764094
483.0556685089277
483.5850876900097
484.1245742321866
484.6736966190443
485.232005710195
485.7990473359355
486.3743488169533
486.9574030377118
487.5477003523662
488.14471027019323
488.7478917398165
489.3566860419722
489.97050989961326
490.588770442828
491.21084962376096
491.8361128336631
492.46391099737906
493.0935741109831
493.72441805634986
494.3557317793764
494.98679083108567
495.61685132846554
496.2451615821232
496.87095201129335
497.49343169042254
498.1117958027273
498.7252333589832
499.3329088779684
499.9339921192412
500.5276443222167
501.11301117135673
501.689237550673
502.2554583844822
502.81081816859995
503.35444673857245
503.8854675472219
504.4030210372107
504.90625103226523
505.39431340628823
505.8663760913001
506.3216103150822
506.7592124398832
507.17838866377105
507.5783727842791
507.9584132677434
508.3177865495561
508.6557928457534
508.97176718438925
509.26507521471706
509.5351155637659
509.7813045140533
510.003112955872
510.2000419819149
510.37164447006165
510.51750716759483
510.6372521925354
510.73056455567576
510.7971494736693
510.8367791791549
510.8492717886019
510.8344941108697
510.79236432124276
510.72284584084383
510.62595643311516
510.5017439831375
510.3503274610019
510.17187442440587
509.96659372073503
509.73476546344915
509.47670987701827
509.19279545908194
508.8834515102045
508.54914565775647
508.1903985848933
507.80777242862865
507.4018676688019
506.9733593515242
506.5229506367707
506.0514009695691
505.5595083125495
505.04812447487853
504.5181378262672
503.97049542554646
503.4062126777502
502.82634011674793
502.23195457613826
501.6241784168287
501.00416782406353
500.373111775293
499.73222817899375
499.08278579497147
498.4260820340214
497.7634267128559
497.096192919879
496.425775706572
495.75360745846365
495.08114667846485
494.4098771959435
493.7413398900155
493.07709220988573
492.4187289561461
491.76787461953325
491.1261867584694
490.4953664382783
489.87712531679745
489.2731832796793
488.6852744633258
488.1151398038623
487.56455232669015
487.0352746064703
486.5290838268857
486.0477571655542
485.5930636845936
485.1667737070416
484.77063729509746
484.40639528275267
484.07576613368053
483.78043031800644
483.52204265797087
483.30221150195615
483.12250611250255
482.9844485384579
482.88950322965906
482.83906423164854
482.8344485037591
482.8768955007313
482.96755774383786
483.1075000273887
483.2976967136886
483.5390050367527
483.83216667607076
484.17780284205094
484.5763962596025
485.02830823255437
485.5337566966608
486.0928232840193
486.7054414150011
487.3713694475811
488.09020547134935
488.8613850665609
489.68416873530526
490.55764972848004
491.4807230876897
492.4521184239311
493.47038309319754
494.5338815860749
495.6408087731024
496.78918227190087
497.97683797467033
499.201432932545
500.4604467612177
501.7512145960091
503.0708998608748
504.4165182889258
505.7849343793814
507.1728718562539
508.5769404079066
509.99361077008575
511.4192650814214
512.8501847001274
514.2825584961569
515.7125026373967
517.1360655289945
518.5492705207851
519.9481157288243
521.3286011817067
522.686721531651
524.0184808620613
525.319927292848
526.5871504308869
527.8163072294445
529.0036499741238
530.145512556361
531.2383640956131
532.2788054068457
533.2635959332642
534.1896628155062
535.0540740008223
535.8540952289785
536.5871843983058
537.2510042528479
537.8434444743424
538.3626227296282
538.8068709718281
539.1747390007072
539.4650286346102
539.6768398716509
539.8095204252896
539.8627109230821
539.8363327827404
539.7305980135027
539.545979392649
539.2832238416795
538.9433699205571
538.5276993016871
538.0377618457218
537.4753651431685
536.8425681809318
536.1416680936766
535.37517051863
534.5457870885925
533.6564229004928
532.7101558852563
531.7102232819101
530.6600084869599
529.5630374564314
528.4229830938355
527.2436364257095
526.0288951091884
524.7827251892459
523.5091683765268
522.2123075438531
520.8962340116999
519.5650625227463
518.2229001672392
516.8738287163459
515.5218914427571
514.1710802228664
512.8253256187731
511.48846801983564
510.164251367829
508.85630017996215
507.56810810374634
506.30303813475064
505.06430647636904
503.85497422820805
502.67795119536237
501.53595956787655
500.4315337067544
499.3670250112282
498.3445926692075
497.36620226080083
496.4336189755817
495.5484195441983
494.71197025570467
493.92543652453105
493.18978012064883
492.505763769524
491.87396546992755
491.2947674820274
490.76836782665066
490.29478366614967
489.87386192959036
489.5053039890862
489.1886386948119
488.9232548493087
488.70840360852264
488.5431903430342
488.4265970719918
488.3574896599425
488.33464054223396
488.3567386710527
488.4223755799354
488.53007503201474
488.6782984654779
488.8654547672177
489.0899166029717
489.3500058555749
489.6440333473422
489.9702878742937
490.3270422772499
490.71258530426627
491.1252072692077
491.5632270343764
492.02497023147237
492.50879480837926
493.01309182138596
493.5362813380536
494.07683843806245
494.63327481068774
495.2041613180609
495.788128268881
496.383854343387
496.9900902231618
497.60562485051827
498.22930552387044
498.86003970056447
499.49678976978555
500.13859419078307
500.7845580996782
501.4338439628115
502.0856886334843
502.7393657187372
503.3942155435152
504.04963586971337
504.7050883868394
505.3600921571081
506.0141794216842
506.66694933323106
507.3180207734805
507.9670349265435
508.6136613086838
509.2575946093601
509.89856226115603
510.53629656409
511.1705546657328
511.80109883706297
512.4276960157797
513.0501214389767
513.668157943374
514.2815911118744
514.8902179471738
515.4938320546073
516.0922334474014
516.6852236733239
517.272594998209
517.8541374995335
518.4296135341306
518.9987737038507
519.5613575642834
520.1170882065311
520.6656758610077
521.2068107665186
521.7401850709449
522.2654691664717
522.7823165917434
523.2903757638186
523.7892757161651
524.2786293983711
524.7580347430646
525.2270779711796
525.6853413706441
526.1324004795416
526.5678237513669
526.9911721199118
527.4019941897025
527.7998388831519
528.1842239371227
528.5546850574723
528.9107661995155
529.2520013442603
529.577926804549
529.888080252657
530.182012871303
530.4592687292693
530.7193968676547
530.9619588014256
531.1865163173989
531.3926476496201
531.5799482205725
531.7480295182766
531.8965138185898
532.0250376311577
532.1332528802336
532.2208212939747
532.2874285023353
532.3327696581166
532.3565479513534
532.3584991918049
532.3383835822808
532.2959909238754
532.2311240953018
532.1435997899744
532.0332731227301
531.900018627577
531.7437287580312
531.5643296409227
531.3617618203539
531.1360026662663
530.8870536727921
530.6149408295291
530.3197304016626
530.0014987586048
529.6603654982775
529.2964674938139
528.9099766940894
528.5010915171457
528.0700302799027
527.617050879322
527.1424398387428
526.6465102014805
526.1296015105062
525.5920750621608
525.0343243719534
524.4567702687142
523.8598714940453
523.2441202765473
522.6100160217877
521.9580889745002
521.2888973767508
520.6030135849988
519.9010406654368
519.183595966423
518.4513385393457
517.7049420998435
516.9451052733519
516.1725531315602
515.3880145580414
514.5922543096174
513.7860327286351
512.9701307974732
512.1453576945812
511.3125256374614
510.4724706798131
509.62602309801787
508.7740344771997
507.91736975599855
507.05689511137825
506.193487693408
505.32802986994176
504.46140568510117
503.5944994845187
502.7281899980054
501.8633639982516
501.0009016019312
500.1416703107677
499.2865473380273
498.43639827096035
497.5920910844141
496.75447967465595
495.9243960045395
495.1026726951333
494.29011755210956
493.4875341109051
492.69570506462526
491.9153932772072
491.1473493489398
490.3922951588338
489.65093584873426
488.9239609218785
488.21203465908286
487.515802012668
486.83586602774614
486.1728110354519
485.527190817413
484.89952331512444
484.29031590410773
483.7000384409571
483.12915144162065
482.57807761270965
482.0471929679946
481.53685493675215
481.04738899932033
480.57909083543126
480.13221086870385
479.70698246747173
479.30362199631077
478.9223008657484
478.5631767984418
478.2263726801455
477.91196624701377
477.620014426284
477.3505427093149
477.1035500217665
476.87900695886896
476.6768561814396
476.49702595395394
476.3394133566267
476.20391821722404
476.0904051370483
475.9987048945782
475.92862409711284
475.8799590469457
475.85250337208777
475.8460187348649
475.86025583187444
475.8949579560179
475.9498317528108
476.02459426503447
476.11894131752854
476.2325596615022
476.3651324039012
476.5163225501364
476.6857980543495
476.87320424362485
477.0781929071378
477.30041197467375
477.53949958639686
477.7951000025765
478.06685107555285
478.35438688738304
478.6573535095859
478.9753856194418
479.3081245755845
479.65520570203
480.016262912728
480.3909330715635
480.7788449186955
481.1796475064829
481.5929841648268
482.01849916653566
482.4558399503468
482.9046505789246
483.36457811609296
483.83526129547107
484.3163430525532
484.8074677882319
485.3082676423701
485.8183814891505
486.33743883287764
486.8650743442587
487.40092068161954
487.94459462015345
488.49571150103304
489.05387987153307
489.6187094373266
490.18979513818164
490.7667118643451
491.34904408597515
491.936358856605
492.5282051382424
493.1241282666729
493.72365834079875
494.326311974884
494.93158733301146
495.53897005556814
496.14795043168954
496.75797738674225
497.36849101044135
497.97891772221084
498.5886700945871
499.1971601904848
499.80376938631224
500.4078708063836
501.00881233391254
501.6059301668433
502.19855592615096
502.7859977274755
503.3675585678258
503.9425285299399
504.5101682092747
505.0697443747823
505.6205000590602
506.1616862184607
506.69254536312667
507.212323875687
507.7202716414512
508.21561988655026
508.69761135913376
509.1654780255461
509.61845150105546
510.0557910391843
510.4767527423148
510.88060480530277
511.2666274221757
511.6341238497476
511.98240965205923
512.3108016479723
512.618659259063
512.9053581591338
513.1703012330553
513.4129253648061
513.6326862959165
513.8290804208502
514.001638220224
514.1499220924433
514.2735371298563
514.3721153000904
514.445341045946
514.4929219248133
514.5146179472645
514.510247009552
514.4796708362976
514.4228004114328
514.3395791208287
514.2300028691265
514.09410933697
513.9319777425671
513.7437547632564
513.5296212328409
513.2898220815248
513.0246417141911
512.7344076173532
512.4195090663932
512.0803743951074
511.71749434699973
511.33141051348076
510.92269741009676
510.49198395058505
510.03993542176795
509.56727046415944
509.0747541021588
508.56318434723715
508.0334205285982
507.48635944412285
506.92294463782486
506.3441889929468
505.7511432436812
505.1449155066319
504.526627598781
503.8974432332595
503.2585561986627
502.6111868349992
501.95659533241144
501.2960790498012
500.63097608598156
499.9626597852256
499.2925307308585
498.6220280887735
497.9526208466354
497.2858008490265
496.6230971356215
495.96606146781716
495.31628655632124
494.67539587709615
494.04504231831373
493.42691789378875
492.8227377741973
492.2342510519862
491.6632077932298
491.11136095859035
490.5804854620632
490.0723421417037
489.5887047659532
489.1313539849356
488.702069138171
488.3026265596485
487.9347734945446
487.60026529116146
487.3008304720035
487.0381618033689
486.8139221913092
486.6297194276296
486.4871198709156
486.3876442522103
486.3327633856831
486.32388740236684
486.36233949448456
486.4493731360784
486.58615410880367
486.7737489985858
487.013144428103
487.30519628408854
487.6506619960757
488.05017604188913
488.50423874500507
489.0132138415882
489.5773151779473
490.19661560702446
490.8710232886485
491.6002933179105
492.3840290311678
493.221644493935
494.11238866099904
495.05533294545705
496.04937265855784
497.09322266727577
498.18540293026956
499.32425979473203
500.5079441238539
501.7344206709268
503.0014760524988
504.3067167358805
505.6475768467535
507.02131805796824
508.4250369817222
509.85567807912275
511.3100301101703
512.7847323279989
514.2762901628323
515.7810917810971
517.295406060598
518.8153878679901
520.3371101549466
521.8565529788515
523.3696325520378
524.8722242809572
526.3601779067671
527.8293293202222
529.2755086496913
530.6945574954901
532.0823484886137
533.4348073559545
534.7479245423094
536.0177622842472
537.2404898769918
538.4123793254795
539.5298221066602
540.5893759490076
541.5877478469582
542.5218288705476
543.3886951401561
544.1856098654603
544.9100612450891
545.5597551594522
546.1326284243613
546.6268737361536
547.040881763937
547.3732989733925
547.6230131001189
547.789222534562
547.8714111894359
547.8693538608551
547.783141215634
547.6131480713597
547.3600189809118
547.0246791709602
546.6083139611264
546.1123956064073
545.5386614902783
544.8891160345254
544.166025829965
543.3718793515867
542.5094003887673
541.5815187580116
540.5913595002661
539.5422175401775
538.4375326212948
537.2809082652367
536.0760680780505
534.8268677794964
533.5373022656248
532.21144696247
530.8534690942745
529.4675905926952
528.0580703405357
526.6291861689438
525.1852100973846
523.730411967388
522.2690172177337
520.8052063460212
519.3431061028455
517.8867551765084
516.4401100125685
515.0070275193972
513.5912356444679
512.1963200547248
510.8257136761521
509.48270691776224
508.170419822548
506.8917928945069
505.6495966100161
504.4463984054503
503.2845812694212
502.16632194329225
501.09358540645775
500.06814005563683
499.0915390081851
498.16513756642723
497.290089928167
496.4673428132146
495.697645414155
494.9815359028451
494.31937252313713
493.7113196189996
493.15736278873663
492.6573005532985
492.21076260513905
491.81723294706615
491.4760497148395
491.1864034512251
490.9473576878771
490.75784562824265
490.6166932393109
490.5226250287374
490.47426552123085
490.4701690396301
490.50880577273824
490.5885849190909
490.7078754635069
490.8649984711085
491.0582364895399
491.2858534406155
491.5461121682594
491.8372567752823
492.1575405097933
492.50523795127975
492.8786260961363
493.27600397591095
493.69570488230823
494.13609938092105
494.59560450675735
495.0726617344395
495.56576208026905
496.07345945342195
496.5943596717307
497.12712870410866
497.67049394312215
498.22324528710874
498.7842246685317
499.35234582359385
499.92657889700524
500.50595218282433
501.0895756705165
501.67660564282835
502.2662505767926
502.8577920525334
503.4505443031054
504.04391029645734
504.6373486457315
505.23038473276574
505.82257571551213
506.4135077529367
507.0028057659993
507.5901006903119
508.1750526664071
508.7573694835014
509.33676600032584
509.9129955875889
510.4858243190955
511.05502245150103
511.6203641872623
512.1816246684687
512.7386098323755
513.291121145473
513.8389600620468
514.3819326514557
514.9198460648164
515.4525210841839
515.9797701641477
516.5014067830283
517.0172400423487
517.5270451515293
518.0305973462991
518.5276601260672
519.0179847790207
519.5013080041626
519.9773563206533
520.4458508399024
520.906494789993
521.3589852576863
521.8030098119705
522.2382344207986
522.6643264157124
523.0809425387082
523.4877235405045
523.884308406216
524.2703290733937
524.6454227873635
525.0092072485544
525.3612993560921
525.7013207120478
526.0288790462787
526.3435910993778
526.6450683475312
526.9329267308876
527.2067920424129
527.4662812863801
527.7110254451816
527.9406549891593
528.1547983010406
528.3531062395303
528.5352309359931
528.7008375368922
528.8495939953555
528.9811782442405
529.0952830592134
529.1916167703295
529.2699063849319
529.3298831338508
529.3712831115834
529.3938652482019
529.3973965388072
529.3816656920445
529.3464792517469
529.2916599812283
529.217054173274
529.1225060190249
529.0078930164132
528.8731111820094
528.7180690405241
528.5427055584687
528.3469732961483
528.1308456038879
527.8943103206658
527.6373810018551
527.3601017076727
527.0625233239981
526.7447367429313
526.4068470930405
526.0489762874896
525.6712739492518
525.273902051353
524.8570656686288
524.4209936217245
523.9659277882326
523.4921428595495
522.9999266771852
522.4895976226717
521.9614935705721
521.4159761110769
520.8534323866803
520.2742704114063
519.6789253732666
519.0678416139373
518.4414938806161
517.8003956346807
517.1450637355503
516.4760575971296
515.7939484165913
515.099323348501
514.3927915594435
513.6749660080972
512.9464910630614
512.2080218788876
511.460247671054
510.703875900176
509.93960546367754
509.16817402802593
508.39032008662673
507.6067863979639
506.81834292779854
506.02576843375346
505.22985842153344
504.43139344208106
503.63117046444347
502.82999270368714
502.0286572878525
501.2279777616277
500.4287715642595
499.6318454503467
498.8380158996986
498.048085703607
497.26287095896123
496.4831756911092
495.7097905359314
494.9435021586597
494.18508740671143
493.4353075650261
492.69491778462753
491.964663493585
491.2452792586119
490.5374724507599
489.84194413234206
489.159377109116
488.4904240719233
487.8357285038792
487.19589745686596
486.5715246581666
485.96316529747935
485.3713589647213
484.79662202655624
484.23943564916334
483.70026014952475
483.1795231175556
482.67762954301395
482.1949546152908
481.73183660158475
481.28859392144
480.86550734621215
480.462837289137
480.0808129874805
479.71961739820426
479.379409031763
479.0603132473487
478.7624312430783
478.48583616119345
478.23055397358877
477.9965966756301
477.78393645170166
477.59252816656
477.42229276453713
477.27312040161024
477.14488440927295
477.03742700429666
476.9505602520398
476.8840778046253
476.83774265028273
476.81131004083375
476.8045111039168
476.8170583949646
476.848651603011
476.89895257555696
476.9676279628356
477.0543219838958
477.1586708408708
477.2803062151198
477.41883480981744
477.5738703599315
477.7450087080234
477.93184886988786
478.13399022015847
478.3510143464042
478.5825171054515
478.82808595702295
479.08731003594613
479.3597792499467
479.6450810017668
479.9428098461001
480.2525594944194
480.57393435628404
480.90655012953204
481.25002557110275
481.60399617170265
481.9681060204421
482.3420063493386
482.7253671212661
483.1178511390994
483.5191405773759
483.9289195183686
484.34688469188933
484.7727540847987
485.20624055136693
485.64708226736377
486.09502277286754
486.5498106692419
487.01119460817597
487.4789199892353
487.95276500773497
488.4325001938715
488.9179049069073
489.40876858785316
489.9048743895786
490.40600670970093
490.9119475748027
491.4224818207055
491.93738477089175
492.4564337418557
492.9794198116731
493.50612057623704
494.03628815364385
494.5696851174211
495.1060526577825
495.6451292266397
496.18662753708077
496.7302485929409
497.2756892477597
497.8226215230656
498.37070699652907
498.9196004727309
499.46892330531176
500.0182781352966
500.5672371805562
501.11536564329305
501.6622037149577
502.20725735718065
502.75002849431087
503.28998188953125
503.82658008141243
504.35925958379306
504.8874402935296
505.4105329550863
505.927911867342
506.43894239148625
506.9429712722383
507.4393237308651
507.92731583271166
508.40624284391225
508.8754006078656
509.3340698733844
509.78152706730975
510.2170287473435
510.6398287007077
511.0491885932071
511.44436907881516
511.82463198721905
512.1892468623302
512.5374821953654
512.8686340954035
513.1820024304651
513.4769020388704
513.7526607114155
514.0086368454924
514.2442155321941
514.4588024551133
514.6518330906599
514.8227797437515
514.9711322412569
515.0964287487724
515.1982382925618
515.2761627993895
515.3298497409235
515.358978324057
515.3632981774933
515.342587061221
515.2966828302931
515.2254671213168
515.1288619158211
515.0068521498782
514.8594644002902
514.6867759318163
514.4889081054633
514.2660258735889
514.0183632480513
513.746196222047
513.4498549851019
513.1297251088832
512.786235766348
512.4198719860747
512.0311758954966
511.6207395496401
511.1892045266642
510.7372418061028
510.2655751022442
509.7749733843939
509.26624577030987
508.740258555491
508.1979086662583
507.64014759367643
507.0679837853841
506.48248346482785
505.8847482301884
505.2758950284721
504.6570903577062
504.02952068612325
503.394395138529
502.75296719815026
502.10652109090756
501.45639307313206
500.80392464435283
500.1504938723561
499.49751343367524
498.84641315031666
498.198646130109
497.55569873764244
496.91907840019434
496.29033633769177
495.67105122690526
495.0628284495303
494.4672882742808
493.8860738035945
493.3208637707103
492.7733331126565
492.2451724695288
491.73807031042173
491.253723245894
490.79382855724145
490.36007194876237
489.9541411840336
489.57771541743176
489.232454224572
488.92001501275297
488.64202456846846
488.40009206422684
488.19579337366366
488.0306617662233
487.90620479236657
487.8238619580625
487.785023356247
487.791008398909
487.84306380879974
487.94236792929553
488.0899974850147
488.2869620025038
488.5341683442243
488.8324158967588
489.1824027210819
489.58469453121523
490.03974178133143
490.5478573960962
491.1092209301313
491.72386997237084
492.3916943102488
493.1124306187604
493.8856596662831
494.7107843582377
495.5870563932791
496.51353348242077
497.4891159543998
498.5125182895594
499.5822675647607
500.6967199953636
501.8540432466233
503.0522278439461
504.28908613579733
505.5622565806261
506.8692090478356
508.2072357311093
509.57348461968957
510.9649371778113
512.3784263537178
513.8106533969627
515.2581728982261
516.7174312715193
518.1847446954179
519.6563325027188
521.1283162395364
522.5967345855651
524.0575720601499
525.5067621383165
526.9402042592861
528.3537859234793
529.7433967942403
531.1049523484812
532.4343807723956
533.7276624446309
534.9808410344839
536.1900214554022
537.3514310209646
538.4613952394831
539.5163634622415
540.5129293465283
541.4478397687417
542.3180381800406
543.1206417569725
543.8529633291519
544.5125297921635
545.0970838650404
545.6046085093913
546.0333193466232
546.3816595181834
546.6482964755643
546.8321668741488
546.9325050057881
546.9488225369464
546.8809337859893
546.7289526206055
546.4932717118891
546.1745653359932
545.7737672300898
545.2921045108073
544.7310742070662
544.0924301273113
543.3782020013401
542.5906793994778
541.7323887224078
540.8060891854407
539.8147283551617
538.7614617474795
537.6496054017214
536.4826393213878
535.2641937978385
533.9980233244787
532.6880186504844
531.3381852452408
529.9526390131183
528.535575818575
527.0912497491139
525.6239644115931
524.1380445090118
522.6378051619131
521.1275515973543
519.6115480369174
518.0940218011553
516.5791350287423
515.0709612222355
513.57349293423
512.0905954154304
510.62603107726557
509.18342601765283
507.7662574069139
506.3778572358921
505.02137789811616
503.6998071380452
502.4159315341236
501.1723490155735
499.9714715865208
498.8155009950852
497.70644292277063
496.646091706095
495.636027043554
494.6776225153868
493.7720353549944
492.9202213437077
492.12293973378996
491.3807307044273
490.6939615239129
490.0627859787899
489.4871878242119
488.96696797790537
488.5017541672369
488.0910244692472
487.734096451849
487.4301519192397
487.17823146564416
486.97724452481896
486.825983815499
486.72313322963487
486.6672868006139
486.6569500957765
486.69054813506966
486.76644852342207
486.8829536397306
487.03833431978745
487.230819595326
487.4586146340145
487.7199184351416
488.0129173141023
488.3358066419353
488.68678580681035
489.06406350779014
489.46587991251647
489.89049105176457
490.33619185307253
490.80131205504534
491.28423137771983
491.78337669273236
492.29721630299
492.8242997117713
493.3632093718736
493.91260378117903
494.4712011728359
495.037778209761
495.6111792342879
496.1903030867296
496.7741202370229
497.3616658217957
497.9520369274471
498.54439193249345
499.13795400266986
499.73200372933445
500.32589170287554
500.9190296676851
501.5108905621521
502.1009906100358
502.68888206740075
503.27415185868387
503.85641068557135
504.4353078040053
505.01052575504355
505.5817838666931
506.1488262321746
506.71140496994394
507.2693047193038
507.8223142908332
508.37023302754824
508.91287039002253
509.45003461799087
509.9815544515131
510.507248559642
511.02696104754546
511.54054745748067
512.0478550019211
512.5487471341935
513.043076074192
513.5306818410947
514.011393313492
514.4850249840646
514.9513914684492
515.4102850545648
515.8614905187889
516.3048024392266
516.7399950219888
517.1668424922041
517.5851067561158
517.9945339506237
518.3948773321562
518.7858633638741
519.1672278494171
519.5386929275185
519.8999747305024
520.250786749871
520.590825484492
520.9197996823491
521.2374050171574
521.54334916913
521.8373397950866
522.1190658720149
522.3882290521178
522.6445355725282
522.8876949133615
523.1174295809396
523.3334455479979
523.5354636498788
523.7232157695944
523.8964278885358
524.0548513622202
524.1982197982065
524.3262888162246
524.4388320388442
524.5356219515668
524.616445804101
524.681090667156
524.7293632802557
524.7610749224467
524.776050375393
524.7741369095872
524.755189424449
524.7190819144829
524.6657058294422
524.5949531915188
524.5067521965315
524.401028550892
524.277725860327
524.1368016347378
523.9782297389262
523.8020007357588
523.6081110717812
523.396589286963
523.1674786902485
522.9208376613583
522.6567487282601
522.3753013149402
522.0766182219219
521.7608319081731
521.4280890912673
521.0785661138161
520.712445051623
520.3299424054059
519.931276307241
519.5166949120945
519.0864588150033
518.6408408424867
518.1801410780549
517.7046800237165
517.2147962491099
516.7108484276124
516.1932086312938
515.6622709014423
515.118451076868
514.5621690788566
513.9938770026077
513.4140281938733
512.8231163974308
512.2216405766482
511.61010683897536
510.9890433018472
510.35898424079477
509.72048483063867
509.07411392048766
508.42045114729626
507.760092812347
507.09363797750035
506.42170967818964
505.7449301536696
505.0639308996363
504.37935383488025
503.69183706767967
503.00204000928744
502.3106291688009
501.61828181392616
500.9256722458949
500.23345774916595
499.5423211554843
498.8529302962964
498.16595874637545
497.48208253306757
496.80196375412214
496.12627346795483
495.4556664414331
494.7908063618033
494.13234748729286
493.4809162025713
492.83714484429737
492.2016464658025
491.5750245747432
490.9578829894859
490.35079210956366
489.75432955302193
489.1690465369863
488.59546925258303
488.0341131614055
487.485477646691
486.95004533768275
486.4282682604248
485.92058452677367
485.4274087773161
484.94912258499966
484.48610440244715
484.0387049748458
483.6072381330421
483.1919998469555
482.79324562606075
482.4112337714689
482.0461946034777
481.69832173560354
481.36778738626623
481.05472917017084
480.7592786308646
480.4815310706762
480.2215479761002
479.9793746354468
479.75503396309745
479.548529349076
479.35983227008256
479.1888983216368
479.0356615477255
478.9000243727055
478.78187590453473
478.6810796334875
478.5974653808691
478.53086268906065
478.4810663023932
478.44786957985593
478.43105230984577
478.4303752331327
478.44559201090385
478.47644387471473
478.5226610704742
478.5839553310865
478.6600274397305
478.7505748101467
478.8552815742377
478.9738349288662
479.10591298826483
479.2511967931335
479.4093672370162
479.58008655899425
479.7630321739974
479.95787358933785
480.1642842949718
480.3819470032452
480.61054144268843
480.8497563717103
481.09927951646677
481.3588003375058
481.62802353277306
481.9066519504463
482.1944023561752
482.49099920480455
482.79617490610593
483.1096767808933
483.4312455014295
483.76065024473013
484.09764938377936
484.442007791745
484.793513972642
485.15195136996795
485.51711997223475
485.8888337287197
486.26690053984237
486.6511392743851
487.0413680795086
487.43741669361094
487.8391168679425
488.24630590670876
488.65882587667755
489.07650740242315
489.49920145220426
489.92674987385124
490.35897991349674
490.7957202846152
491.2367996564654
491.68205436692017
492.1312967859729
492.58434249517467
493.0409981812098
493.5010539581873
493.9643041927521
494.43051369932795
494.8994407464813
495.3708270772792
495.8443923428596
496.3198550333239
496.7969097509941
497.2752374101664
497.75449804929656
498.234325705581
498.7143540986251
499.1941813362479
499.6733871710837
500.1515460783066
500.6282012550683
501.1028670759806
501.5750423090929
502.0442059528843
502.50982419027207
502.97133340564267
503.4281671914077
503.87972879114625
504.3253984853594
504.76456294027184
505.19657492391445
505.6207942043653
506.0365562266281
506.44317796001644
506.83997908178003
507.22626399190574
507.60133456600755
507.964485206612
508.31501991249405
508.6522434700246
508.9754593275503
509.2839717562098
509.57709447394785
509.8541484167602
510.11447042448725
510.35740662192484
510.5823256371637
510.7886099261337
510.97566676113695
511.1429504174787
511.28992125878716
511.4160703523352
511.5209130902571
511.6040000398422
511.66491900545515
511.70327944090656
511.71874021411907
511.7109979682712
511.67979081510765
511.62490402443507
511.5461624838439
511.44344492554103
511.3166674022788
511.1657905040561
510.9908218148987
510.7918137992386
510.56886824911214
510.3221382374619
510.0518254843058
509.7581931210512
509.44153244053757
509.1021929282526
508.7405772197062
508.3571384307877
507.9523841951381
507.52684783903413
507.08111840015044
506.61582677149937
506.13165148413657
505.6293223152503
505.1096154721616
504.57335583506614
504.02140176803897
503.45466712342704
502.8741327804107
502.28081497793704
501.6757911658349
501.06016068625183
500.43504221065433
499.8015988697424
499.16102134216027
498.5145388381403
497.8634186104968
497.2089673253919
496.55252350130377
495.89545398776085
495.23917853806455
494.5851262895764
493.93474416406445
493.28952210043957
492.6509719806243
492.0206390681741
491.4001024492955
490.7909802368559
490.19491547120424
489.61357320272845
489.0486444367678
488.5018238859562
487.9748248966642
487.46936807132397
486.9871630051348
486.52992682552787
486.09937382949687
485.69721359559793
485.3251555187381
484.98489584105687
484.6781090551944
484.40643662266604
484.1714971308941
483.97488324036703
483.8181255968317
483.70271756047197
483.6301178847753
483.6017207821798
483.61885661164007
483.6827746961251
483.7946521694629
483.95557201100723
484.16652715009724
484.42841806857285
484.7420152100803
485.10799564113364
485.5269076225913
485.999168111393
486.52506708844896
487.10474142105926
487.73819926316366
488.4252947471902
489.16571631795676
489.9589883115854
490.80446190847215
491.7013240960804
492.6485919639928
493.64509903413193
494.68950633421787
495.7802856416624
496.91574061667615
498.093987336557
499.31296635918466
500.57044243278284
501.8639829707672
503.19099849591976
504.54873601661666
505.93428227762564
507.34457012750704
508.77637925153715
510.2263642346152
511.69103541013294
513.1667886516423
514.6499076135651
516.1365733078983
517.6228831297806
519.1048596096656
520.5784708837309
522.0396410624853
523.484256818165
524.9081941092287
526.3073476835298
527.6776218314983
529.0149608940847
530.3153360711339
531.5748021311065
532.7894950088688
533.9556467368091
535.0696131475311
536.1278705983294
537.127060536689
538.0639876810884
538.9356394938621
539.7391873643251
540.4719908821157
541.1316180227019
541.7158725788789
542.2227963517332
542.6506722427092
542.9979947689736
543.263501620591
543.4461874774283
543.5453448668978
543.5605676556172
543.4917326463268
543.3390180834635
543.1028847273398
542.7840630265775
542.3835590099026
541.9026528488795
541.3429057298782
540.7061288852319
539.9944002750716
539.2100680391011
538.3557099407304
537.4341315667895
536.4483394200801
535.4015213661429
534.297034080009
533.1383821211974
531.9292171187367
530.6733266178094
529.3746153996956
528.0371100782888
526.6649260793591
525.2622697676139
523.8334122907933
522.3826547999032
520.9143198680108
519.4327142207637
517.942126228741
516.4468168809785
514.950991493274
513.4587914108123
511.9742619144408
510.5013776879377
509.04399934597075
507.60584385961016
506.19049924876515
504.8014008763459
503.44183072641005
502.1149024882186
500.82355010869725
499.5705262834214
498.35838895838543
497.1895089550942
496.06604605248947
494.98995228913356
493.96297860087765
492.98666080514835
492.06233080327877
491.1911023531578
490.37388388792084
489.6113946220556
488.90414243274904
488.25245297893724
487.6564580215682
487.11610196979746
486.63116222535126
486.2012439882841
485.82579317759394
485.50409429333433
485.235294779712
485.0184144549547
484.8523355686569
484.7358434358351
484.66761475255504
484.6462300557183
484.67019703589176
484.73793670438533
484.8478219566829
484.9981612142198
485.1872212645006
485.4132409094996
485.67443561483447
485.96901294694
486.2951723953726
486.6511113155833
487.0350368024422
487.44517042883234
487.87977221889474
488.337129327282
488.8155506224649
489.3133887854188
489.82903545904145
490.3609488574848
490.9076373026229
491.46766193919467
492.0396455078941
492.622252033499
493.2142227241665
493.81435676830233
494.4215158685877
495.0346174380136
495.6526427989606
496.2746430744731
496.8997385933997
497.52710942483316
498.15599022482525
498.7856650294912
499.4154994017789
500.0449229317377
500.6734163635248
501.3004960609214
501.92570646615144
502.5486403478895
503.1689125969667
503.78616856207003
504.4000921006967
505.0103893557931
505.61678974968714
506.2190421290449
506.8169062631094
507.41016167007376
507.9985810512938
508.58195160362516
509.1600635325979
509.73270755957793
510.29969681058583
510.8608413066808
511.4159736369528
511.96492291311966
512.5075089417763
513.0435629643956
513.572889621974
514.0952836512749
514.6105311833633
515.1183913501709
515.6186282935483
516.1109866012549
516.5952109486958
517.0710354480444
517.5381863061256
517.9963913702873
518.4453594638992
518.8848036518865
519.31441192186
519.7338701524546
520.1428656160354
520.5410709686914
520.9281631306835
521.303804959536
521.6676551579529
522.0193824015885
522.3586402277209
522.6850854789677
522.998376803972
523.2981798162922
523.5841636449013
523.8559887278032
524.1133359721866
524.3558901123187
524.5833385769246
524.7953811445049
524.9917043914576
525.1720259513204
525.3360666179142
525.4835488451578
525.6142104042412
525.7277959522452
525.824068277654
525.9028000351584
525.963776498654
526.0068025687523
526.0316812638995
526.0382491200061
526.0263525868991
525.9958551732051
525.9466425193136
525.8785967567509
525.7916363724722
525.6856838391916
525.5606879594584
525.4166223079496
525.2534683756548
525.0712291648829
524.8699207258389
524.649587629681
524.4102967289732
524.1521332720665
523.8752079254814
523.5796395498537
523.2655749402696
522.9331911794096
522.5826763270464
522.2142471736394
521.828138371741
521.4245980493015
521.0039007433056
520.5663361311357
520.1122328791988
519.6419322297095
519.1557965031888
518.6542087559359
518.1375746782239
517.6063245933176
517.0609067070862
516.5017868247253
515.9294412076614
515.3443689730839
514.7470937013956
514.1381541015264
513.5181077509604
512.887528318334
512.2470049215802
511.5971502856942
510.93857384387564
510.2719004880765
509.5977760455559
508.9168531652941
508.22979694746317
507.5372927652443
506.8400169484622
506.13866645087
505.43392930810774
504.7265140850753
504.0171268310517
503.3064765478047
502.59528948369285
501.8842709475505
501.17414139669575
500.4656045896692
499.75936814203607
499.0561444871504
498.3566278208249
497.6615147600748
496.971501093983
496.2872610955738
495.609477175682
494.9387973621362
494.2758713762945
493.62133418626235
492.9758094397164
492.33990195106696
491.7141922251785
491.09925285980313
490.4956343683608
489.90387517260086
489.324492009895
488.75797696195855
488.20480553161207
487.66542717794044
487.1402712794948
486.62974883684393
486.13422997747597
485.6540849284803
485.18965091684976
484.7412363828438
484.30911621322605
483.89353992213705
483.49474437343997
483.112931610111
482.74827513762585
482.4009329281708
482.0710255241281
481.75867128079494
481.4639429987802
481.1868856743866
480.9275386805442
480.6859124032414
480.46199352470126
480.25573708771833
480.06708477435035
479.8959680777966
479.7422789155259
479.60590589379143
479.486707040741
479.38450866382937
479.2991278948051
479.2303556680529
479.17798585217736
479.1417875987292
479.12151712087507
479.11692066344716
479.12773522159034
479.1536917241485
479.1945140625808
479.24992042570665
479.3196158486922
479.403293376398
479.5006482613885
479.61136585902193
479.7351336358879
479.87163994321793
480.0205617866979
480.1815898688527
480.35440770953824
480.53869908031584
480.73416853161064
480.9405162325609
481.1574588633285
481.3847088435942
481.6219796719747
481.86899753528246
482.12548213982694
482.3911754257683
482.66581985293675
482.9491695432265
483.2409925070142
483.5410620107665
483.8491631892857
484.16509510932497
484.4886619167536
484.81968359662426
485.1579848737007
485.5034015857317
485.85577151289726
486.2149580462753
486.58083036949097
486.9532523198957
487.3321015145033
487.7172621573216
488.1086045599848
488.5060212924476
488.9093998311432
489.31864562802565
489.73365709846684
490.1543311972443
490.5805711450613
491.0122633436474
491.44930458620865
491.8915745493282
492.33895630414366
492.79132618722167
493.2485436173749
493.7104693061586
494.17694856685665
494.647807711095
495.1228722889081
495.60193726370443
496.08480294794714
496.57124334303217
497.06101171132667
497.55384609330355
498.049455234496
498.5475417656301
499.0477817896061
499.5498287564057
500.0533085667959
500.5578189909209
501.06293788290685
501.5682206038471
502.0731997855917
502.577398529006
503.08029806790427
503.58136905320464
504.08004578289706
504.57573984918184
505.0678517846712
505.5557612181901
506.03882612496574
506.5163819764823
506.98773865431366
507.4522058578735
507.9090618239738
508.35758782774894
508.79704141338345
509.2266757546639
509.645743928023
510.0534703399561
510.44908313089076
510.83181152473514
511.2008900788412
511.5555543065555
511.89502517236065
512.2185569820928
512.5254023606078
512.8148299017565
513.0861464916843
513.3386609438296
513.5717154864188
513.7846690345124
513.9769023488084
514.1478362700726
514.2969126984214
514.4235993708322
514.5274007734527
514.6078556829877
514.6645476272922
514.6970846419342
514.70514219021
514.6884315933492
514.6467145400397
514.5798086676332
514.4875645636182
514.3698994562901
514.2267739132839
514.0582013440076
513.8642507702132
513.6450185459742
513.4006651417673
513.131392475661
512.8374626288326
512.5192013546123
512.1769733029361
511.81121200410803
511.4223906979605
511.01103908605427
510.5777383417084
510.12310950851094
509.6478281721044
509.1526216658314
508.63825758221503
508.1055586680468
507.5553806277934
506.9886381387651
506.406285173558
505.8093415503826
505.1988738987634
504.5759882542202
503.94183401707363
503.2975836607571
502.6444402897766
501.9836579130133
501.3165067315858
500.64429683364693
499.96836398924614
499.2900746290595
498.610841395146
497.93209256069014
497.2552958412726
496.5819358775189
495.91353078373163
495.25163302718835
494.59781275529923
493.95367399504994
493.32084231709024
492.7009767244648
492.0957667330441
491.50690579819997
490.93611300260136
490.38509999205206
489.8555813876074
489.3492782775938
488.8678995011967
488.41316425200404
487.9867696676215
487.5904127368719
487.22578153216256
486.8945422639959
486.5983394149831
486.33879126003757
486.1174808348406
485.9359488845779
485.7956666381799
485.69807813677755
485.64455938905064
485.6364189486133
485.6749026073491
485.76115848558675
485.8962608163943
486.0811921200651
486.3168342340019
486.60397689823503
486.94327169555334
487.3352646587532
487.780360955783
488.2788376615147
488.83084146297296
489.43636274212747
490.0952627099293
490.8072377311547
491.57181904795254
492.38837717120623
493.25610711664615
494.1740494260766
495.14105055060924
496.1557827725977
497.21674722645514
498.3222468744513
499.47042359591944
500.6592304781218
501.886439875233
503.1496675628335
504.4463453758353
505.77374731069887
507.1289925739586
508.5090431357872
509.91072189661975
511.33069676749125
512.7655445781173
514.2116957538369
515.6654739145034
517.1231077053567
518.5807235386739
520.03438928089
521.4800994555391
522.9138003262152
524.3314176676004
525.7288566909378
527.1020487545763
528.4469375937513
529.7595033154457
531.035771287394
532.2718230590455
533.46383126894
534.6080659492821
535.7009049128652
536.7388677263805
537.7186120147788
538.63696429966
539.4909326135888
540.2776986003296
540.9946587608856
541.6394054414995
542.2097656491944
542.7037858009082
543.1197608476382
543.4562046292535
543.711857215309
543.8857293610325
543.9771148885299
543.9856004161866
543.9110684119287
543.7536780796814
543.5138963723899
543.1924567742159
542.7903701061381
542.3089236688245
541.7496511993901
541.1143698571541
540.4051423869945
539.624291440987
538.7743871951542
537.8581950025504
536.8787007136895
535.8390778543393
534.7426666682601
533.5929557729995
532.3935618459507
531.1482492433302
529.8608938102554
528.5354919969693
527.1761413614346
525.787007944246
524.3723286207313
522.9363719216914
521.483427400701
520.0177773643692
518.5436705097421
517.0653261017567
515.5869076609837
514.1125121814192
512.6461531620848
511.19174431924677
509.75310834215315
508.33392535554583
506.93774782386777
505.56798376898195
504.22786801603485
502.92048264709916
501.64872170543174
500.41529637453357
499.2227260336611
498.0733172246336
496.9692006329072
495.9122995663253
494.90433930882807
493.94683587076224
493.0410791308877
492.18816489105774
491.3889752164324
490.64419692488633
489.95431925946946
489.31963014301004
488.7402393104171
488.21606710459156
487.7468689928873
487.3322411984828
486.9716072395356
486.66425741831097
486.4093230527132
486.2058099492342
486.0526168139937
485.94851675726125
485.89219366746664
485.8822350327579
485.9171509606525
485.99539098966306
486.1153281492933
486.27530413975455
486.47359738854834
486.7084541021648
486.97811458138256
487.2807976517161
487.6147331121108
487.9781435042906
488.36926695667375
488.7863774086966
489.2277585754553
489.6917320221353
490.17664276109457
490.68087460342724
491.2028626289776
491.74108764668205
492.2940876963426
492.86045805024037
493.4388528470117
494.02799741813027
494.6266543397115
495.2336587946097
495.8479097005233
496.4683517916237
497.0940142782783
497.72396401357213
498.35734605847784
498.9933541679633
499.63124940121867
500.27035247813984
500.9100387864402
501.54975803834446
502.1890147046807
502.8273417682031
503.464311123307
504.0995147966789
504.7325761639651
505.3631318330096
505.99085891250877
506.615460670643
507.2366542103516
507.8541908530216
508.4678216196911
509.0773105885009
509.68242829233174
510.2829249898751
510.87858264020684
511.4691797202727
512.0544958543898
512.6343213709057
513.2084435671784
513.776673110309
514.338801109427
514.8946156803656
515.4438923101493
515.9863886337677
516.521859068168
517.0500389625813
517.5706485689202
518.0834037380428
518.5880006088476
519.0841400148737
519.5715150216511
520.0498163849952
520.5187251474616
520.9779053503224
521.4270207792448
521.865720897272
522.2936574739128
522.7104728371417
523.1157967456621
523.5092716732822
523.8905321676
524.2592104858587
524.614946482183
524.9573778298117
525.2861567258366
525.6009226725704
525.90132084293
526.186998353729
526.4576004251556
526.7127972055533
526.9522581705108
527.1756592756018
527.382692131989
527.5730536222927
527.7464553880142
527.902613459691
528.0412596507216
528.162137619325
528.2649944868555
528.3495987408734
528.415725249497
528.4631775484355
528.49178419975
528.5013690251384
528.4917737323598
528.4628539733864
528.4144885145331
528.3465687989885
528.2589926708454
528.1516909006046
528.0246078447099
527.8777018262703
527.7109719504208
527.5244105620696
527.3180473785526
527.0919169768869
526.8460853840174
526.5806416898324
526.2956764117098
525.9913165216713
525.6677080359049
525.3250206026592
524.9634477829321
524.5831984979568
524.1845080847597
523.7676340513009
523.3328583093949
522.8804761922173
522.4107983590025
521.9241723949397
521.4209651786389
520.9015582269768
520.3663759544959
519.8158374498768
519.250400039136
518.6705392945182
518.0767554402511
517.4695666735519
516.8494934311453
516.2170972004718
515.5729516009139
514.9176308150079
514.251741425286
513.5758995468408
512.8907431072971
512.1969354666551
511.4951495881351
510.7860674718966
510.07037924195043
509.3487931265005
508.62201471384776
507.89075878611027
507.15576101309847
506.41775256007537
505.6774896513932
504.9357175110366
504.19318001902855
503.4506335666026
502.70882597918484
501.96852374992386
501.2304692420807
500.4954078407231
499.7640887910283
499.03724644144665
498.3156121690915
497.59990428405257
496.89082883513873
496.1890892328202
495.49536749981365
494.8103406541219
494.134666494057
493.46898239938105
492.81391277740795
492.1700568642927
491.5380074052259
490.918325729764
490.31155393215545
489.7182116513771
489.13878640386366
488.5737524290671
488.02355669048325
487.48862031680693
486.9693468820047
486.4660913819805
485.97919025579716
485.508945344769
485.05564080258955
484.6195296057363
484.2008268080276
483.7997290824244
483.4163992398183
483.05096838274017
482.70354912957106
482.37420729978703
482.06299270210525
481.769928528216
481.49500982177983
481.23820421170194
480.9994460595565
480.77865475067193
480.5757225790782
480.3905159344557
480.22288074220245
480.0726192872253
479.9395304593349
479.8233933801544
479.72396213462514
479.64098000882854
479.5741653947235
479.52322848136464
479.4878615949429
479.46773823837503
479.46252967650963
479.4718798391495
479.49544365350107
479.53284887261464
479.5837365849089
479.64773843194433
479.7244736177691
479.81357216772307
479.9146544182871
480.0273432092747
480.15126730115384
480.2860539723753
480.43133694657524
480.58675766714026
480.7519622025157
480.92660238120953
481.11033906447847
481.30284984025656
481.5038257200249
481.7129634980891
481.92997555140647
482.1545730225201
482.3864970193044
482.62549519599827
482.8713220811138
483.12375877308466
483.3825867092142
483.6476249005641
483.91869045668557
484.19562237354774
484.4782923036898
484.76657177641886
485.0603473629275
485.3595202887751
485.6639903953952
485.9736857611086
486.28854211016574
486.6085085373273
