536.9999999999999
537.3573289994066
537.7138333414212
538.0686893671684
538.4210754136765
538.7701728090047
539.115166863991
539.4552478594856
539.7896120279479
540.1174625282849
540.4380104128365
540.7504755854977
541.0540877499258
541.3480873467033
541.6317264783753
541.9042698213586
542.1649955237303
542.4131960879095
542.6481792372946
542.8692687659732
543.0758053705723
543.2671474633424
543.442671965603
543.6017750807138
543.7438730457537
543.8684028611137
543.9748229972098
544.062614077496
544.1312795369485
544.1803462552214
544.2093651637348
544.2179118259976
544.2055869905466
544.1720171158898
544.1168548668439
544.039779581632
543.9404977091158
543.8187432155975
543.6742779606427
543.5068920413752
543.3164041047253
543.1026616271461
542.8655411612966
542.6049485492043
542.3208191014745
542.0131177421415
541.6818391188052
541.3270076777369
540.9486777035751
540.5469333232106
540.1218884734774
539.6736868323658
539.2025017135386
538.7085359239472
538.1920215843687
537.6532199127572
537.0924209703398
536.5099433704339
535.9061339499469
535.2813674035475
534.6360458805259
533.9705985444268
533.2854810956202
532.5811752570431
531.8581882233918
531.1170520741106
530.3583231506302
529.5825813983859
528.7904296741631
527.9824930194198
527.1594179002843
526.3218714150233
525.4705404698348
524.606130923881
523.7293667045684
522.8409888941803
521.9417547890397
521.0324369324413
520.1138221226091
519.1867103969989
518.2519139943033
517.3102562955844
516.3625707460454
515.4096997590796
514.4524936042957
513.4918092812369
512.5285093805699
511.5634609345997
510.59753425900425
509.63160178771454
508.6665369028859
507.7032127619091
506.74250112345175
505.78527117454996
504.8323883607753
503.88471322147393
502.9431002320817
502.00839665554815
501.081441404893
500.1630639188558
499.2540830525312
498.3553059848377
497.467527144647
496.59152715736025
495.72807181363845
494.8779110618961
494.0417780261289
493.2203880506742
492.4144377734376
491.62460422895333
490.8515439825664
490.0958922969904
489.3582623324439
488.63924438147905
487.93940513951287
487.25928701196955
486.59940745884876
485.9602583774516
485.3423055238881
484.74598797385875
484.17171762309624
483.6198787277972
483.09082748525867
482.58489165480285
482.10237021899104
481.6435330850464
481.2086208263523
480.7978444638703
480.4113852873039
480.0493947157992
479.7119941978819
479.39927515022333
479.1112989347646
478.84809687369346
478.6096703017247
478.39599065511453
478.20699959677336
478.04260917677755
477.90270202756324
477.787131593075
477.6957223911523
477.6282703084384
477.58454292708734
477.56427988260344
477.5671932522062
477.5929679730074
477.64126228923163
477.7117082277974
477.8039121016213
477.9174550400306
478.0518935456673
478.20676007729105
478.381563657883
478.57579050748984
478.78890470026903
479.02034884522897
479.2695447901833
479.5358943484855
479.8187800480941
480.11756590250326
480.4315982030558
480.7602063321398
481.1027035967513
481.4583880819362
481.8265435236121
482.20644020024747
482.59733584287613
482.9984765629006
483.409097797086
483.828425269141
484.2556759672628
484.6900591369479
485.13077728824265
485.57702721650065
486.02800103564095
486.4828872227848
486.94087167305617
487.4011387633384
487.8628724237628
488.32525721565565
488.78747941464655
489.2487280976332
489.7081962322714
490.165081767617
490.61858872452666
491.0679282844085
491.51231987491036
491.9509922511545
492.3831845711769
492.8081474642831
493.22514409100563
493.6334511934169
494.03236013469575
494.42117792698537
494.7992282466378
495.1658524359034
495.52041048995676
495.86228202801095
496.1908672472381
496.5055878582321
496.805888000758
497.0912351385682
497.36112093206674
497.61506208756396
497.8526011818633
498.07330746089144
498.27677761107134
498.4626365021545
498.63053790028147
498.7801651501561
498.91123182536404
499.0234823460084
499.1166925629367
499.1906703078568
499.24525590869877
499.2803226697161
499.2957773158709
499.29156040102873
499.26764667947526
499.224045440226
499.1608008035303
499.07799197886646
498.9757334836126
498.85417532149773
498.7135031199357
498.55393822532994
498.37573775539744
498.1791946075266
497.96463742215025
497.7324305000368
497.48297367229264
497.21670212177185
496.9340861544582
496.63563091923265
496.3218760743854
495.99339539912046
495.6507963481832
495.2947195476738
494.92583823006464
494.5448576063556
494.15251417327084
493.74957495337645
493.3368366660244
492.91512482707327
492.48529277536636
492.04822062399484
491.60481413445405
491.15600351186714
490.7027421196295
490.24600511202334
489.78678798357953
489.3261050341855
488.86498774914145
488.40448309363137
487.9456517214197
487.48956609798825
487.0373085387212
486.5899691630892
486.14864376616623
485.7144316092773
485.28843313200315
484.87174758820373
484.4654706092237
484.0706916979415
483.68849165790436
483.31993996233894
482.96609206835444
482.62798668220944
482.3066429820988
482.00305780551844
481.71820280885237
481.45302160735974
481.2084269042584
480.98529761812233
480.78447601827645
480.6067648783403
480.45292465852145
480.323670727588
480.2196706357243
480.14154144977994
480.08984716276046
480.06509618965987
480.0677389618376
480.0981656321634
480.1567039031949
480.2436169906137
480.3591017340737
480.5032868674579
480.676231460231
480.8779235412313
481.1082789158619
481.36714018717953
481.65427599083944
481.9693804531766
482.3120728809859
482.6818976908422
483.0783245849807
483.5007489798215
483.9484926922498
484.4208048877328
484.91686329326956
485.4357756770297
485.97658159537286
486.5382544066884
487.1197035501951
487.7197770865683
488.3372644959671
488.9708997277328
489.6193644946998
490.28129180380756
490.95526971343463
491.63984530664635
492.33352886832
493.0347982529138
493.74210342846965
494.453871181301
495.1685099647456
495.88441487440383
496.5999727313709
497.31356725412115
498.02358429899397
498.72841714869213
499.42647182774823
500.1161724235195
500.79596639100725
501.46432981967223
502.11977264038876
502.76084375065244
503.38613603626425
503.9942912679552
504.5840048517098
505.154030411897
505.7031841868319
506.23034921708785
506.7344793077013
507.21460274630124
507.66982576013163
508.0993356959472
508.50240390778407
508.87838833876935
509.22673578445324
509.5469838264871
509.83876242673955
510.10179517327055
510.33590017104126
510.5409905719093
510.71707474044246
510.8642560541806
510.9827323389516
511.0727949416969
511.1348274449818
511.1693040289902
511.17678748857423
511.1579269147867
511.1134550520493
511.04418534367335
510.95100867998065
510.8348898647484
510.69686381699046
510.5380315261955
510.3595557801154
510.1626566850234
509.94860699912704
509.71872730053343
509.474381011706
509.2169693027025
508.9479258957989
508.6687117944344
508.3808099596622
508.0857199574202
507.7849525999584
507.48002460469905
507.17245329360384
506.86375135574144
506.5554216951576
506.24895238543144
505.9458117514459
505.6474435979827
505.35526260375906
505.0706498984865
504.7949488393995
504.5294610025456
504.27544240292764
504.0340999562913
503.8065881939458
503.5940062406367
503.3973950640637
503.21773500309916
503.0559435802404
502.9128736023641
502.78931155235955
502.68597627274676
502.6035179408904
502.54251733390345
502.5034853799015
502.48686299092077
502.4930211715391
502.52226139596377
502.5748162450487
502.6508502935631
502.75046123695864
502.87368124590677
503.0204785360437
503.1907591395522
503.38436886447107
503.6010954269955
503.8406707415007
504.1027733526174
504.3870309933853
504.69302325331904
505.02028434016097
505.3683059190949
505.73654001324235
506.1244019493914
506.53127333310977
506.95650503775045
507.3994201923445
507.85931715388966
508.33547245010334
508.82714367928355
509.3335723545363
509.85398668041677
510.38760425086116
510.9336346580844
511.4912820029869
512.0597472984726
512.6382307579731
513.2259339624821
513.822061900415
514.4258248755123
515.0364402788903
515.6531342222587
516.2751430303088
516.9017145912128
517.5321095650164
518.1656024505518
518.8014825123116
519.4390545694959
520.0776396502055
520.7165755144716
521.3552170504246
521.9929365484317
522.6291238585972
523.2631864375146
523.8945492905733
524.5226548164629
525.1469625608787
525.7669488867043
526.3821065681472
526.9919443164467
527.5959862448753
528.1937712808109
528.7848525326652
529.3687966194559
529.9451829707702
530.5136031047073
531.0736598911626
531.6249668075897
532.1671471941719
532.6998335150571
533.2226666319347
533.7352950958362
534.2373744627059
534.7285666379125
535.2085392544843
535.6769650894091
536.1335215219535
536.5778900375645
537.009755780493
537.4288071578294
537.8347354971417
538.2272347593422
538.6060013079515
538.9707337355452
539.3211327477526
539.6569011047503
539.9777436197959
540.2833672139749
540.5734810259873
540.8477965754641
541.1060279780789
541.3478922104937
541.5731094229293
541.7814032968993
541.9725014454358
542.1461358529534
542.3020433517781
542.4399661322639
542.5596522834155
542.6608563609512
542.7433399797026
542.8068724272925
542.8512312961376
542.8762031308811
542.881584088449
542.8671806080015
542.832810088025
542.778301567668
542.7034964092725
542.6082489790491
542.4924273229655
542.3559138350777
542.1986059155525
542.0204166155038
541.8212752657928
541.601128087144
541.3599387790266
541.097689084822
540.8143793309926
540.5100289381222
540.1846769018442
539.8383822418451
539.4712244173525
539.0833037077595
538.6747415572885
538.2456808828309
537.7962863442768
537.3267445767085
536.8372643839014
536.3280768926339
535.7994356673864
535.2516167850961
534.6849188697134
534.0996630863119
533.4961930945427
532.8748749613954
532.2360970333804
531.580269768369
530.9078255273386
530.2192183263231
529.514923548973
528.7954376201509
528.0612776408896
527.3129809850878
526.551104858423
525.7762258199599
524.9889392669533
524.1898588834373
523.3796160532455
522.5588592381355
521.7282533217477
520.8884789201718
520.0402316599398
519.1842214243617
518.3211715691862
517.4518181086247
516.5769088727837
515.6972026376213
514.8134682286438
513.9264835996227
513.0370348876411
512.145915445799
511.2539248549197
510.36186791570987
509.470553622895
508.5807941228859
507.6934036565368
506.8091974885573
505.9289908251694
505.05359772162643
504.18382998120893
503.3204960473055
502.4643998902615
501.6163398907962
500.77710772185446
499.9474872307171
499.1282533231579
498.32017085140967
497.5239935077118
496.7404627252913
495.9703065886912
495.21423875531434
494.47295738999094
493.7471441144015
493.0374629731875
492.34455941858477
491.66905931539543
491.0115679680252
490.372669171272
489.75292428655916
489.1528713452273
488.5730241804597
488.01387158941156
487.4758765270948
486.95947533352154
486.4650769955506
485.99306244481977
485.5437838931087
485.1175642063957
484.71469631875976
484.33544268725825
483.98003478888046
483.6486726606406
483.34152448380263
483.0587262132219
482.80038125275695
482.566560177595
482.357300504282
482.17260650918945
482.0124490961027
481.8767657135551
481.7654603224725
481.67840341462744
481.6154320822694
481.57635013925074
481.5609282939319
481.56890437408845
481.5999836039502
481.65383893338156
481.7301114191352
481.828410658081
481.9483152722852
482.08937344569046
482.25110351201295
482.4329945934283
482.63450728958367
482.85507441636344
483.0941017936635
483.3509690812915
483.62503066204937
483.9156165709949
484.2220334698587
484.54356566550257
484.87947617116475
485.22900780914733
485.59138435353094
485.9658117113798
486.3514791407673
486.74756050382837
487.1532155529272
487.5675912478594
487.98982310190405
488.41903655448755
488.85434836809804
489.29486804699894
489.73969927524405
490.1879413714525
490.6386907577504
491.0910424402667
491.5440914985436
491.99693458117815
492.4486714049301
492.8984062545047
493.34524948026495
493.78831899120416
494.2267417405348
494.65965520122114
495.08620882884304
495.50556550931293
495.9169029891194
496.31941528590954
496.71231407730426
497.09483006589056
497.466214318386
497.8257395768968
498.17270154010566
498.50642011227245
498.8262406180335
499.1315349810025
499.4217028642023
499.6961727704338
499.9544031008165
500.19588316977
500.42013417467683
500.6267101184883
500.8151986836725
500.98522205608083
501.1364376975501
501.26853906628594
501.3812562842332
501.4743567507502
501.5476457019587
501.6009667152284
501.63420215843377
501.6472735837313
501.6401420655914
501.6128084827441
501.56531374367654
501.497738955354
501.4102055348421
501.3028752634104
501.17595028272916
501.029673032893
500.86432613205034
500.68023219739405
500.4777536072473
500.2572922038924
500.0192889367046
499.76422344511764
499.4926135808732
499.20501486891243
498.9020199061576
498.58425769734936
498.25239292703225
497.9071251667049
497.54918801611046
497.17934817761744
496.7984044626333
496.40718672897503
496.0065547480891
495.597397001074
495.1806294025353
494.7571939513495
494.3280573073985
493.89420929342293
493.4566613212588
493.01644474192113
492.5746091192322
492.1322204269015
491.6903591691518
491.2501184252707
490.8126018187598
490.37892141200984
489.95019552769304
489.52754649839335
489.1120983464374
488.70497439630526
488.30729482242106
487.9201741355357
487.5447186113187
487.1820236651796
486.8331711778314
486.49922677664335
486.1812370783465
485.8802268991888
485.5971964391607
485.3331184474064
485.0889353764192
484.865556533071
484.6638552350027
484.4846659814239
484.3287816477924
484.196950714188
484.08987453756384
484.00820467845807
483.95254029307137
483.92342560183494
483.92134744579874
483.9467329423909
483.9999472522473
484.0812914688951
484.1910006430706
484.32924195333914
484.49611303453065
484.6916404752522
484.9157784954851
485.1684078149732
485.4493347226645
485.7582903569176
486.09493020559563
486.4588338345441
486.8495048522388
487.2663711176044
487.7087851972099
488.17602507708267
488.66729513340425
489.18172736535826
489.71838289236786
490.27625371684724
490.8542647524457
491.4512761165355
492.06608568442505
492.69743190153923
493.3439968485754
494.00440955333517
494.67724954161065
495.3610506182297
496.0543048681631
496.75546686641405
497.46295808416437
498.1751714774638
498.89047624361694
499.60722272934686
500.3237474737847
501.03837836833844
501.7494399145332
502.4552585600984
503.1541680929591
503.84451507223673
504.5246642749027
505.19300413641815
505.84795216343207
506.48796029642654
507.11152020020467
507.7171684601803
508.303491662504
508.8691313362855
509.4127887365328
509.9332294468422
510.4292877814188
510.89987096673724
511.3439630839425
511.76062875394854
512.1490165481714
512.5083621088907
512.8379909643439
513.1373210248688
513.4058647477257
513.6432309595682
513.849126326873
514.0233564659775
514.1658266859042
514.2765423589672
514.3556089160811
514.4032314657046
514.4197140373076
514.4054584520449
514.3609628250467
514.286819705511
514.1837138626488
514.0524197273531
513.8937985011142
513.7087949453679
513.498433866066
513.2638163097525
513.0061154886808
512.7265724536582
512.4264915342673
512.1072355669364
511.7702209320842
511.416912422282
511.04881796400457
510.6674832160058
510.2744860677251
509.8714310614347
509.4599437620852
509.04166509898164
508.6182457034908
508.1913402669011
507.7626019423406
507.3336768142971
506.90619845870134
506.4817826158009
506.06202199719047
505.6484812473721
505.24269207923675
504.84614860188094
504.46030285803874
504.08656058715775
503.72627722886745
503.3807541802525
503.0512353189877
502.738903802986
502.4448791557233
502.1702146448855
501.91589496044304
501.6828341966591
501.4718741409344
501.28378287085434
501.1192536592769
500.97890418578703
500.86327605135153
500.7728345916023
500.7079689828553
500.668992633653
500.6561438533353
500.6695867879131
500.70941261234503
500.7756409673319
500.8682216278318
500.98703638960336
501.13190115926403
501.30256823270065
501.4987287461113
501.7200152835044
501.966004624077
502.2362206125941
502.5301371357147
502.8471811871798
503.18673600485454
503.5481442627847
503.93071130161655
504.33370838098614
504.75637593786905
505.1979268353198
505.65754958653645
506.13441153985104
506.6276620109778
507.1364353496353
507.6598539284512
508.1970310428841
508.74707371175896
509.3090853689084
509.8821684373567
510.4654267783711
511.0579680086779
511.6589056801748
512.267361317454
512.8824663093883
513.5033636519936
514.1292095406334
514.7591748105232
515.3924462253873
516.0282276150084
516.6657408632963
517.3042267492939
517.9429456442339
518.581178068484
519.2182251129173
519.853408729879
520.486071899461
521.1155786772905
521.7413141305182
522.3626841690699
522.9791152795634
523.5900541695642
524.1949673300599
524.7933405241689
525.3846782101547
525.9685029068521
526.5443545096351
527.1117895650796
527.6703805124221
528.2197148997706
528.7593945828152
529.2890349135502
529.8082639262518
530.3167215276973
530.8140586982578
531.2999367101453
531.7740263686861
532.2360072820718
532.685567164635
533.1224011782399
533.5462113159408
533.9567058316788
534.353598719395
534.7366092444958
535.1054615301409
535.4598842003088
535.7996100810628
536.1243759609824
536.4339224112957
536.7279936657864
537.006337560122
537.2687055299343
537.5148526666565
537.7445378298208
537.9575238141881
538.1535775697778
538.3324704725709
538.4939786434674
538.6378833129353
538.7639712286432
538.8720351031313
538.9618740984367
539.0332943445151
539.0861094882731
539.1201412699869
539.1352201238858
539.1311857997465
539.1078880023582
539.0651870456528
539.0029545182233
538.9210739568061
538.8194415241882
538.6979666880156
538.5565728971006
538.3951982519037
538.213796165883
538.0123360144216
537.7908037680894
537.5492026070272
537.2875535133118
537.005895838266
536.7042878418306
536.3828072012802
536.0415514867858
535.6806386015863
535.3002071848159
534.9004169752369
534.481449134394
534.0435065279258
533.586813963935
533.1116183874225
532.6181890299509
532.1068175138421
531.5778179102978
531.0315267508147
530.4683029913285
529.8885279286502
529.2926050688932
528.6809599477314
528.0540399024552
527.4123137959687
526.7562716930274
526.0864244891457
525.4033034927013
524.7074599608753
523.9994645901592
523.2799069622332
522.5493949461295
521.8085540576128
521.0580267767803
520.2984718250048
519.530563402413
518.7549903872377
517.9724554984921
517.1836744234809
516.3893749117555
515.5902958371349
514.787186229433
513.9808042775741
513.1719163058492
512.3612957250923
511.5497219606554
510.7379793591274
509.92685607582223
509.11714294507954
508.30963233543406
507.5051169917473
506.7043888664543
505.90823794212815
505.11745104758825
504.3328106697465
503.5550937634092
502.7850705613057
502.0235033866671
501.2711454706406
500.5287397767839
499.79701783485825
499.0766985861553
498.3684872426081
497.67307416189874
496.99113374075034
496.323323328556
495.67028216342084
495.03263033266205
494.41096775974944
493.8058732195789
493.217903383872
492.6475918984519
492.0954484941185
491.5619581327499
491.04758019019124
490.55274767742486
490.07786650140764
489.62331476686444
489.18944212024917
488.77656913704584
488.3849867535839
488.014955744499
487.66670624693387
487.34043733250434
487.03631662789076
486.7544799847986
486.4950311999882
486.25804178600646
486.0435507932017
485.8515646834924
485.6820572562577
485.53496962663064
485.410210256428
485.3076550378486
485.2271474299843
485.16849864805886
485.1314879052235
485.1158627067133
485.1213391961644
485.14760255380656
485.194307446135
485.261078526563
485.34751098642863
485.45317115562847
485.5775971521284
485.72029957957403
485.88076227211303
486.05844308539474
486.2527747325996
486.46316566435235
486.6890009913593
486.92964344852606
487.1844343992481
487.45269487859923
487.7337266741158
488.02681344275356
488.331221862429
488.6462028163851
488.9709926084724
489.30481420735725
489.64687851763733
489.99638567575323
490.35252636848116
490.7144831717771
491.08143190768834
491.4525430169583
491.8269829448991
492.2039155380944
492.58250344953814
492.9619095498663
493.3412983423108
493.7198373789718
494.0966986760045
494.471060125377
494.8421069010078
495.20903285719055
495.5710419172506
495.92734945049426
496.2771836356548
496.61978680916326
496.9544167966585
497.2803482261135
497.59687382078687
497.9033056701444
498.1989764769723
498.48324077907955
498.7554761440395
499.0150843353664
499.26149244843936
499.4941540144182
499.7125500703718
499.9161901939001
500.1046135005962
500.27738960280647
500.43411952832764
500.57443659779557
500.69800725961636
500.80453188140825
500.89374549702234
500.9654185082893
501.01935734070196
501.05540505224513
501.07344189463953
501.0733858263129
501.05519297640615
501.0188580590125
500.9644147367081
500.89193593234336
500.8015340880752
500.6933613706436
500.56760982190866
500.42451145363833
500.2643382854501
500.08740232478624
499.894055487779
499.68468945975627
499.4597354939356
499.2196641467262
498.9649849479901
498.6962460045812
498.41403353537345
498.1189713358868
497.8117201705789
497.49297709084095
497.1634746766921
496.82398020015245
496.47529470824634
496.11825202357613
495.75371766043946
495.3825876544898
495.0057873041247
494.6242698220202
494.2390148953719
493.85102715353895
493.46133454201026
493.0709866018549
492.68105265406115
492.2926198883757
491.90679135652226
491.5246838700431
491.147425803466
490.77615480394047
490.4120154088739
490.05615657353144
489.70972911110715
489.37388304826914
489.0497648996893
488.73851486558465
488.4412639568571
488.15913105297574
487.89321989834554
487.64461604351453
487.4143837381814
487.2035627835894
487.0131653524676
486.84417278525456
486.6975323719212
486.5741541292153
486.4749075836464
486.4006185710766
486.3520660643059
486.3299790405017
486.3350334007057
486.3678489540563
486.4289864797459
486.5189448799968
486.638158437508
486.7869941909562
486.96574944223386
487.17464940906393
487.4138450365026
487.6834109806853
487.9833437779336
488.31356021203123
488.67389589218163
489.0641040537145
489.4838545930562
489.93273334782754
490.41024163214394
490.91579603639553
491.44872850000166
492.0082866646884
492.59363451474746
493.2038533096663
493.83794281349185
494.49482282415937
495.1733350047791
495.87224501751086
496.5902449592722
497.3259560971964
498.0779319003471
498.84466136271766
499.6245726110951
500.4160367899288
501.2173722138342
502.0268487769197
502.8426926067943
503.66309094980227
504.4861972726976
505.3101365646217
506.13301082198274
506.95290469769907
507.76789129511604
508.5760380857897
509.37541292936163
510.1640901729358
510.9401568066928
511.70171865193305
512.4469065573215
513.1738825787693
513.8808461181162
514.5660399956629
515.227756431582
515.8643429112904
516.4742079100766
517.0558264526793
517.6077454838919
518.1285890267803
518.6170631057946
519.0719604128776
519.4921646956716
519.8766548480435
520.2245086842422
520.5349063791392
520.807133558185
521.0405840221852
521.2347620935678
521.3892845722274
521.5038822905369
521.5784012587658
521.6128033940055
521.6071668277503
521.561685789522
521.4766700660629
521.3525440375612
521.1898452942506
520.9892228386973
520.7514348811559
520.4773462374645
520.1679253410088
519.8242408822117
519.447458090771
519.0388346775381
518.5997164544053
518.1315326518568
517.6357909550316
517.1140722802975
516.5680253152839
515.9993608461745
515.4098458968191
514.8012977048775
514.175577560768
513.5345845355521
512.8802491241782
512.2145268307901
511.5393917230258
510.8568299822722
510.1688334767735
509.47739338419916
508.78449388973075
508.0921059849755
507.4021813922382
506.71664663785657
506.03739729731404
505.36629243364337
504.7051492494169
504.0557379714487
503.4197769860606
502.7989282413002
502.1947929309771
501.6089074738961
501.04273980008526
500.4976859541488
499.97506702424613
499.4761264034756
499.00202738872116
498.5538511203693
498.13259486467035
497.73917063885614
497.374404177457
497.039034236558
496.73371223109604
496.45900219880605
496.2153810830421
496.0032393252744
495.82288175670703
495.6745287772525
495.558317809072
495.47430501091605
495.4224672385349
495.40270423549856
495.4148410379915
495.4586305765788
495.5337564574416
495.63983590515517
495.7764228487894
495.9430111329129
496.13903783493134
496.3638866702596
496.61689146700087
496.89733969204406
497.2044760107989
497.537505863139
497.89559903856986
498.27789323427317
498.6834975803487
499.1114961172233
499.560951211024
500.0309068936282
500.52039211500806
501.0284238964078
501.5540103738417
502.0961537223753
502.65385295263167
503.22610657191274
503.8119151032889
504.4102834571191
505.0202231505487
505.64075437148546
506.2709078845524
506.90972677757907
507.5562680481656
508.2096040307606
508.8688236655507
509.53303361125165
510.20135920466913
510.8729452706376
511.54695678669106
512.2225794075708
512.8990198553206
513.5755061812201
514.2512879062763
514.9256360474857
515.5978430373845
516.2672225446014
516.9331092033229
517.5948582597433
518.2518451437263
518.9034649739873
519.5491320051161
520.1882790247313
520.8203567090324
521.4448329448858
522.0611921264797
522.6689344343938
523.2675751046506
523.8566436949535
524.4356833549439
525.0042501069688
525.5619121435085
526.1082491469638
526.6428516370793
527.1653203508669
527.6752656595128
528.1723070262459
528.6560725087031
529.126198308829
529.5823283728259
530.0241140431883
530.4512137644062
530.8632928434483
531.2600232657037
531.6410835666665
532.0061587592339
532.354940316079
532.6871262061669
533.0024209842758
533.3005359321581
533.5811892496035
533.8441062933624
534.0890198616432
534.3156705216453
534.5238069774025
534.7131864751423
534.8835752433872
535.0347489649242
535.1664932776274
535.2786043011272
535.3708891864244
535.4431666855334
535.4952677381402
535.5270360721759
535.5383288151019
535.5290171126081
535.4989867514486
535.4481387832308
535.3763901459439
535.28367428002
535.1699417357258
535.0351607686732
534.8793179202701
534.7024185800153
534.5044875266798
534.2855694455455
534.0457294190289
533.7850533882311
533.5036485831911
533.2016439198289
532.8791903617697
532.5364612454448
532.1736525670336
531.7909832299279
531.388695251609
530.9670539289875
530.5263479612962
530.0668895296551
529.5890143324834
529.0930815760398
528.5794739194027
528.0485973733462
527.5008811527457
526.9367774822543
526.3567613550648
525.7613302446716
525.1510037697213
524.526323312176
523.887851589045
523.2361721780197
522.5718889974696
521.8956257413464
521.2080252695415
520.5097489543374
519.8014759836639
519.0839026219402
518.3577414293802
517.6237204407479
516.8825823045363
516.1350833835697
515.3819928181354
514.6240915528886
513.8621713289153
513.0970336424314
512.329488671654
511.5603541734045
510.7904543511104
510.0206186960138
509.2516808034686
508.4844771662244
507.71984594664275
506.95862572987346
506.20165426012403
505.4497671622336
504.70379665079605
503.96457022916104
503.23290938070886
502.5096282548171
501.7955323500278
501.09141719699863
500.39806704385455
499.7162535465572
499.0467344668905
498.39025238068507
497.7475333989516
497.11928590460707
496.50619930740675
495.9089428197455
495.32816425604676
494.76448885841194
494.21851815112717
493.69082882654976
493.1819716648326
492.69247048992696
492.2228211642933
491.7734906246761
491.34491596127594
490.9375035426727
490.5516281887402
490.1876323936739
489.84582560122914
489.52648353416197
489.2298475797301
488.95612423302543
488.7054845998048
488.47806396037635
488.27396139601603
488.0932394793182
487.935924029744
487.8020039354602
487.69143104237367
487.60412011111043
487.5399488425597
487.4987579724467
487.4803514352421
487.48449659759996
487.51092456142095
487.55933053648823
487.6293742825044
487.7206806202369
487.8328400113069
487.96540920594725
488.11791195786844
488.2898398051988
488.4806529163344
488.68978099931184
488.91662427314566
489.1605544994871
489.4209160728178
489.69702716727824
489.98818093810166
490.2936467754755
490.61267160850934
490.94448125684164
491.2882818272331
491.6432611523215
492.0085902685868
492.38342493047975
492.76690715759736
493.15816681175687
493.55632320070515
493.96048670511976
494.36976042551845
494.78324184565116
495.2000245089041
495.619199704262
496.03985815841116
496.4610917306137
496.8819951069657
497.3016674907054
497.7192142853978
498.1337487679195
498.5443937482325
498.9502832131524
499.3505639516111
499.74439715903304
500.130960018374
500.5094472552906
500.87907266490964
501.23907060773644
501.5886974723154
501.92723310239
502.25398218646257
502.5682756076838
502.86947175200294
503.15695777256235
503.430150808325
503.68849915493456
503.93148338596944
504.15861742290286
504.3694495522348
504.56356338843705
504.74057878150296
504.90015266807586
505.04197986525804
505.16579380633794
505.2713672178503
505.3585127375011
505.4270834724996
505.4769734978522
505.50811829413334
505.5204951241573
505.5141233479449
505.4890646754084
505.44542335613454
505.38334630561883
505.3030231673524
505.20468631017764
505.0886107602521
504.9551140668859
504.80455610146765
504.63733878857073
504.4539057681953
504.2547419880216
504.04037322446493
503.8113655312507
503.56832461413103
503.31189513030534
503.04275991112667
502.7616391066158
502.4692892502044
502.16650224213026
501.8541042499491
501.5329545246906
501.20394413124774
500.8679945916535
500.52605643992894
500.17910768730815
499.8281521968627
499.47421796676514
499.1183553216225
498.76163501153235
498.4051462187692
498.04999447225777
497.6972994703064
497.34819281244705
497.00381564161654
496.66531619828135
496.33384728855907
496.01056366886934
495.69661935013517
495.39316482507
495.1013442226079
494.82229239407843
494.55713193628924
494.3069701572086
494.07289599053587
493.8559768660508
493.6572555431919
493.477746915882
493.3184347971902
493.18026869296773
493.06416057418147
492.9709816581904
492.90155920969113
492.8566733725684
492.83705404432595
492.84337780513755
492.87626491390625
492.9362763840588
493.023911152051
493.1396033517585
493.2837197080687
493.45655706302995
493.658340047943
493.8892189147795
494.1492675401649
494.4384816149067
494.7567770317589
495.10398848377645
495.4798682851723
495.88408542609955
496.3162248721458
496.7757871185447
497.26218800838296
497.77475882328054
498.31274665406573
498.8753150579252
499.4615450074809
500.0704361361493
500.70090828299277
501.3518033390226
502.0218873955822
502.7098531940941
503.414322875121
504.1338510232995
504.86692800327177
505.6119835803073
506.367390817818
507.1314702424955
507.90249426637666
508.6786918537753
509.45825341969095
510.23933594498396
511.0200682922747
511.79855670530526
512.5728904733118
513.3411477407974
514.1014014421161
514.8517253393144
515.5902001407771
516.3149196774688
517.023997112981
517.7155711631137
518.3878123003593
519.0389289184312
519.667173431878
520.2708482857864
520.8483118505983
521.3979841772433
521.9183525881307
522.4079770799866
522.8654955150561
523.2896285778787
523.6791844756347
524.0330633610168
524.3502614576006
524.6298748687893
524.8711030526573
525.0732519462854
525.2357367245643
525.3580841799275
525.4399347110522
525.4810439100036
525.4812837388049
525.4406432881835
525.3592291132636
525.2372651431671
525.0750921636865
524.8731668742587
524.6320605223839
524.3524571205742
524.0351512529061
523.6810454802618
523.2911473553337
522.866566060372
522.408508682612
521.9182761441757
521.3972588048246
520.8469317572959
520.2688498362062
519.664642362606
519.0360076472618
518.3847072765647
517.7125602056942
517.0214366843519
516.3132520408627
515.589960350822
514.8535480167735
514.1060272857011
513.3494297313229
512.5857997283086
511.81718794545293
511.0456448845167
510.2732144910195
509.501927862653
508.73379708015955
507.9708091846
507.21492032398777
506.4680500911282
505.73207607329255
505.0088286331681
504.3000859392493
503.60756926243243
502.9329385541095
502.2777883195347
501.64364379863594
501.031957464785
500.4441058502825
499.8813867056231
499.3450164979598
498.8361282524666
498.35576973857417
497.9049020013581
497.48439823668633
497.095043007113
496.73753179395953
496.41247087952473
496.12037755183
495.8616806228666
495.636721249997
495.44575404891435
495.28894848541177
495.1663905321904
495.0780845760069
495.0239555596065
495.0038513421422
495.0175452610938
495.0647388781418
495.14506489100444
495.25809019294644
495.40331906144377
495.5801964574049
495.78811141635424
496.02640051309066
496.2943513815563
496.5912062719272
496.9161656273032
497.26839166289756
497.6470119312448
498.0511228575861
498.47979323027596
498.9320676318105
499.40696979693143
499.903505885173
500.420667656158
500.9574355369322
501.5127815716232
502.085672244713
502.6750711702428
503.2799416403208
503.89924902737283
504.53196303566074
505.1770597986468
505.83352381974987
506.50034975498716
507.1765440369626
507.86112634061055
508.5531308919891
509.2516076222614
509.9556231698221
510.66426173426925
511.3766257866728
512.0918366413073
512.8090348946082
513.5273807375992
514.2460541485692
514.9642549732293
515.6812028999227
516.3961373377316
517.108317205553
517.817020640381
518.5215446331873
519.2212046009116
519.9153339030108
520.6032833109919
521.284420439254
521.9581291454224
522.6238089081963
523.2808741905179
523.9287537956017
524.5668902230582
525.1947390320088
525.8117682176924
526.4174576076274
527.01129828297
527.5927920303076
528.1614508287049
528.7167963762794
529.2583596600871
529.7856805726713
530.2983075781515
530.7957974302456
531.2777149440652
531.7436328230201
532.1931315416699
532.6257992848678
533.0412319430955
533.4390331634792
533.8188144555937
534.1801953507738
534.5228036133209
534.8462755016874
535.1502560774637
535.4343995597305
535.698369722089
535.9418403295296
536.1644956121228
536.3660307723147
536.5461525224898
536.7045796493999
536.8410436020316
536.9552890994948
537.0470747555573
537.1161737165331
537.1623743092404
537.1854806957365
537.1853135314574
537.1617106232641
537.1145275839498
537.0436384798636
536.9489364683773
536.8303344219552
536.6877655356149
536.521183914675
536.3305651398368
536.1159068066922
535.877229036733
535.6145749570694
535.3280111462888
535.0176280441436
534.6835403229945
534.3258872191793
533.9448328227643
533.5405663243766
533.1133022180212
532.6632804589918
532.1907665762318
531.6960517387209
531.1794527756708
530.6413121503707
530.0819978875396
529.5019034541018
528.901447593405
528.2810741130188
527.6412516263485
526.982473248436
526.305256246419
525.6101416451958
524.8976937890014
524.1684998597287
523.4231693528666
522.6623335119871
521.8866447227813
521.0967758676687
520.2934196420688
519.4772878334788
518.6491105645316
517.8096355012867
516.9596270280493
516.099865390019
515.2311458050815
514.3542775461004
513.4700829950839
512.5793966706078
511.68306422991344
510.7819414471335
509.8768931691017
508.96879225026953
508.0585184683067
507.1469574219337
506.23499941249315
505.32353831077785
504.4134704106546
503.50569327102755
502.6011045476756
501.70060081648955
500.80507638968805
499.9154221266511
499.0325242410157
498.15726310568925
497.290512057469
496.43313620294333
495.5859912273411
494.7499222079981
493.92576243408894
493.1143322342667
492.31643781387953
491.5328701034113
490.7644036197434
490.0117953418434
489.27578360254915
488.55708699812493
487.856403317247
487.17440849104355
486.5117555658054
485.8690736999428
485.24696718675835
484.64601450457576
484.0667673957473
483.50974997607875
482.97545787620606
482.46435741638885
481.97688481615563
481.5134454402608
481.0744130823872
480.66012928801604
480.2709027178958
479.9070085535427
479.5686879461792
479.2561475104586
478.9695588642764
478.70905821592214
478.47474599976215
478.26668656159825
478.0849078948307
477.9294014284845
477.8001218681074
477.69698709053426
477.6198780934611
477.5686390006745
477.54307712375237
477.5429630810127
477.5680309743867
477.61797862481575
477.6924678666678
477.79112490157826
477.91354071207786
478.0592715352533
478.22783939657506
478.4187327039002
478.6314069014965
478.86528518375536
479.11975926817365
479.3941902271142
479.6879093777807
480.0002192296631
480.3303944885194
480.6776831158588
481.04130744280184
481.42046533702984
481.8143314213522
482.2220583422294
482.6427780864207
483.0756033437482
483.5196289138071
483.97393315433266
484.43757946882573
484.9096178309169
485.3890863428271
485.8750128251489
486.3664164351007
486.8623093103575
487.36169823546595
487.86358632777456
488.36697473971316
488.8708643741881
489.3742576098785
489.8761600333343
490.3755821748325
490.8715412449705
491.36306286897644
491.84918281577313
492.3289487189794
492.80142178715187
493.26567850056784
493.7208122917545
494.16593520695324
494.600179545709
495.02269947574786
495.4326726203413
495.8293016154724
496.21181563416957
496.5794718754413
496.93155701524427
497.26738861683884
497.5863164978459
497.88772405140793
498.17102951899307
498.43568721251427
498.68118868358454
498.9070638379432
499.1128819933167
499.29825287918385
499.46282757710344
499.6062994003867
499.7284047119694
499.82892367937575
499.90768096563863
499.96454635500373
499.99943531227325
500.01230947473505
500.00317707568024
499.9720932985673
499.9191605609127
499.84452872698006
499.74839524835414
499.6310052315069
499.4926514314475
499.33367417045264
499.15446118080183
498.95544737038813
498.73711450996575
498.4999908407451
498.2446506009893
497.97171347017604
497.6818439292444
497.37575053542025
497.0541851100721
496.71794183800705
496.36785627663704
496.0048042735134
495.6297007907846
495.2434986351726
494.8471870921463
494.44179046304413
494.0283665039907
493.60800476562224
493.1818248327761
492.7509744634644
492.3166276267081
491.8799824391532
491.442259000678
491.0046971294908
490.56855399754477
490.1351016674582
489.70562453253206
489.2814166618584
488.8637790529333
488.4540167946685
488.053436144146
487.6633415209471
487.2850324234302
486.9198002719077
486.5689251842384
486.2336726899632
485.9152903897335
485.6150045673717
485.3340167624972
485.0735003122739
484.8345968713734
484.61841291976174
484.42601626847323
484.2584325740691
484.11664187297333
484.00157514734667
483.9141109346421
483.8550719934359
483.8252220385196
483.8252625585391
483.8558297296801
483.9174914390736
484.0107444317827
484.13601159532567
484.29363939566974
484.4838954785997
484.7069664502251
484.9629558501334
485.2518823303938
485.57367805320615
485.92818731955236
486.31516544069075
486.7342778637073
487.18509956165815
487.6671146980398
488.1797165744397
488.7222078692873
489.2938011746028
489.8936198365154
490.52069910419766
491.17398759068146
491.8523490477033
492.5545644553571
493.27933442598004
494.02528192032355
494.7909552726553
495.5748315199865
496.3753200290991
497.19076641358413
498.01945673161896
498.8596219537787
499.7094426888047
500.56705415387256
501.4305513745065
502.29799459794447
503.16741490243936
504.0368199837723
504.9042000991485
505.7675341475808
506.62479586485443
507.4739601102759
508.3130092216609
509.1399394143931
509.9527671999536
510.7495357990275
511.52832152401527
512.2872401055224
513.0244529373134
513.738173214292
514.426671938282
515.0882837667419
515.7214126799371
516.3245374425309
516.8962168362058
517.4350946408232
517.9399043425684
518.4094735485857
518.8427280886192
519.238695785319
519.5965098761628
519.9154120713046
520.1947552331769
520.4340056651871
520.6327449983019
520.7906716659721
520.9076019597537
520.9834706600508
521.0183312384651
521.0123556303188
520.9658335780163
520.8791715479308
520.752891225476
520.5876275950096
520.3841266132158
520.1432424865824
519.8659345655616
519.5532638699726
519.206389262004
518.8265632847717
518.4151276857579
517.9735086456919
517.503211734505
517.0058166168681
516.4829715306535
515.9363875623684
515.3678327443207
514.7791259989546
514.172130956315
513.548749671054
512.9109162656823
512.2605905269098
511.5997514818594
510.930390980708
510.2545073119365
509.57409887588676
508.89115794175564
508.2076645124712
507.525580321073
506.84684298131856
506.1733603142499
505.5070048713313
504.8496086735868
504.2029581849112
503.5687895363364
502.94878401659076
502.34456384281185
501.7576882237524
501.18964972622155
500.64187095385773
500.1157015456895
499.61241550029973
499.1332088296748
498.6791975450872
498.25141597569785
497.8508154189947
497.4782631206414
497.1345415797609
496.82034817412614
496.53629509830574
496.28290960649304
496.06063455044233
495.86982920169436
495.71077034615786
495.5836536380785
495.488595199502
495.4256334505147
495.39473115484464
495.39577766478163
495.42859134883923
495.4929221851889
495.5884545036203
495.7148098586041
495.8715500159161
496.05818003527327
496.27415143154155
496.51886539726416
496.7916760695091
497.09189382439615
497.4187885831293
497.7715931138785
498.14950631453263
498.5516964620735
498.97730441503944
499.4254467563575
499.895218864675
500.38569790317626
500.89594571575566
501.42501162131606
501.97193509791776
502.5357483495026
503.11547874892335
503.7101511519919
504.31879007821925
504.9404217548684
505.57407602189494
506.21878809623274
506.8736001947888
507.53756301637463
508.20973708361083
508.8891939466928
509.5750172516506
510.2663036764019
510.962163738564
511.6617224795908
512.364120030351
513.0685120637766
513.774070140608
514.4799819546381
515.1854514841632
515.8896990565947
516.5919613333772
517.2914912225652
517.9875577265037
518.6794457321105
519.3664557512519
520.0479036186146
520.7231201543744
521.3914507988401
522.0522552260686
522.704906943251
523.3487928824045
523.9833129906141
524.6078798247147
525.2219181559914
525.8248645900762
526.4161672068138
526.9952852244745
527.5616886923104
528.1148582150539
528.6542847125047
529.1794692169437
529.68992271069
530.185166005679
530.6647296664358
531.1281539772801
531.5749889542014
532.0047944014678
532.4171400126704
532.8116055155436
533.1877808595466
533.5452664448206
533.8836733908411
534.2026238428986
534.5017513143715
534.7807010625047
535.0391304951719
535.276709605959
535.4931214347913
535.6880625512591
535.8612435577257
536.0123896093116
536.1412409477979
536.2475534464766
536.3310991631291
536.3916668983405
536.4290627563516
536.4431107056427
536.4336531364248
536.4005514121664
536.3436864122764
536.262959063055
536.1582908540669
536.0296243372127
535.8769236058416
535.7001747513355
535.4993862946616
535.2745895904159
535.0258392009033
534.7532132378898
534.4568136698357
534.1367665926444
533.7932224622258
533.4263562874733
533.0363677825461
532.6234814775908
532.187946787189
531.7300380359903
531.2500544411315
530.7483200511564
530.2251836412336
529.6810185645578
529.1162225599835
528.5312175160628
527.9264491917829
527.3023868944505
526.6595231152852
525.9983731233442
525.3194745185059
524.6233867443121
523.9106905615528
523.181987483567
522.4378991743197
521.6790668103192
520.9061504075268
520.119828114469
519.3207954728006
518.5097646465576
517.6874636214128
516.8546353753817
516.0120370224739
515.1604389307674
514.3006238164367
513.4333858153991
512.5595295342891
511.6798690824611
510.79522708669765
509.90643369033796
509.01432553859627
508.11974475187475
507.2235378888942
506.32655490151944
505.4296480831496
504.53367101252906
503.639477494833
502.7479205019124
501.8598511135875
500.9761174618314
500.09756367969675
499.2250288568249
498.3593460033066
497.5013410236183
496.65183170232376
495.811626703211
494.98152458349705
494.1623128246527
493.3547668813436
492.5596492499535
491.7777085580965
491.00967867644977
490.2562778541632
489.5182078789536
488.7961532628922
488.0907804548118
487.4027370801058
486.73265120862123
486.0811306513334
485.4487622864034
484.83611141517065
484.24372114854157
483.67211182411774
483.12178045431216
482.59320020561364
482.0868199090809
481.6030636020719
481.1423301011545
480.70499260607386
480.2913983345577
479.90186818768836
479.5366964455484
479.1961504927421
478.88047057331784
478.5898695746383
478.3245328396786
478.08461800714576
477.8702548787857
477.68154531327116
477.51856314607187
477.3813541347175
477.2699359288604
477.184298064586
477.12440198244735
477.0901810687154
477.0815407193711
477.0983584263733
477.14048388577226
477.2077391272726
477.29991866491673
477.41678966860144
477.55809215617285
477.72353920588927
477.9128171890728
478.12558602285037
478.3614794429736
478.6201052967375
478.90104585609396
479.20385815117606
479.52807432451687
479.87320200626857
480.2387247107745
480.62410225492386
481.028771198776
481.4521453089454
481.89361604527437
482.3525530713696
482.828304789619
483.32019890131915
483.8275429925523
484.3496251464387
484.88571458233525
485.43506232251394
485.99690188686503
486.5704500161962
487.15490742463317
487.74945958150465
488.35327752302203
488.96551869400906
489.5853278198798
490.21183780900355
490.8441706854994
491.48143855235537
492.1227445845905
492.76718405203974
493.4138453712603
494.06181118592167
494.71015947492896
495.35796468741836
496.0042989035709
496.6482330200609
497.2888379588639
497.9251858980509
498.5563515231632
499.1814132977058
499.79945475117444
500.40956578292776
501.0108439801353
501.60239594797986
502.18333865026807
502.75280075857523
503.30992400808975
503.8538645584133
504.3837943576409
504.8989025079583
505.39839663082864
505.8815042296818
506.3474740479457
506.7955774202011
507.2251096141461
507.6353911610043
508.0257691720257
508.39561863872797
508.7443437144895
509.0713789750155
509.3761906551226
509.6582778592186
509.9171737427698
510.1524466620719
510.3637012897376
510.5505796934207
510.7127623753745
510.8499692706023
510.96196070143225
511.0485382864166
511.10954580152924
511.144869991681
511.15444133058355
511.13823472702745
511.0962701756652
511.0286133503482
510.93537613800396
510.81671711106264
510.6728419364658
510.50400371926173
510.3105032787072
510.0926893547503
509.8509587427377
509.5857563541146
509.29757520087367
508.98695630148296
508.65448850595885
508.3008082376754
507.92659914942584
507.53259169123135
507.11956258739394
506.688334220288
506.2397739183637
505.77479314583337
505.2943465915446
504.79943115458553
504.2910848242729
503.7703854522959
503.23844941491814
502.69643016325097
502.1455166597846
501.58693169958195
501.02193011481717
500.45179686160793
499.8778449883647
499.30141348519373
498.7238650142235
498.14658352109956
497.5709717283603
496.99844851187055
496.4304461619818
495.868407531697
495.31378307463507
494.7680277760552
494.23259798072513
493.7089481219908
493.198527357013
492.70277611379015
492.22312255627537
491.76097897460755
491.3177381081157
490.89476940938977
490.4934152583468
490.1149871359361
489.7607617678363
489.4319772491275
489.12982916149906
488.85546669516765
488.6099887882622
488.3944402969266
488.20980820986586
488.0570179216092
487.93692957916306
487.85033451699513
487.7979517955503
487.7804248587541
487.79831832609455
487.8521149349106
487.9422126484988
488.06892194555627
488.2324633063547
488.4329649108041
488.67046056323363
488.9448878583076
489.2560866019546
489.6037975005711
489.98766113111884
490.4072172039545
490.86190412931717
491.3510588974131
491.87391728098453
492.42961436815875
493.0171854321665
493.6355671432327
494.2835991266116
494.96002586935515
495.66349897693755
496.39257977931305
497.1457422844257
497.92137647562157
498.7177919477936
499.53322187546246
500.3658273043898
501.21370175670563
502.0748761379211
502.9473239326434
503.8289666742891
504.71767967256676
505.6112979810537
506.5076225857675
507.4044267943103
508.29946280394256
509.19046842576813
510.0751739411135
510.9513090651541
511.8166099919463
512.6688264942978
513.5057290513541
514.3251159763798
515.1248205169029
515.902717899191
516.6567322889466
517.38484364016
518.0850944042353
518.7555960718475
519.3945355204341
520.0001811408246
520.5708887172672
521.1051070359539
521.6013831980584
522.0583676143603
522.474818659743
522.8496069671628
523.1817193421052
523.4702622800147
523.7144650708121
523.9136824762389
524.0673969673837
524.1752205114872
524.2368958991598
524.2522976053579
524.2214321797313
524.1444381642145
524.021585537979
523.8532746921474
523.6400349388163
523.3825225610657
523.0815184127146
522.7379250787018
522.3527636090731
521.9271698416842
521.4623903307761
520.9597779004445
520.4207868436393
519.8469677887432
519.2399622570775
518.6014969358247
517.9333776917562
517.2374833519966
516.515759278832
515.7702107662628
515.0028962865948
514.2159206157852
513.4114278665227
512.5915944581789
511.75862205281027
510.9147304862503
510.0621507229654
509.20311786290614
508.3398642280178
507.4746125553896
506.6095693232138
505.7469182347756
504.88881388469605
504.03737563048503
503.1946816911519
502.3627634932459
501.54360028324464
500.7391140237078
499.95116458901424
499.1815452748128
498.43197863361456
497.7041126471765
496.9995172445327
496.31968117273414
495.66600922553204
495.0398198334128
494.4423430165879
493.8747187008083
493.33799539416805
492.8331292213583
492.36098331012465
491.9223275230637
491.5178385263865
491.14810018586655
490.81360427885596
490.51475151001836
490.2518528172992
490.02513095355755
489.8347223283147
489.68067909320393
489.56297145391017
489.4814901907558
489.4360493696944
489.42638922515636
489.4521791959226
489.51302109502745
489.608452394648
489.7379496069478
489.9009317419393
490.0967638237384
490.32476044702196
490.5841893559649
490.8742750284138
491.1942022486095
491.5431196524879
491.9201432303771
492.32435977276674
492.7548302456814
493.21059308310925
493.6906673849056
494.1940560095518
494.7197485521461
495.2667241990945
495.8339544520451
496.4204057146331
497.02504173668
497.6468259115841
498.2847234236625
498.9377032432089
499.60473996798186
500.2848155107993
500.97692063387876
501.680056331434
502.3932350628893
503.1154818398266
503.845835170447
504.58334786606366
505.3270877148328
506.07613802849886
506.8295980684242
507.5865833576205
508.34622588590423
509.10767421563617
509.8700934957227
510.63266539171826
511.39458794002655
512.155075334357
512.9133576526592
513.6686805327454
514.4203048047466
515.1675060884347
515.9095743632245
516.6458135184805
517.3755408915199
518.0980868003917
518.812794078211
519.5190176155157
520.2161239167144
520.903490676231
521.5805063795118
522.2465699336155
522.9010903316081
523.5434863545715
524.1731863146044
524.7896278417631
525.3922577174404
525.9805317561597
526.5539147371983
527.1118803870104
527.6539114129368
528.1794995882315
528.6881458880147
529.179360675349
529.6526639362722
530.1075855622995
530.5436656785499
530.9604550153197
531.3575153206426
531.7344198112022
532.0907536588168
532.4261145095859
532.7401130326017
533.0323734949939
533.3025343600381
533.550248904983
533.7751858552658
533.9770300318679
534.1554830086124
534.3102637761498
534.4411094093693
534.547775734905
534.6300379953345
534.6876915066265
534.7205523054121
534.7284577827048
534.711267300782
534.6688627900365
534.6011493227217
534.5080556605884
534.3895347734219
534.2455643254928
534.0761471270384
533.8813115480743
533.6611118920797
533.41562872733
533.1449691738762
532.849267144494
532.5286835382369
532.1834063854589
531.8136509433225
531.4196597409862
531.0017025738633
530.5600764465472
530.0951054641712
529.6071406720997
529.0965598439858
528.5637672183847
528.0091931842574
527.4332939158585
526.8365509576313
526.219470759819
525.5825841656333
524.9264458508939
524.2516337171228
523.5587482391531
522.8484117684053
522.1212677930976
521.3779801566824
520.6192322358862
519.8457260798386
519.0581815118286
518.2573351953141
517.4439396659197
516.6187623312541
515.7825844404567
514.9362000254227
514.0804148156893
513.2160451289966
512.3439167395653
511.4648637262137
510.579727302534
509.68935463144817
508.79459762647514
507.89631174206863
506.9953547554045
506.0925855420007
505.1888628475634
504.28504405849355
503.38198397347526
502.48053357857054
501.5815388282934
500.68583943515233
499.7942676700738
498.90764717606004
498.02679179745627
497.15250442718303
496.285575874223
495.4267837536195
494.57689140126
493.7366468156624
492.90678162886803
492.0880101084803
491.28102819286323
490.4865125614576
489.70511974208205
488.9374852569737
488.18422280920896
487.445923511061
486.72315515576844
486.01646153408785
485.3263617968975
484.6533498649978
483.9978938871398
483.36043574718985
482.74139062121543
482.1411465851563
481.5600642736223
480.99847659025545
480.4566884699553
479.93497669314974
479.43358975215597
478.95274776948077
478.49264246781127
478.0534371913699
477.6352669782043
477.2382386829077
476.8624311490862
476.50789543073455
476.1746550616189
475.86270637165364
475.57201884914963
475.30253554766864
475.0541735360874
474.82682439041173
474.62035472583585
474.4346067674793
474.2693989581221
474.1245266011679
473.99976253698884
473.89485785073754
473.80954260965916
473.74352662792126
473.69650025693244
473.6681351990676
473.65808534265074
473.6659876160161
473.6914628584329
473.7341167056611
473.79354048795193
473.8693121383504
473.960997109182
474.068149294645
474.1903119574078
474.32701865713443
474.4777941789194
474.6421554596258
474.8196125101806
475.00966933199743
475.2118248257548
475.42557369079094
475.6504073134526
475.8858146428194
476.1312830522957
476.3862991856671
476.6503497862776
476.92292250810675
477.2035067076263
477.4915942153648
477.7866800861508
478.08826332707014
478.3958476022773
478.7089419139483
479.02706125878376
479.34972725956135
479.6764687713396
480.0068224619954
480.340333366836
480.67655541708575
481.0150519421625
481.3553961457291
481.69717155555526
482.0399724473166
482.38340424254136
482.7270838809815
483.0706401677538
483.4137140956775
483.75595914326385
484.09704154884236
484.4366405613387
484.77444866824356
485.11017180134235
485.44352952083364
485.77425517846945
486.10209606032464
486.4268135098056
486.74818303151886
487.06599437658525
487.3800516099374
487.6901731601406
487.99619185225055
488.29795492418884
488.5953240270626
488.8881752098369
489.1763988887213
489.45989980158265
489.738596947693
490.0124235131216
490.28132678200416
490.5452680338339
490.80422242686535
491.05817886769756
491.3071398670491
491.5511213816761
491.7901526423438
492.0242759677469
492.2535465642269
492.47803231105553
492.69781353103286
492.9129827460693
493.12364441736713
493.3299146698094
493.5319210001739
493.7298019687435
493.9237068738212
494.11379540866864
494.30023730042666
494.48321193061656
494.662907936835
494.8395227952609
495.01326238361827
495.18434052421554
495.35297850671395
495.51940459033193
495.6838534852286
495.84656581288846
496.00778754544024
496.167769423923
496.32676635558346
496.48503679043097
496.64284207738723
496.80044580041687
496.95811309511754
497.11610994638187
497.27470246787686
497.43415616417144
497.594735176486
497.7567015131621
497.92031426607326
498.0858288142752
498.25349601631297
498.42356139277246
498.59626430080965
498.77183710249324
498.95050432891406
499.1324818421251
499.3179759970869
499.50718280590024
499.70028710676036
499.89746174018313
500.09886673514006
500.3046485078282
500.5149390758621
500.7298552907286
500.9494980913845
501.17395178194926
501.40328333648705
501.6375417338626
501.87675732563224
502.12094123995143
502.3700848244662
502.6241591311117
502.88311444570826
503.1468798651429
503.41536292477883
503.6884492786627
503.96600243501723
504.24786354940653
504.5338512778245
504.8237616917576
505.1173682571278
505.4144218788875
505.7146510128806
506.0177618463978
506.32343854862887
506.6313435919636
506.94111814482955
507.25238253649127
507.5647367939903
507.87776125121246
508.19101722986784
508.504047791929
508.8163785628479
509.1275186246622
509.43696147794503
509.74418607141166
510.04865789774993
510.34983015401326
510.64714496477734
510.9400346660746
511.22792314791513
511.510227253043
511.78635822948394
512.0557232343876
512.3177268865574
512.5717728648274
512.8172655491206
513.0536117007456
513.2802221782227
513.4965136847256
513.7019105430558
513.8958464939413
514.0777665133018
514.2471286439707
514.4034058371967
514.5460877990796
514.6746828369342
514.7887197004508
514.8877494125152
514.9713470845892
515.039113711541
515.0906779408189
515.1256978109138
515.1438624540895
515.1448937583731
515.1285479837584
515.0946173276016
515.04293143423
514.9733588438463
514.8858083757721
514.7802304410832
514.6566182797395
514.5150091173924
514.3554852370731
514.178174960972
513.983253537534
513.77094392911
513.5415174954626
513.295294568487
513.0326449135772
512.7539880731949
512.459793588307
512.1505810934743
511.8269202815457
511.4894307340535
511.1387816135814
510.7756912145639
510.4009263692365
510.0153017057165
509.619678755472
509.21496490775445
508.8021122089069
508.3821160047999
507.9560134249929
507.52488170763615
507.0898363645807
506.6520291865765
506.21264608887526
505.7729047980747
505.3340523816189
504.8973626219492
504.4641332378469
504.0356829560906
503.6133484371685
503.19848105945323
502.79244356686274
502.3966065857263
502.0123450172979
501.64103431308683
501.2840466409399
500.9427469505197
500.6184889475071
500.3126109865264
500.0264318934725
499.7612467286333
499.5183225026242
499.29889385777096
499.10415872820937
498.9352739925904
498.79335113384917
498.6794519210114
498.5945841285107
498.5396973089113
498.5156786352879
498.5233488298952
498.5634581960211
498.6366827700684
498.7436206110318
498.88478824459617
499.06061727904637
499.2714512100676
499.5175424313525
499.799049467683
500.1160344467721
500.46846082568226
500.85619138705084
501.27898651969167
501.7365027974627
502.22829186951384
502.753799674134
503.31236598743874
503.90322431700713
504.52550214938304
505.1782215591242
505.8603001857785
506.570552583795
507.30769194896806
508.0703322234853
508.85699058001916
509.66609028367066
510.49596392892613
511.3448570471039
512.2109320781075
513.0922726986179
513.986888497152
514.8927199846831
515.8076439278019
516.7294789897387
517.6559916629645
518.5849024754665
519.5138924512581
520.4406098042433
521.3626768431685
522.2776970641239
523.1832624058762
524.0769606421604
524.9563828840271
525.8191311644428
526.6628260765752
527.4851144365858
528.2836769411568
529.0562357895566
529.8005622398455
530.5144840687625
531.1958929050022
531.8427514058549
532.4531002475948
533.0250649005606
533.556862160567
534.0468064090587
534.4933155753415
534.8949167753159
535.2502516023509
535.558081047222
535.8172900253907
536.026891491425
536.1860301220851
536.2939855513904
536.3501751427934
536.3541562855011
536.3056282039921
536.2044332717609
536.0505578223264
535.8441324525522
535.5854318154506
535.2748739019169
534.9130188133676
534.5005670298231
534.0383571803985
533.5273633254832
532.9686917621453
532.3635773664907
531.7133794888491
531.0195774197093
530.2837654463052
529.5076475216697
528.6930315698402
527.8418234525743
526.956020624357
526.037705503657
525.0890385894712
524.1122513529848
523.1096389348337
522.0835526789709
521.0363925346007
519.9705993579952
518.8886471461901
517.7930352345121
516.686280489753
515.5709095305288
514.4494510059319
513.3244279629449
512.19835033227
511.07370756137203
509.95296142255023
508.83853902275433
507.73282604063127
506.6381602149424
505.5568251070131
504.4910441583403
503.44297506282834
502.41470447139585
501.40824304487484
500.4255208692187
499.46838324517614
498.538586862657
497.63779636804793
496.7675813307396
495.929413613102
495.1246651461488
494.3546061111911
493.62040352586786
492.9231202310375
492.2637142731586
491.6430386750101
491.0618415858729
490.5207668006786
490.0203546361199
489.56104315029563
489.1431696910778
488.7669727571262
488.4325941543753
488.14008142986273
487.88939056387693
487.6803889006465
487.51285829720763
487.38649846956605
487.3009305148529
487.25570058789833
487.25028371053037
487.28408769192873
487.3564571384826
487.46667753181015
487.6139793539734
487.7975422393803
488.0164991334413
488.2699404386869
488.55691812975715
488.87644981948085
489.2275227591459
489.60909775705073
490.02011300045194
490.4594877671074
490.92612601373156
491.41891982975153
491.9367527459286
492.47850288865357
493.0430459719331
493.62925812022195
494.236018516454
494.86221187086227
495.5067307073066
496.16847746491817
496.84636641401823
497.5393253864022
498.2462973211601
498.9662416282168
499.698135372684
500.4409742839872
501.19377359457695
501.95556871378915
502.7254157431553
503.5023918401376
504.28559543783217
505.0741463286756
505.8671856206309
506.6638755746901
507.4633993328637
508.2649605460666
509.067782911496
509.87110962921986
510.67420278777354
511.476342688549
512.2768271186502
513.0749705817171
513.8701034960432
514.6615713690863
515.4487339571791
516.2309644189374
517.007648470515
517.7781835504296
518.541978001284
519.2984502752396
520.0470281695975
520.787148098337
521.5182544049786
522.2397987215999
522.9512393783257
523.6520408670832
524.3416733628743
525.0196123053341
525.6853380428518
526.3383355410216
526.9780941566577
527.6041074780733
528.2158732317838
528.8128932553218
529.3946735354197
529.9607243104068
530.5105602353033
531.0437006077666
531.5596696527298
532.057996863252
532.5382173948841
532.9998725106557
533.4425100736045
533.8656850836041
534.2689602550967
534.6519066322033
535.0141042376168
535.3551427516693
535.6746222179569
535.9721537719909
536.2473603894033
536.4998776503222
536.7293545165311
536.9354541179994
537.1178545452684
537.2762496441212
537.4103498090276
537.5198827719076
537.6045943828175
537.6642493792108
537.6986321405244
537.7075474249755
537.6908210854931
537.6483007617514
537.5798565453118
537.4853816150701
537.364792840368
537.2180313493442
537.0450630603475
536.8458791744686
536.6204966274557
536.3689584995053
536.0913343815582
535.7877206968833
535.4582409768828
535.103046090201
534.7223144243192
534.316252018906
533.8850926503984
533.4290978674436
532.9485569769639
532.4437869806547
531.915132461816
531.3629654225127
530.7876850711395
530.1897175605525
529.5695156769752
528.9275584799599
528.264350893742
527.5804232504079
526.8763307853669
526.15265308567
525.409993491788
524.6489784535432
523.8702568409562
523.0744992109148
522.2623970306493
521.4346618590758
520.5920244871497
519.7352340384587
518.8650570314069
517.9822764044144
517.0876905056638
516.1821120489936
515.2663670376445
514.3412936576595
513.4077411428442
512.4665686132937
511.5186438895693
510.56484228468173
509.6060453761599
508.64313976053177
507.67701579258
506.70856631183415
505.73868535887595
504.7682668840814
503.7982034514024
502.82938493980186
501.86269724502404
500.8990209844605
499.939230207892
498.98419111683734
498.03476079524484
497.0917859543123
496.1561016942226
495.2285302855492
494.3098799730604
493.40094380459766
492.50249848764156
491.6153032761047
490.7400988898466
489.87760646938244
489.02852656815895
488.1935381846266
487.37329783625466
486.5684386776092
485.77956966449955
485.007274766007
484.25211222612404
483.51461387669764
482.79528450320964
482.0946012647329
481.41301316926933
480.7509406055443
480.10877493217504
479.4868781249838
478.88558248303315
478.30519039379686
477.7459741577144
477.20817587219653
476.69200737497584
476.1976502465596
475.7252558714212
475.27494555738036
474.846810712414
474.4409130779902
474.05728501786973
473.6959298611521
473.35682229818025
473.0399088277561
472.74510825399517
472.47231223106706
472.22138585395163
471.9921682932397
471.7844734718872
471.5980907817199
471.4327858374377
471.2883012658193
471.16435752770315
471.0606537702464
470.9768687069279
470.91266152272334
470.8676728018506
470.8415254754617
470.83382578661394
470.84416426978413
470.8721167422408
470.917245304647
470.9790993482612
471.0572165660989
471.1511239654222
471.2603388789653
471.38436997242206
471.5227182458483
471.6748780267008
471.8403379522937
472.01858193951585
472.2090901397392
472.41133987693445
472.6248065671134
472.8489646173317
473.08328830259774
473.32725261912833
473.58033411248636
473.8420116792491
474.11176734103714
474.389086989847
474.6734611037031
474.9643854318087
475.2613616485243
475.5638979755559
475.871509771853
476.1837200908696
476.5000602049405
476.8200700966164
477.14329891691597
477.4693054105707
477.7976583084463
478.12793668742444
478.45973029809755
478.79263986068685
479.1262773296846
479.46026612780923
479.79424134996634
480.12784993796294
480.46075082671894
480.7926150627528
481.1231258957815
481.4519788443146
481.7788817362159
482.10355472525384
482.42573028464307
482.7451531785987
483.06158041295697
483.3747811659074
483.6845366998896
483.9906402557912
484.2928969306204
484.5911235397544
484.8851484647641
485.1748114878182
485.45996361369885
485.7404668804183
486.01619415937853
486.28702894598206
486.5528651415817
486.81360682765717
487.0691680330619
487.31947249514576
487.5644534155379
487.804053211334
488.03822326240805
488.26692365554885
488.49012292607824
488.7077977975687
488.91993292019896
489.1265206082629
489.3275605772879
489.52305968117554
489.7130316498017
489.8974968275143
490.07648191288644
490.2500197000564
490.4181488220025
490.58091349604905
490.73836327185563
490.89055278211055
491.037541496136
491.1793934766119
491.3161771395935
491.44796501794576
491.5748335283202
491.69686274181225
491.8141361584046
491.92674048527164
492.0347654190198
492.1383034319475
492.23744956242126
492.33230120944285
492.42295793147133
492.5095212495528
492.5920944548358
492.6707824205523
492.74569141850236
492.81692894007506
492.8846035218604
492.9488245759065
493.0097022246412
493.06734714048173
493.1218703901977
493.17338328409164
493.2219972300253
493.2678235923313
493.3109735556562
493.35155799376474
493.3896873433337
493.42547148277964
493.4590196161842
493.49044016237826
493.5198406491942
493.5473276129011
493.5730065028542
493.59698159136354
493.6193558887717
493.6402310637355
493.65970736869025
493.6778835704871
493.694856886192
493.71072292400436
493.7255756292693
493.7395072355791
493.752608220921
493.76496726875916
493.77667123392246
493.78780511322344
493.7984520207494
493.8086931677376
493.8186078469197
493.8282734212037
493.8377653165352
493.84715701876837
493.8565200743772
493.86592409485434
493.8754367646499
493.885123852487
493.8950492258828
493.90527486865824
493.9158609012029
493.926865603297
493.9383454392873
493.95035508537995
493.962947458797
493.9761737485385
493.9900834474805
494.0047243855678
494.0201427639335
494.03638318973805
494.0534887114416
494.07150085426116
494.09045965561245
494.1104037003506
494.13137015565235
494.1533948053433
494.1765120834289
494.2007551065778
494.22615570531104
494.25274445366773
494.2805506971384
494.30960257869174
494.33992706273233
494.3715499568232
494.4044959310286
494.4387885347748
494.474450211161
494.5115023086551
494.5499650901221
494.589857739158
494.63119836372215
494.67400399702655
494.7182905956661
494.76407303504004
494.811365102136
494.8601794857307
494.9105277640756
494.96242039015215
495.0158666746249
495.0708747666688
495.1274516328636
495.1856030343664
495.2453335026048
495.30664631377005
495.3695434623828
495.4340256341781
495.50009217855154
495.567741080862
495.636968934973
495.70777091643555
495.78014075671274
495.85407071885834
495.92955157503906
496.0065725862792
496.0851214848121
496.16518445942404
496.2467461441747
496.32978961092886
496.414296366122
496.5002463520802
496.5876179531687
496.6763880071045
496.766531821808
496.8580231981651
496.9508344590534
497.0449364849839
497.14029875667177
497.23688940481867
497.33467526734626
497.43362195424726
497.53369392017987
497.6348545449253
497.7370662218193
497.8402904542746
497.94448796045924
498.04961878610015
498.1556424253261
498.2625179494478
498.3702041435531
498.47865965076636
498.5878431239711
498.69771338474413
498.8082295891412
498.9193513999077
499.0310391646575
499.1432540994765
499.25595847732774
499.3691158206108
499.48269109720786
499.59665091928593
499.71096374404607
499.8256000755433
499.9405326666835
500.055736720467
500.17119008949976
500.28687347273967
500.40277060841277
500.5188684620257
500.63515740840563
500.75163140671094
500.8682881673458
500.985129309705
501.10216050962197
501.21939163540213
501.3368368713299
501.4545148275423
501.57244863516144
501.69066602560366
501.8091993929675
501.92808583843396
502.0473671957277
502.1670900367606
502.28730565658856
502.408070036863
502.52944378705644
502.6514920627995
502.77428446075294
502.8978948895227
503.0224014161643
503.14788608790974
503.27443472887995
503.4021367116745
503.5310847038342
503.6613743892646
503.79310416480445
503.92637481225
504.0612891462631
504.1979516387137
504.33646802013135
504.4769448590608
504.61948912024235
504.76420770267646
504.9112069587516
505.0605921957284
505.2124671609983
505.3669335126546
505.52409027704755
505.68403329508817
505.8468546591463
506.0126421424743
506.18147862320006
506.353441505044
506.52860213700154
506.7070252342892
506.8887683028869
507.0738810700063
507.26240492282153
507.45437235786176
507.6498064435078
507.84872029805314
508.05111658577005
508.2569870334281
508.466311969734
508.6790598901468
508.89518704946835
509.11463708450935
509.33734066906555
509.56321520335587
509.79216453993257
510.0240787479916
510.25883391794014
510.49629200792765
510.73630073388813
510.9786935045419
511.22328940269404
511.4698932140264
511.7182955043736
511.9682727463101
512.2195874957077
512.4719886187258
512.7252115694772
512.9789787184184
513.2329997313323
513.4869719986491
513.7405811146672
513.9935014060469
514.2453965088338
514.495919993181
514.7447160348171
514.9914201321507
515.2356598677985
515.4770557132158
515.715221875006
515.9497671813971
516.1802960073575
516.4064092367552
516.6277052599465
516.8437810052214
517.0542330025104
517.258658477591
517.4566564748434
517.6478290064173
517.8317822255032
518.0081276212783
518.1764832329698
518.3364748804416
518.487737408692
518.6299159435086
518.762667155421
518.8856605289711
518.9985796341891
519.1011233970361
519.193007365504
519.2739649680929
519.3437487614556
519.4021316640614
519.4489081727918
519.4838955593581
519.5069350434496
519.5178929395852
519.5166617746376
519.503161372942
519.4773399058156
519.4391749022459
519.3886742173786
519.3258769553935
519.2508543433895
519.1637105528442
519.0645834651555
518.9536453777256
518.8311036469906
518.6972012646476
518.5522173632311
518.3964676470403
518.2303047443909
518.0541184772046
517.868336043957
517.6734221119455
517.4698788148112
517.2582456512548
517.0390992809201
516.8130532135065
516.5807573872495
516.3428976330102
516.1001950204037
515.8534050826673
515.6033169171928
515.3507521588484
515.0965638234721
514.8416350192538
514.5868775241039
514.3332302274772
514.0816574354909
513.8331470386279
513.5887085418199
513.3493709572377
513.1161805606387
512.8901985126406
512.6724983468371
512.4641633272846
512.2662836785314
512.0799536919928
511.90626871317403
511.7463220149682
511.6012015630048
511.47198667981064
511.3597446153437
511.26552703222114
511.1903664147354
511.1352724115
511.101228122237
511.0891863399128
511.10006576014274
511.1347471704274
511.1940696324369
511.2788266711809
511.38976248549244
511.5275681947765
511.6928781374762
511.88626623711343
512.1082424520979
512.359249325721
512.6396586529347
512.9497682806862
513.2897990586547
513.6598919572323
514.0601053694634
514.4904126134184
514.950699651179
515.4407630402604
515.9603081327964
516.5089475372256
517.0861998565243
517.6914887162528
518.3241420948058
518.9833919673375
519.6683742737697
520.3781292201143
521.1116019211406
521.8676433911712
522.6450118883934
523.4423746166055
524.2583097868122
525.0913090395672
525.9397802273644
526.802050554757
527.6763700722355
528.5609155181547
529.4537945012739
530.3530500147937
531.2566652710655
532.1625688443819
533.0686401075506
533.9727149462977
534.8725917340188
535.7660375478981
536.6507946059587
537.524586903246
538.3851270240458
539.2301231058126
540.0572859293856
540.8643361090944
541.6490113554803
542.4090737825403
543.1423172306942
543.846574576195
544.5197249974344
545.1597011684261
545.7644963497531
546.3321713474102
546.8608613102715
547.348782337347
547.7942378665327
548.1956248172207
548.5514394599552
548.8602829873416
549.1208667614617
549.3320172141441
549.4926803777242
549.6019260254244
549.6589514021139
549.6630845279036
549.6137870587899
549.5106566903852
549.3534290926033
549.141979365157
548.8763230057468
548.5566163847425
548.1831567222106
547.7563815654371
547.2768677675205
546.745329970154
546.1626185961272
545.5297173594408
544.8477403032591
544.1179283781232
543.3416455748925
542.5203746289457
541.6557123141994
540.7493643474689
539.8031399256001
538.8189459195536
537.798780751191
536.7447279797548
535.658949626084
534.5436792634868
533.4012149049261
532.233911716802
531.0441745901286
529.8344506002471
528.6072213864136
527.3649954826863
526.1103006314987
524.8456761111239
523.5736651079101
522.2968071636286
521.0176307275354
519.7386458419255
518.4623369890334
517.1911561260599
515.92751593396
514.6737833043894
513.4322730878554
512.20524212467
510.9948835787184
509.80332159229454
508.6326062784856
507.4847090658146
506.361518407981
505.2648358696001
504.1963725969135
503.1577461804893
502.1504779150108
501.175990459332
500.23560589799786
499.3305442034364
498.4619220961382
497.6307522983134
496.8379431747471
496.08429875283787
495.3705191121278
494.6972011320894
494.0648395854586
493.47382856304495
492.9244632146917
492.41694178986506
491.9513679603204
491.52775340642825
491.1460206479685
490.80600609948317
490.5074633296998
490.25006650414656
490.0334139898456
489.857032100815
489.72037896302606
489.6228484774866
489.56377436023894
489.54243423835385
489.55805378140116
489.6098108483728
489.696839630636
489.8182347721618
489.9730554490446
490.16032939121254
490.379056830137
490.62821435727113
490.9067586789539
491.2136302545956
491.54775680605985
491.90805668728206
492.2934421043147
492.70282217718454
493.13510583615573
493.5892045461762
494.06403485444844
494.5585207571979
495.07159588285185
495.6022054900111
496.1493082796883
496.7118780222792
497.2889050007591
497.87939727256946
498.4823817535692
499.09690512827666
499.7220345914148
500.35685842650105
501.0004864278971
501.65205017335694
502.3107031546717
502.9756207744586
503.646000217548
504.3210602057928
505.00004064540195
505.68220217610553
506.3668256315856
507.0532114206717
507.74067883883527
508.4285653195405
509.11622563491704
509.8030310550261
510.4883684748317
511.17163951780566
511.85225962483855
512.5296571368123
513.2032723788332
513.8725567537474
514.5369718521632
515.1959885857129
515.8490863498096
516.4957522216872
517.1354801990144
517.7677704838401
518.3921288161349
519.0080658607405
519.6150966510795
520.2127400924625
520.800518527283
521.3779573638683
521.944584770261
522.4999314336993
523.0435303861202
523.5749168955474
524.0936284227975
524.5992046425703
525.0911875276411
525.5691214944769
526.0325536082902
526.4810338453952
526.9141154105736
527.3313551068995
527.7323137552283
528.1165566603752
528.4836541208753
528.8331819791268
529.1647222087046
529.4778635356274
529.7722020903134
530.0473420870404
530.3028965277974
530.5384879274076
530.753749056723
530.9483237005559
531.1218674269683
531.2740483645202
531.4045479840223
531.513061881377
531.5993005582221
531.66299019717
531.7038734284611
531.7217100849069
531.7162779420402
531.68737344044
531.634812387261
531.5584306341746
531.4580847291509
531.3336525396927
531.1850338453363
531.0121508974634
530.814948944655
530.5933967219516
530.3474869025769
530.077236510841
529.7826872950457
529.4639060593489
529.1209849536638
528.7540417207587
528.3632198998696
527.9486889862454
527.5106445461516
527.0493082869632
526.5649280820495
526.0577779502003
525.5281579894178
524.9763942649345
524.4028386513457
523.8078686288553
523.1918870337329
522.5553217631144
521.8986254343871
521.2222749995101
520.5267713147331
519.8126386662435
519.0804242522939
518.3306976223931
517.5640500742148
516.7810940089611
515.9824622460181
515.1688072978283
514.3408006059672
513.4991317395201
512.6445075569679
511.77765133289165
510.8993018509224
510.010212464411
509.1111501263263
508.2028943900121
507.28623638253424
506.36197775238657
505.43092959340106
504.49391134683924
503.55174968374837
502.605277369703
501.6553321140368
500.70275540569975
499.7483913379671
498.79308542428674
497.83768340758854
496.88303006538035
495.9299680129679
494.9793365071949
494.0319702531285
493.0886982161236
492.1503424416833
491.21771688549495
490.291626256014
489.37286487199174
488.4622155373498
487.5604484357532
486.66832004717537
485.78657208871147
484.9159304818384
484.05710434829746
483.21078503671515
482.3776451819895
481.55833779939013
480.7534954152551
479.9637292360935
479.18962835777756
478.4317590164103
477.6906638823863
476.9668613990576
476.2608451672996
475.57308337712965
474.9040182874262
474.2540657546972
473.6236148117371
473.013027296898
472.42263753453915
471.85275206705717
471.3036494387793
470.7755800318974
470.26876595448715
469.7834009805148
469.3196505416044
468.8776517702413
468.4575135939843
468.05931688012834
467.6831146300916
467.32893222268854
466.99676770533915
466.68659213213533
466.398349947565
466.13195941460447
465.8873130857823
465.6642783156926
465.46269781330597
465.28239023233067
465.12315079785014
464.9847519674392
464.86694412488407
464.7694563045563
464.6919969444521
464.6342546658724
464.59589907764047
464.5765816026703
464.5759363247004
464.59358085301625
464.6291172029843
464.68213269021953
464.752200836198
464.83888228312134
464.9417257158314
465.0602687886292
465.1940390548945
465.3425548974207
465.50532645744516
465.6818565604377
465.87164163668564
466.0741726347124
466.28893592566703
466.5154141969373
466.75308733330246
467.00143328400304
467.2599289142067
467.5280508394071
467.8052762413414
468.0910836640713
468.3849537889943
468.686370187645
468.9948200512134
469.30979489580477
469.6307912425469
469.9573112717552
470.2888634504694
470.6249631328084
470.96513313262574
471.3089042679887
471.65581587711216
472.0054163054828
472.3572633639671
472.7109247577439
473.06597848598
473.42201321227753
473.7786286059695
474.1354356543857
474.4920569463348
474.8481269271395
475.20329212554225
475.55721135285324
475.90955587482097
476.2600095567622
476.6082689825115
476.9540435477743
477.29705552847014
477.637040124706
477.9737454811306
478.3069326844249
478.6363757386719
478.96186151935615
479.28318970674246
479.60017269938555
479.9126355085877
480.2204156346017
480.5233629253925
480.8213394188064
481.11421916898115
481.4018880578144
481.68424359230175
481.9611946885642
482.23266144338106
482.4985748939997
482.75887676698864
483.0135192168994
483.26246455552143
483.5056849725304
483.7431622483399
483.97488745996714
484.2008606806952
484.42109067428987
484.63559458449964
484.8443976205379
485.04753273921284
485.24504032432054
485.43696786394065
485.6233696263235
485.80430633502533
485.9798448438791
486.1500578123847
486.3150233820916
486.47482485447995
486.6295503708201
486.779292594515
486.92414839645954
487.06421854391084
487.1996073932773
487.330422587213
487.456774756417
487.5787772265569
487.6965457307355
487.8101981278468
487.91985412712654
488.02563501922253
488.1276634141083
488.22606298616546
488.3209582267061
488.4124742041717
488.50073633219955
488.5858701457406
488.66800108540923
488.74725429024966
488.82375439907725
488.8976253605242
488.9689902518659
489.03797110667307
489.10468875133114
489.1692626504729
489.23181076137655
489.2924493973545
489.35129310013
489.40845452116037
489.46404431178723
489.5181710220929
489.5709410083697
489.6224583491093
489.6728247693751
489.72213957337885
489.77049958505773
489.8179990964877
489.8647298239851
489.9107808717011
489.9562387024703
490.0011871156572
490.0457072317486
490.0898774834068
490.1337736126834
490.17746867409375
490.2210330432349
490.264534430626
490.3080379004679
490.3516058940296
490.3952982573397
490.4391722728655
490.4832826948809
490.5276817882314
490.5724193702146
490.6175428553362
490.6630973027
490.7091254657696
490.7556678442188
490.8027627376221
490.8504463008028
490.8987526006713
490.9477136743916
490.99735958873384
491.0477185005116
491.09881671802833
491.1506787634542
491.2033274360507
491.2567838761656
491.31106762992846
491.3661967146095
491.42218768464744
491.4790556983213
491.5368145850207
491.59547691310985
491.6550540584212
491.71555627339797
491.77699275694425
491.8393717250775
491.90270048248783
491.9669854950989
492.03223246372255
492.09844639891446
492.16563169716085
492.23379221850206
492.3029313657283
492.37305216531865
492.4441573502573
492.5162494448229
492.5893308514523
492.6634039398042
492.73847113815833
492.8145350272416
492.8915984364906
492.9696645427645
493.0487369715431
493.12881990062294
493.20991816626497
493.2920373717004
493.3751839978745
493.45936551632445
493.5445905040517
493.6308687601693
493.7182114240819
493.80663109492366
493.8961419518919
493.9867598750863
494.0785025664885
494.1713896706679
494.26544289469206
494.3606861266425
494.4571455521329
494.5548497682421
494.6538298942596
494.7541196785336
494.85575560062074
494.9587769679584
495.0632260062909
495.16914794308053
495.27659108317687
495.38560687598886
495.49624997329977
495.6085782768408
495.72265297474206
495.8385385659662
495.9563028718464
496.0760170338633
496.1977554968289
496.3215959766568
496.4476194119011
496.5759098982995
496.7065546055872
496.8396436759177
496.97527010329657
497.1135295934832
497.25452040383146
497.39834316255025
497.5451006669414
497.69489766026084
497.84784058694254
498.0040373260109
498.1635969026091
498.3266291777016
498.4932445160797
498.66355343284516
498.8376662186626
499.0156925442137
499.1977410443962
499.3839188829285
499.57433129816076
499.7690811310427
499.9682683362736
500.1719894777433
500.3803372094995
500.5933997436135
500.8112603064372
501.0339965848387
501.26168016408434
501.4943759591494
501.73214164137494
501.975027062496
502.223073678112
502.47631397271977
502.73477088853474
502.99845726043304
503.2673752593638
503.54151584659496
503.8208582412015
504.1053694032265
504.3950035349917
504.6897016030631
504.98939088337397
505.2939845319684
505.6033811838235
505.9174645821735
506.23610324062093
506.5591501402128
506.88644246364083
507.21780136867443
507.55303180288047
507.8919223616534
508.2342451914565
508.57975594000294
508.9281937549583
509.2792813326088
509.6327250177581
509.9882149559236
510.34542529866866
510.70401446270165
511.0636254432367
511.4238861819769
511.7844099899104
512.1447960249646
512.5046298244064
512.8634838917154
513.2209183375126
513.5764815739622
513.9297110619665
514.2801341103075
514.627268725795
514.9706245133889
515.3097036251154
515.6440017564415
515.9730091886984
516.2962118761269
516.6130925761013
516.9231320210143
517.2258101302148
517.5206072601496
517.8070054906232
518.0844899447779
518.3525501401638
518.6106813680799
518.8583860982848
519.0951754060726
519.3205704185972
519.5341037771867
519.7353211122281
519.9237825270117
520.0990640868182
520.2607593094536
520.4084806533772
520.5418609996244
520.6605551237652
520.7642411541658
520.8526220128246
520.9254268350902
520.9824123645556
521.0233643193459
521.0480987259106
521.0564632163072
521.0483382849567
521.0236385008106
520.9823136708284
520.9243499506185
520.8497708980507
520.7586384655438
520.6510539266998
520.5271587329051
520.3871352954446
520.2312076885634
520.0596422688171
519.8727482060881
519.6708779216939
519.4544274290224
519.2238365721456
518.9795891579508
518.7222129773802
518.4522797114465
518.1704047178173
517.8772466938734
517.5735072123196
517.2599301256486
516.9373008360108
516.6064454272883
516.2682296564778
515.9235578017616
515.5733713649627
515.2186476264521
514.860398051032
514.4996665437949
514.1375275554434
513.7750840370317
513.4134652446169
513.0538243949065
512.697336173586
512.3451940985727
511.99860774109646
511.6587998081548
511.32700309052825
511.00445728124555
510.692405670181
510.39209172125015
510.1047555394177
509.8316302354963
509.57393819747847
509.3328872778954
509.10966690742623
508.905444145696
508.7213596808998
508.5585237905741
508.41801227651166
508.3008623874396
508.20806874359675
508.1405792779023
508.0992912089682
508.085047061708
508.0986307517131
508.1407637499001
508.2121013441852
508.3132290151121
508.44465894246986
508.60682665999934
508.80008787528425
509.0247154718056
509.2808967099243
509.56873064327186
509.8882257666366
510.2392979109505
510.6217684003819
511.0353624858291
511.47970806834826
511.9543347252333
512.4586730505293
512.9920543207027
513.5537104950612
514.1427745593116
514.7582812193713
515.3991679511819
516.0642764108342
516.7523542078541
517.4620570429886
518.1919512102811
518.94051646155
519.7061492297125
520.4871662058075
521.2818082629159
522.0882447184937
522.9045779249288
523.7288481764077
524.5590389184712
525.3930822450495
526.2288646662391
527.0642331286033
527.89700126832
528.7249558761941
529.5458635523063
530.3574775267435
531.1575446216807
531.9438123290498
532.7140359771105
533.4659859584972
534.1974549916736
534.9062653871578
535.5902762895248
536.2473908660379
536.8755634127784
537.4728063492735
538.0371970728419
538.5668846441815
539.0600962761914
539.515143598656
539.9304286721122
540.304449725142
540.6358065903387
540.9232058153411
541.1654654266252
541.3615193250887
541.5104212939373
541.6113486009393
541.6636051787864
541.6666243690809
541.6199712173186
541.5233443080654
541.3765771313954
541.1796389735065
540.9326353263685
540.635807813403
540.2895336305311
539.894324504349
539.4508251716013
538.9598113865277
538.4221874649409
537.8389833760233
537.2113513948802
536.5405623308145
535.8280013482276
535.0751633990418
534.2836482874203
533.455155389231
532.5914780501728
531.6944976877786
530.7661776235997
529.8085566727294
528.8237425185633
527.8139049012611
526.7812686488724
525.7281065804762
524.6567323109922
523.5694929875295
522.4687619872183
521.3569316063441
520.2364057702752
519.1095927931402
517.9788982156149
516.8467177484631
515.7154303486608
514.5873914539685
513.4649264007694
512.3503240488413
511.2458306355316
510.1536438804879
509.0759073606171
508.0147051733534
506.97205690464426
505.9499129163383
504.9501499659199
503.974567169821
503.0248823197487
502.1027285596198
501.2096514288288
500.3471062757184
499.5164560432553
498.7189694271146
497.9558194046318
497.22808213134846
496.53673620018463
495.8826622567016
495.2666429624048
494.68936329655406
494.1514111855517
493.65327844764596
493.1953620394546
492.7779655897272
492.40130120479665
492.0654915293147
491.7705720451322
491.51649359052186
491.3031250813985
491.1302564157718
490.9976015423667
490.9048016741332
490.8514286272665
490.8369882664232
490.8609240369641
490.92262056527454
491.0214073085424
491.15656223582886
491.32731552279415
491.53285324304045
491.7723210397007
492.0448277615881
492.3494490490587
492.68523085566045
493.051192892554
493.4463319836399
493.86962532026735
494.3200336054228
494.79650407833196
495.29797341149657
495.82337047331276
496.37161895048615
496.94163982544205
497.5323537049099
498.1426829968824
498.7715539341406
499.4178984434531
500.0806558604775
500.75877449125005
501.45121302198464
502.15694177973734
502.8749438472704
503.60421603610064
504.3437697223745
505.09263155086467
505.8498440129681
506.6144659050599
507.38557267393816
508.16225665645055
508.943627220706
509.7288108164962
510.5169509426956
511.30720803946343
512.0987593130892
512.8907985012438
513.6825355862793
514.4731964641304
515.2620225762228
516.0482705115775
516.8312115861277
517.6101314060465
518.3843294216204
519.1531184778877
519.9158243679418
520.6717853944594
521.4203519446103
522.1608860831363
522.8927611681147
523.6153614936871
524.328081963653
525.030327799313
525.7215142843532
526.4010665490111
527.0684193953114
527.723017164642
528.3643136484237
528.9917720421139
529.604864942416
530.203074387284
530.785891938078
531.3528188029402
531.9033660001589
532.4370545600545
532.9534157636509
533.4519914161683
533.9323341531789
534.3940077770704
534.8365876213272
535.259660940031
535.6628273198975
536.0456991120789
536.4079018809547
536.7490748671228
537.068871461811
537.3669596899479
537.6430226992293
537.8967592526416
538.127884221964
538.3361290797518
538.5212423872658
538.6829902757887
538.8211569187101
538.9355449917934
539.0259761190385
539.0922913015938
539.1343513273308
539.1520371588107
539.1452502973898
539.113913121213
539.0579691949624
538.9773835493402
538.8721429284216
538.7422560032022
538.5877535499274
538.4086885920107
538.2051365045724
537.9771950808469
537.7249845598802
537.4486476151226
537.1483493036949
536.8242769762168
536.4766401471902
536.1056703260788
535.7116208094135
535.2947664343953
534.8554032946008
534.3938484185333
533.9104394118622
533.4055340642886
532.8795099220381
532.332763827064
531.7657114240699
531.1787866365405
530.5724411130674
529.9471436454068
529.3033795598203
528.6416500832707
527.9624716860992
527.266375402875
526.553906133189
525.8256219242372
525.0820932371515
524.3239021991204
523.5516418433483
522.7659153388718
521.9673352122832
521.1565225634291
520.334106277082
519.5007222325282
518.6570125130387
517.803624617231
516.9412106743476
516.0704266655374
515.1919316533475
514.3063870216317
513.414455728011
512.516801570903
511.61408847302215
510.70697978311733
509.79613759756216
508.8822221032693
507.96589094331586
507.0477986065344
506.1285958421434
505.20892910031296
504.28943999947404
503.37076482108256
502.4535340324086
501.53837183776295
500.62589575842935
499.71671624142965
498.8114362971479
497.9106511657378
497.0149480121294
496.12490564932637
495.24109428950976
494.36407532225763
493.49440111892727
492.63261486201634
491.77925039810304
490.9348321127128
490.0998748252893
489.27488370238257
488.46035418715394
487.65677194322404
486.8646128108182
486.0843427731383
485.31641793086425
484.56128448268936
483.8193787097942
483.09112696212657
482.3769456443699
481.6772411995373
480.9924100881552
480.3228387609598
479.66890362297926
479.03097098692336
478.4093970139413
477.804527639903
477.2166984854069
476.64623474777926
476.09345107347644
475.55865140953483
475.04212883301966
474.5441653577675
474.06503171797897
473.60498712841115
473.16427902114043
472.7431427591301
472.34180132708
471.9604650002283
471.5993309919691
471.2585830813068
470.9383912212694
470.63891112953496
470.36028386268987
470.1026353756976
469.866076068203
469.65070031925205
469.4565860120689
469.2837940507956
469.13236787153903
469.00233295049907
468.8936963123085
468.80644604198
468.7405508041014
468.69595937306497
468.67260017813743
468.6703808670735
468.68918789185636
468.7288861200734
468.7893184754325
468.8703056109158
468.97164561803726
469.0931137755724
469.2344623409892
469.39542038766564
469.57569369083717
469.7749646650205
469.9928923554867
470.22911248617703
470.4832375662534
470.75485705727453
471.04353760282527
471.3488233222035
471.6702361695386
472.00727635944565
472.35942286001506
472.72613395363936
473.10684786582704
473.50098346185024
473.90794101073794
474.32710301576003
474.7578351102628
475.19948701746915
475.6513935725482
476.1128758048903
476.583242078243
477.061789286077
477.5478040992526
478.0405642627767
478.5393399381363
479.0433950874073
479.55198889513457
480.06437722379013
480.579814098425
481.0975532159179
481.61684947404194
482.1369605154095
482.6571482812259
483.17668056964544
483.69483259343787
484.2108885316267
484.72414306976805
485.2339029235502
485.73948834040823
486.24023457388313
486.7354933255421
487.22463414939335
487.70704581382256
488.1821376161909
488.64934064541166
489.10810898803345
489.5579208735699
489.9982797549881
490.4287153205189
490.8487844332298
491.25807199505147
491.656191732231
492.0427868995114
492.4175309006083
492.78012782284594
493.1303128841561
493.4678527910197
493.79254600632237
494.10422292651276
494.4027459678942
494.68800956234037
494.95994006314066
495.21849556200567
495.46366561855365
495.69547090390734
495.9139627602423
496.11922267822496
496.3113616944508
496.490519711355
496.65686474245865
496.8105920861702
496.95192343174176
497.08110590135334
497.19841103261064
497.3041337059755
497.3985910218375
497.48212113211287
497.5550820314015
497.6178503127574
497.6708198931033
497.71440071331665
497.74901741805496
497.7751080203963
497.7931225563506
497.8035217342118
497.80677558349606
497.8033621079577
497.79376594697936
497.77847704950085
497.7579893646462
497.73279955323596
497.703405724325
497.6703062008095
497.63399831805106
497.59497725930964
497.55373493148016
497.5107588842505
497.4665312754765
497.4215278852964
497.37621718118703
497.3310594358196
497.28650589925985
497.24299802673295
497.2009667628299
497.16083188264537
497.1230013899441
497.0878709721492
497.055823511678
497.02722865292003
497.0024424239444
496.98180691174053
496.96564998952107
496.9542850944088
496.9480110537129
496.9471119578617
496.9518570778411
496.9625008247332
496.97928274868934
497.00242757449377
497.0321452707326
497.0686311494783
497.11206599331405
497.16261620642024
497.22043398639573
497.2856575134722
497.35841115383715
497.4388056738957
497.52693846241743
497.6228937575871
497.7267428760581
497.83854444129173
497.95834460870907
498.08617728543294
498.2220643425523
498.36601581791604
498.5180301074875
498.6780941433587
498.84618355667266
499.022262823876
499.2062853949117
499.398193802241
499.5979197499026
499.8053841821348
500.02049733137835
500.2431587456887
500.4732572957916
500.7106711622781
500.95526780373325
501.2069039068964
501.4654253201937
501.7306669722509
502.00245277729425
502.2805955296144
502.56489678941415
502.85514676246896
503.151124176112
503.45259615414
503.75931809333093
504.07103354433946
504.38747409980795
504.70835929259607
505.03339650709756
505.3622809066766
505.6946953802746
506.0303105112417
506.3687845714478
506.7097635436633
507.0528811750404
507.39775906435386
507.7440067855166
508.0912220497103
508.43899090832247
508.7868879987321
509.13447683482633
509.4813101439954
509.8269302521837
510.1708695183387
510.51265081941966
510.8517880869588
511.1877868960003
511.5201451070565
511.8483535614889
512.1718968305134
512.4902540178686
512.8028996160324
513.1093044156696
513.4089364677845
513.7012620978925
513.9857469713905
514.2618572090724
514.5290605514085
514.7868275698233
515.0346329228511
515.2719566547237
515.4982855336636
515.7131144268699
515.9159477089632
516.1063007004742
516.2837011327326
516.44769063527
516.5978262416359
516.7336819093414
516.8548500495078
516.960943061744
517.0515948697421
517.126462452978
517.1852273698956
517.227597267946
517.2533073758098
517.2621219730516
517.2538358323558
517.2282756294144
517.1853013154588
517.1248074473796
517.0467244703528
516.9510199479616
516.8376997348794
516.7068090872677
516.5584337059863
516.3927007076038
516.2097795181538
516.0098826845336
515.7932665983936
515.5602321273042
515.3111251480144
515.0463369766807
514.7663046910563
514.4715113397546
514.1624860338511
513.8398039162963
513.5040860048131
513.1559989041216
512.7962543835387
512.4256088162376
512.0448624767146
511.6548586934072
511.2564828538314
510.8506612600025
510.438359832283
510.02058266011215
509.59837039840903
509.17279850884466
508.7449753456267
508.3160400859045
507.88716050538403
507.45953060035083
507.03436805794894
506.6129115771837
506.1964180437381
505.78615956235
505.38342035116995
504.9894935031997
504.60567762061777
504.23327332854427
503.8735796755977
503.5278904293862
503.1974902758015
502.88365093169693
502.58762718126343
502.3106528470798
502.05393670745104
501.81865837236666
501.60596413108027
501.41696278485597
501.25272147891815
501.1142615481916
501.00255439196104
500.9185173930433
500.86300989746746
500.83682927102603
500.84070704936147
500.875305198429
500.9412125022914
501.0389410953148
501.16892315585216
501.3315077784052
501.5269580410642
501.7554482847696
502.01706162062385
502.3117876810686
502.6395206301752
503.00005744767776
503.39309650063564
503.81823641576403
504.27497526455716
504.76271007234914
505.28073666139335
505.828249836878
506.4043439235515
507.0080136593479
507.63815545103137
508.2935689954303
508.97295926832646
509.67493888152126
510.39803080703456
511.1406714657851
511.90121417640535
512.6779329581299
513.4690266800142
514.2726235471015
515.086785912435
515.9095154020731
516.7387583385454
517.5724114466005
518.408327823608
519.2443231555006
520.078182157725
520.9076652193405
521.7305152271396
522.5444645454677
523.3472421263276
524.1365807233366
524.9102241821997
525.6659347796218
526.4015005819462
527.1147427943001
527.8035230706854
528.4657507553304
529.0993900257099
529.7024669078165
530.273076134586
530.8093878187808
531.3096539121643
531.7722144234591
532.1955033684216
532.5780544263133
532.9185062781155
533.2156076029748
533.4682217106717
533.6753307893338
533.8360397491581
533.9495796445767
534.0153106590266
534.0327246382776
534.0014471601665
533.9212391305676
533.7919978973886
533.6137578763188
533.3866906839967
533.1111047764314
532.7874445929142
532.4162892081687
531.9983504980313
531.5344708264263
531.0256202637023
530.4728933485916
529.8775054081517
529.2407884520838
528.5641866598062
527.8492514806474
527.0976363693787
526.3110911809324
525.4914562496116
524.6406561793199
523.760693372453
522.8536413260327
521.9216377243939
520.9668773582684
519.9916049005661
518.998107569499
517.988707709982
516.9657553243684
515.9316205836104
514.8886863497758
513.8393407404872
512.7859697653295
511.7309500635887
510.67664177186646
509.6253815491565
508.5794757859695
507.5411940229666
506.512762603245
505.4963585810493
504.4941039082518
503.50805991836245
502.54022212611744
501.5925153589316
500.6667892347005
499.7648139985842
498.8882767294953
498.03877792507893
497.21782847202525
496.4268470066246
495.6671576685452
494.93998824889366
494.24646873169075
493.5876302259989
492.9644042840871
492.3776225992295
491.8280170750654
491.3162202568126
490.8427661130672
490.4080911554144
490.0125358817083
489.65634652762554
489.33967710992005
489.0625917437787
488.8250672157866
488.62699579323044
488.46818824980966
488.34837708730464
488.2672199323318
488.2243030870175
488.2191452122499
488.25120112210453
488.31986566809593
488.42447769210355
488.5643240271471
488.73864352556114
488.9466310946297
489.1874417203777
489.4601944609034
489.76397639138605
490.0978464837992
490.46083940533543
490.85196922050625
491.27023298285866
491.714614203339
492.18408618350213
492.6776152029145
493.1941635512332
493.732692396681
494.2921644839209
494.87154665548957
495.46981219211375
496.08594296843705
496.71893142184194
497.36778233317074
498.03151441922154
498.70916173797275
499.3997749085247
500.10242214870027
500.81619013418833
501.5401846840033
502.2735312778348
503.0153754116123
503.7648827983153
504.52123942170795
505.28365145123354
506.0513450267965
506.8235659225587
507.5995790991986
508.37866815437764
509.1601346814081
509.9432975462496
510.7274920930132
511.5120692881792
512.2963948137276
513.0798481192344
513.8618214427819
514.6417188103418
515.418955023049
516.1929546415091
516.9631509759407
517.7289850905713
518.4899048302929
519.2453638771002
519.9948208433555
520.7377384084283
521.4735825047735
522.2018215589803
522.9219257927964
523.6333665885791
524.3356159230659
525.0281458727885
525.7104281939568
526.3819339791256
527.0421333923707
527.6904954840729
528.3264880858544
528.9495777856965
529.5592299827745
530.1549090210729
530.7360784004239
531.302201063208
531.8527397545771
532.3871574537457
532.9049178735977
533.4054860255956
533.8883288467306
534.3529158850389
534.7987200400012
535.2252183539678
535.6318928506673
536.0182314166846
536.3837287217079
536.7278871733505
537.0502179024434
537.3502417747569
537.6274904251144
537.8815073097871
538.1118487729445
538.3180851227868
538.4998017128761
538.6566000242104
538.7880987436866
538.8939348346661
538.9737645953747
539.0272647009388
539.0541332248924
539.0540906360715
539.0268807669445
538.9722717496168
538.8900569159437
538.7800556583528
538.642114248203
538.4761066088194
538.2819350406522
538.0595308962313
537.8088552027759
537.5298992305312
537.2226850050536
536.8872657618435
536.5237263418812
536.1321835268026
535.7127863126265
535.2657161211096
534.7911869480187
534.289445447811
533.7607709543447
533.2054754373638
532.62390339465
532.0164316798911
531.3834692664117
530.7254569470375
530.0428669704979
529.3362026148966
528.6059976989422
527.8528160317652
527.0772508022596
526.2799239090409
525.4614852322495
524.6226118484827
523.764007190229
522.886400151309
521.9905441399883
521.0772160815205
520.1472153720124
519.201362785641
518.2404993373405
517.2654851031831
516.2771980007847
515.2765325321898
514.2643984918133
513.2417196421085
512.2094323597374
511.1684842551026
510.11983276813686
509.06444374332574
508.0032899869782
506.93734980981844
505.8676055580006
504.79504213568356
503.7206455223185
502.64540128778674
501.57029310853994
500.4963012879134
499.42440128378115
498.3555622466957
497.2907455716461
496.23090346651225
495.17697754026403
494.1298974139374
493.0905793573502
492.05992495441114
491.0388197998246
490.02813222998276
489.02871209076767
488.04138954483903
487.06697392086187
486.10625260703256
485.1599899911475
484.22892644929453
483.3137773851568
482.41523232179287
481.5339540475608
480.67057781771587
479.82571061310534
478.9999304572577
478.19378579301826
477.4077949197533
476.6424454919926
475.898194080213
475.1754657942914
474.47465397001565
473.79611991888623
473.1401927412605
472.5071692027125
471.8973136733484
471.3108581296623
470.7480022183681
470.20891338154337
469.6937270422456
469.2025468495529
468.73544498186004
468.29246250719405
467.8736097992114
467.4788670073788
467.10818457972067
466.7614838364314
466.4386575925261
466.1395708275734
465.8640614004655
465.6119408070921
465.3829949786765
465.176985118498
464.99364857470005
464.8326997468204
464.6938310236141
464.5767137496752
464.4809992183181
464.4063196881629
464.3522894208636
464.31850573743856
464.304550090662
464.30998915094716
464.33437590311064
464.3772507514121
464.4381426303359
464.5165701186352
464.61204255418244
464.7240611472405
464.85212008983007
464.99570765892537
465.1543073112248
465.32739876726424
465.5144590827337
465.7149637049479
465.9283875124659
466.15420583587746
466.391895457869
466.64093559077315
466.90080882990515
467.1710020810717
467.45100746077594
467.74032316771246
468.0384543241651
468.34491378598165
468.6592229199265
468.9809123473148
469.3095226528818
469.64460505789356
469.985722056615
470.3324480153654
470.6843697334363
471.0410869651381
471.4022129023272
471.7673746169235
472.1362134630033
472.50838543808635
472.8835615032844
473.26142786206975
473.6416861974973
474.0240538677829
474.4082640602532
474.79406590373804
475.1812245394693
475.56952115057857
475.9587529503746
476.34873312964623
476.7392907632857
477.1302706766127
477.52153327183873
477.9129543151496
478.3044246849531
478.6958500818961
479.0871507013176
479.4782608688513
479.86912863992416
480.259715363935
480.649995213977
481.0399546830447
481.429592047725
481.81891680041184
482.2079490511648
482.5967189004409
482.9852657840102
483.3736377913685
483.76189095899394
484.15008853988854
484.5383002509081
484.9266014994605
485.31507259127244
485.7037979210398
486.092865147827
486.48236435712255
486.8723872115502
487.2630260922927
487.6543732333339
488.0465198506719
488.4395552687178
488.8335660461693
489.22863510369405
489.62484085579797
490.0222563493155
490.42094841099885
490.8209768067224
491.2223934148591
491.6252414164035
492.0295545043976
492.4353561152268
492.84265868439036
493.251462929346
493.6617571620201
494.07351663359225
494.4867029141312
494.9012633095757
495.31713031848
495.73422113086644
496.152437171457
496.57166368949817
496.99176939729176
497.41260615938836
497.83400873430867
498.2557945705848
498.6777636587779
499.09969844095366
499.5213637789003
499.9425069822029
500.3628578970921
500.7821290567852
501.2000158938576
501.61619701500734
502.0303345383962
502.4420744936015
502.8510472840906
503.25686821194586
503.6591380643871
504.0574437615017
504.45135906444585
504.84044534321384
505.2242524029326
505.60231936753604
505.974175619577
506.3393417948212
506.6973308301476
507.04764906318536
507.3897973820139
507.723272423207
508.0475678164722
508.36217547401617
508.66658692253793
508.96029467554064
509.24279364342345
509.5135825785311
509.77216555205456
510.01805345950567
510.25076555144585
510.46983098606313
510.6747904000045
510.86519749370166
511.0406206273276
511.2006444234091
511.3448713720487
511.4729234347053
511.58444364243724
511.67909768451045
511.7565754833546
511.8165927519164
511.8588925294655
511.8832466918758
511.8894574323577
511.8773587085294
511.8468176516001
511.7977359333953
511.73005108692837
511.6437377761554
511.5388090105403
511.41531730004317
511.27335574609924
511.113059064103
510.934604532818
510.7382128660479
510.52414900182697
510.29272280440415
510.04428967433944
509.77925106202275
509.49805487989823
509.20119580872796
508.88921549329285
508.56270262298773
508.22229289285184
507.86866884067337
507.5025595558754
507.12474025600835
506.73603172689474
506.33729962274487
505.9294536227942
505.5134464412696
505.0902726877852
504.6609675756262
504.2266054757848
503.78829831501156
503.34719381654116
502.9044735826262
502.4613510185638
502.0190690984144
501.5788979731237
501.14213242235024
500.71008915198365
500.28410393997865
499.8655286337469
499.45572800300937
499.0560764527415
498.66795460157573
498.2927457317804
497.9318321177304
497.5865912405979
497.25839189779856
496.94859021651433
496.6585255813758
496.38951648708434
496.1428563274974
495.9198091334715
495.7216052724584
495.54943712352946
495.40445474212635
495.287761529459
495.2004099220707
495.1433971176634
495.1176608537465
495.1240752560416
495.1634467739224
495.23651022046005
495.3439249348535
495.48627108514137
495.6640461291008
495.87766145120867
496.12743919349
496.41360929785407
496.73630677715397
497.09556923179133
497.49133462817565
497.92343935473855
498.39161657047123
498.8954948601421
499.4345972094545
500.0083403124259
500.61603422220486
501.25688235538684
501.92998185866475
502.63432434531063
503.3687970075596
504.1321841094977
504.9231688634462
505.740335691198
506.58217286979584
507.4470755598184
508.3333492124358
509.23921334977103
510.16280571130886
511.102186757279
512.0553445181919
513.020199777972
513.9946115763537
514.9763830144992
515.9632673461679
516.9529743351821
517.9431768584385
518.9315177322788
519.9156167386483
520.8930778261459
521.8614964598951
522.8184670930643
523.7615907319209
524.6884825654718
525.596779630053
526.4841484787463
527.3482928251676
528.186961131031
528.9979541068708
529.77913209535
530.5284223067949
531.2438258769167
531.923424717167
532.5653881288249
533.1679791526994
533.7295606272809
534.2486009291514
534.7236793706348
535.1534912310005
535.5368523989861
535.8727036059122
536.1601142302726
536.3982856564554
536.5865541721184
536.724393390646
536.8114161870894
536.847376137899
536.8321684567538
536.7658304210026
536.6485412856988
536.4806216847635
536.2625325214196
535.9948733526488
535.6783802749754
535.3139233211842
534.9025033797448
534.4452486508593
533.9434106553011
533.3983598143767
532.8115806214087
532.1846664270003
531.5193138620227
530.8173169237218
530.0805607516265
529.3110151210647
528.5107276829549
527.6818169793269
526.8264652647578
525.9469111645546
525.0454422009955
524.1243872193234
523.1861087454735
522.2329953075429
521.2674537528674
520.2919015922813
519.3087594026279
518.3204433179247
517.3293576387756
516.3378875887308
515.3483922453194
514.3631976723627
513.3845902789795
512.4148104292774
511.4560463252082
510.5104281834632
509.580022725616
508.6668279989527
507.7727685436349
506.89969091994465
506.0493596074057
505.2234532856357
504.4235615048575
503.6511817520208
502.9077169164753
502.1944731571354
501.512658171103
500.86337986178853
500.2476454027048
499.6663606912809
499.1203301852121
498.6102571121459
498.13674404192017
497.70029380906277
497.3013107718227
496.9401023927176
496.6168811244002
496.33176658354296
496.0847879944421
495.875886883219
495.70492000280586
495.57166246829956
495.4758110818126
495.41698782561184
495.39474350213163
495.408561499383
495.4578616602616
495.5420042343654
495.66029389117864
495.81198377389194
495.9962795736471
496.21234360456674
496.4592988605515
496.73623303558526
497.0422024901754
497.3762361474588
497.7373393034712
498.1244973370763
498.5366793060921
498.97284141724015
499.43193035871656
499.91288648537136
500.4146468476663
500.936148056771
501.47632897935097
502.0341332568458
502.60851164521966
503.1984241722677
503.80284211069767
504.420749766366
505.0511460821213
505.693046058739
506.3454819953883
507.007504553019
507.6781836449401
508.35660915967736
509.0418915219542
509.7331620983304
510.4295734546317
511.13029947281507
511.83453533538994
512.541497385949
513.2504228747484
513.9605695985865
514.671215444475
515.3816578467753
516.0912131675761
516.7992160100974
517.5050184748608
518.2079893683011
518.9075133733758
519.6029901914858
520.2938336647751
520.9794708876369
521.6593413159363
522.3328958820617
522.9995961235123
523.6589133322718
524.3103277317213
524.953327687388
525.5874089573692
526.2120739878341
526.8268312584731
527.4311946822019
528.0246830629164
528.6068196145624
529.1771315441829
529.7351497010495
530.2804082934
530.8124446737862
531.3307991935307
531.8350151263345
532.3246386606445
532.7992189599468
533.2583082897157
533.7014622093664
534.1282398272019
534.5382041160667
534.9309222871728
535.305966219301
535.6629129403316
536.0013451579176
536.3208518359803
536.6210288135337
536.9014794622364
537.1618153790139
537.4016571101286
537.6206349031394
537.8183894832573
537.9945728505787
538.1488490945818
538.2808952221081
538.3904019949628
538.4770747731937
538.5406343600607
538.5808178447367
538.5973794388652
538.5900913031696
538.5587443603753
538.5031490907536
538.4231363066505
538.3185579024622
538.1892875766238
538.0352215223771
537.856279084344
537.6524033782259
537.4235618712128
537.1697469209572
536.8909762711817
536.5872935021566
536.2587684345169
535.9054974850146
535.5276039729041
535.1252383757334
534.6985785334987
534.2478298003402
533.773225143159
533.2750251866887
532.7535182046972
532.2090200571093
531.6418740729571
531.0524508792217
530.4411481757041
529.8083904561754
529.1546286761683
528.480339867879
527.7860267027304
527.07221700227
526.3394631981799
525.5883417422859
524.8194524675802
524.0334179013494
523.2308825315637
522.4125120277804
521.5789924178938
520.7310292221699
519.8693465461089
518.9946861337847
518.1078063833714
517.2094813266392
516.3004995743505
515.3816632296093
514.4537867713115
513.5176959098906
512.5742264176546
511.6242229360368
510.66853776214305
509.7080296170728
508.7435623985712
507.77600392059327
506.8062246423946
505.83509638981957
504.86349107146765
503.8922793924287
502.92232956830435
501.95450604219263
500.98966820734347
500.0286691382477
499.072354332907
498.1215604689806
497.17711417649326
496.23983082977867
495.31051336131725
494.38995110009677
493.478918637035
492.57817471994025
491.688461180436
490.81050189519624
489.94500178379366
489.0926458454178
488.2540982366256
487.4300013921509
486.620975190709
485.8276161676349
485.05049677604285
484.29016469804117
483.5471422074355
482.8219255852622
482.1149845893486
481.42676197893184
480.757673095235
480.1081054987602
479.47841866394253
478.86894373167564
478.2799833201026
477.7118113938951
477.16467319210903
476.63878521456894
476.13433526659543
475.6514825617651
475.19035788226057
474.7510637961773
474.3336749309705
473.9382383021013
473.56477369582245
473.2132741049249
472.8837062161318
472.5760109477016
472.29010403566514
472.0258766670041
471.7831961579745
471.5619066756566
471.3618300006643
471.18276632882134
471.0244951094982
470.8867759182159
470.7693493610463
470.67193800828164
470.5942473547703
470.53596680424306
470.4967706748672
470.47631922316424
470.4742596834012
470.49022731957194
470.52384648702315
470.5747317007426
470.6424887073382
470.7267155577239
470.82700367753876
470.9429389323094
471.0741026843495
471.22007283840173
471.38042487305484
471.5547328550276
471.7425704334899
471.9435118116607
472.1571326929924
472.38301119930907
472.6207287583196
472.86987095799685
473.13002836540863
473.4007973076637
473.68178061275603
473.972588308219
474.27283827564924
474.58215685927746
474.9001794268627
475.22655088130983
475.5609261215728
475.902970451573
476.2523599360368
476.6087817023381
476.9719341875685
477.3415273301709
477.7172827056569
478.098933606135
478.4862250635762
478.8789138169532
479.27676822356915
479.67956811504473
480.0871045985939
480.4991798044168
480.91560658028425
481.33620813458106
481.7608176292157
482.1892777239709
482.6214400740835
483.0571647829993
483.4963198124037
483.93878035181626
484.38442815019437
484.83315081215346
485.28484106161477
485.73939597588844
486.19671619334275
486.6567050978656
487.11926798340795
487.58431120201544
488.0517412988618
488.52146413792104
488.9933840219951
489.4674028108312
489.94341904113276
490.42132705233826
490.90101612207036
491.3823696151491
491.8652641500568
492.349568786721
492.8351442394215
493.3218421185409
493.8095042048087
494.29796175961656
494.7870348749003
495.27653186594506
495.76624871034113
496.255968536198
496.7454611626127
497.2344826952132
497.72277517943866
498.21006631403463
498.6960692270355
499.18048231624175
499.662989155913
500.14325847111667
500.62094418089606
501.09568551119827
501.5671071782482
502.0348196427858
502.49841943532425
502.95748955239134
503.4115999235054
503.860307948422
504.3031591039801
504.73968761963255
505.1694172205375
505.59186193693944
506.00652697837177
506.41290967101685
506.8105004564377
507.19878394978537
507.5772400553748
507.94534513739217
508.3025732434522
508.64839737861433
508.98229082729836
509.3037285202988
509.61218844377316
509.9071530867822
510.1881109236932
510.4545579275607
510.70599911052034
510.941950087182
511.1619386568776
511.36550640045215
511.5522102871644
511.7216242872026
511.8733409852566
512.006973190578
512.1221555389964
512.2185460824544
512.2958278616994
512.3537104578631
512.391931518746
512.4102582556413
512.4084889065293
512.3864541614688
512.3440185459787
512.2810817582024
512.1975799556518
512.093486987318
511.9688155669627
511.82361838348436
511.65798914432537
511.4720635478722
511.2660201807797
511.0400813360971
510.79451374808684
510.52962923964856
510.24578527828163
509.94338543651577
509.62287975276223
509.28476498866036
508.92958477910065
508.5579296711539
508.17043704823413
507.767790935962
507.3507216862967
506.9200055366387
506.476464040767
506.0209633686338
505.55441347226343
505.0777671152408
504.59201876346833
504.0982033350911
503.597394807811
503.0907046821992
502.57928029998425
502.0643030166667
501.54698622819217
501.0285732518482
500.51033506205727
499.9935678822352
499.47959063437673
498.96974224858144
498.4653788352909
497.9678707235854
497.47859936951517
496.99895413907353
496.53032897109637
496.0741189260731
495.6317166275481
495.20450860347256
494.79387153554137
494.4011684252177
494.0277446858304
493.6749241708008
493.3440051487576
493.03625623694785
492.7529123049804
492.4951703615778
492.26418543760417
492.06106647919995
491.88687226538485
491.74260736499497
491.62921814823386
491.54758886849066
491.4985378304278
491.4828136605964
491.5010916970058
491.5539705142041
491.6419686004929
491.7655212038375
491.92497736291426
492.1205971395539
492.35254906856784
492.6209078405364
492.92565223264387
493.2666633021381
493.643722856385
494.05651221271535
494.5046112604143
494.9874978362899
495.50454742424176
496.0550331881381
496.63812634611946
497.25289689322494
497.8983146779657
498.5732508370696
499.2764795911789
500.0066804027753
500.76244049603093
501.5422577367034
502.34454386855975
503.16762810111385
504.0097610417844
504.86911896394236
505.74380840068903
506.63187105253445
507.53128899550126
508.43999017463005
509.35585416632443
510.27671819146065
511.2003833597462
512.1246211244656
513.0471799254888
513.9657919971621
514.8781803165191
515.7820656662066
516.6751737856238
517.5552425829984
518.4200293804522
519.2673181636225
520.0949268071421
520.9007142471573
521.6825875720336
522.4385090024226
523.1665027320686
523.8646616010969
524.5311535739787
525.1642279949078
525.7622215940266
526.3235642187548
526.8467842654733
527.3305137879817
527.7734932603713
528.1745759732886
528.5327320440213
528.8470520223432
529.1167500756508
529.34116673862
529.5197712144861
529.6521632168772
529.7380743429324
529.7773689703918
529.7700446735215
529.7162321551106
529.6161946943022
529.4703271125509
529.2791542624609
529.0433290465351
528.7636299749693
528.4409582736911
528.0763345559901
527.6708950732382
527.2258875622729
526.7426667088904
526.222689248601
525.6675087273112
525.0787699459415
524.4582031141921
523.8076177396824
523.1288962795358
522.4239875821876
521.6949001479194
520.9436952372403
520.1724798567705
519.3833996526354
518.5786317415802
517.7603775100442
516.930855411288
516.0922937903583
515.2469237661488
514.3969721991962
513.5446547731219
512.6921692168092
511.8416886934681
510.9953553816173
510.1552742717929
509.3235072015222
508.5020671497117
507.6929128100657
506.89794346145936
506.11899415148747
505.35783120768224
504.61614808911077
503.89556158921886
503.19760839893235
502.5237420371269
501.8753301536838
501.25365220848727
500.6598975278201
500.0951637377562
499.5604555724074
499.05668405315816
498.5846660332521
498.1451241003577
497.73868682812054
497.36588936622945
497.02717435713566
496.7228931662669
496.45330741133307
496.218590775194
496.0188310857672
495.85403264556084
495.72411879264007
495.6289346741758
495.5682502131702
495.5417632485635
495.5491028286262
495.5898326373636
495.6634545336198
495.769412182618
495.9070947598636
496.0758407076474
496.27494152477664
496.5036455706103
496.7611618650205
497.0466638665851
497.35929321206146
497.6981634009792
498.0623634100652
498.4509612231726
498.8630072633834
499.2975377149753
499.75357772401935
500.23014446747464
500.72625008172906
501.2409044426391
501.7731177902976
502.3219031928858
502.8862788450575
503.4652701974147
504.0579119147421
504.66324966171237
505.2803417158267
505.90826040839187
506.54609339528497
507.19294476012277
507.8479359532836
508.51020657107097
509.17891498004366
509.85323879221517
510.53237519745244
511.21554116000175
511.90197348658654
512.5909287739347
513.2816832439321
513.9735324749367
514.6657910380641
515.3577920473929
516.0488866331617
516.7384433470743
517.4258475088499
518.1105005031208
518.7918190356755
519.469234357873
520.1421914678333
520.8101482967807
521.4725748886392
522.1289525806206
522.7787731921651
523.421538229202
524.0567581102658
524.6839514205448
525.3026441994988
525.9123692672393
526.51266559437
527.1030777195176
527.683155218293
528.2524522268963
528.8105270231266
529.3569416670831
529.8912617032661
530.413055925241
530.9218962035332
531.417357376987
531.8990172073836
532.3664563966375
532.8192586655412
533.2570108927075
533.6793033120485
534.0857297668822
534.4758880184685
534.849380106511
535.2058127589695
535.54479784833
535.8659528913278
536.1689015890403
536.4532744042174
536.718709172637
536.9648517452259
537.1913566577081
537.3978878245885
537.584119254325
537.7497357825159
537.8944338198695
538.0179221115812
538.1199225046049
538.2001707192144
538.2584171212745
538.2944274917276
538.3079837898908
538.2988849072078
538.2669474080637
538.2120062543013
538.1339155101339
538.0325490242908
537.9078010864165
537.7595870549454
537.5878439538415
537.3925310358194
537.1736303099336
536.9311470317018
536.6651101540986
536.3755727378879
536.0626123199121
535.7263312380613
535.3668569117239
534.9843420766292
534.5789649731588
534.1509294873507
533.700465243978
533.2278276511682
532.733297896151
532.2171828918165
531.6798151738598
531.1215527484026
530.5427788900539
529.9439018904515
529.3253547573837
528.6875948647051
528.0311035533948
527.3563856842176
526.6639691425388
525.9544042959294
525.2282634052758
524.4861399901979
523.7286481496774
522.956421838905
522.1701141034357
521.3703962718371
520.5579571081222
519.7335019253069
518.8977516615129
518.051441920128
517.1953219757414
516.3301537476862
515.4567107431063
514.5757769715124
513.6881458328683
512.7946189813634
511.896005167127
510.99311905823095
510.0867800454045
509.17781103194307
508.2670372113767
507.35528483554486
506.4433799757648
505.5321472798123
504.6224087274632
503.71498238737047
502.81068117809514
501.91031163611893
501.0146726936499
500.1245544690443
499.24073707269577
498.36398943125323
497.4950681330035
496.6347162972193
495.78366247025383
494.9426195510714
494.1122837488086
493.29333357491373
492.48642887232495
491.69220988403555
490.91129636330095
