485.9999999999998
486.3777985024028
486.7557028342912
487.133817866249
487.5122465541063
487.8910889891716
488.27044145754735
488.65039551147623
489.0310370556212
489.4124454511565
489.79469264053523
490.17784229577774
490.5619489930741
490.9470574164411
491.3332015931402
491.7204041635032
492.10867568773944
492.4980139922054
492.8884035575349
493.27981495095503
493.67220430498014
494.0655128445149
494.459666464266
494.85457535828897
495.25013370338877
495.6462193979025
496.0426938571912
496.43940186701
496.8361714957945
497.23281406673493
497.62912419031284
498.0248798578105
498.41984259617453
498.81375768444786
499.2063544317958
499.59734651697664
499.98643238893897
500.3732957280484
500.7576059672269
501.13901887197625
501.51717717801614
501.89171128507354
502.2622400051362
502.62837136331467
502.98970344927454
503.345825317021
503.69631793065264
504.04075515358426
504.37870477859457
504.7097295959629
505.03338849689214
505.3492376093581
505.656831463486
505.9557241835308
506.24547070350764
506.5256280034806
506.7957563635306
507.0554206324959
507.3041915086931
507.5416468298871
507.7673728697537
507.98096563798646
508.18203218107675
508.37019188069996
508.5450777465843
508.70633770070884
508.8536358496656
508.98665374203614
509.10509160764565
509.20866957557547
509.29712886784165
509.37023296564047
509.427768745055
509.46954757919207
509.4954064039034
509.50520874439945
509.4988457002884
509.4762368868024
509.43733133010556
509.3821083146741
509.31057818086214
509.22278307091807
509.118797621793
508.99872960313434
508.8627204989116
508.710946031147
508.54361662420206
508.36097780807705
508.1633105592322
507.9509315774436
507.72419349717586
507.4834850319077
507.22923104981334
506.96189257917916
506.68196674194394
506.3899866137796
506.0865210091506
505.772174189775
505.4475854948414
505.1134288912334
504.77041244195635
504.41927769093166
504.06079896229596
503.69578257233064
503.32506595214454
502.9495166793235
502.57003141688
502.1875347579116
501.8029779744581
501.4173376692313
501.0316143290888
500.64683077930147
500.2640305378375
499.884276069117
499.50864693699424
499.13823785700083
498.7741566481587
498.4175220850119
498.06946165089
497.7311091937386
497.4036024862644
497.0880806926088
496.78568174426846
496.49753962852066
496.22478159315233
495.9685252718471
495.7298757351919
495.5099224728807
495.3097363132449
495.1303662868085
494.97283644118556
494.83814261522997
494.72724918089494
494.6410857618392
494.5805439384551
494.54647394961194
494.53968140194365
494.5609239980038
494.61090829509783
494.6902865070436
494.7996533614996
494.9395430258593
495.1104261151059
495.31270679530434
495.54671999662435
495.812728749952
496.11092166124615
496.44141053782073
496.804228180693
497.19932635700496
497.626573966303
498.0857554141286
498.57656920595457
499.09862677401935
499.6514515490525
500.2344782882352
500.8470526700178
501.4884311656543
502.1577811964727
502.8541815849461
503.57662330657723
504.32401054847446
505.0951620792995
505.8888129340062
506.70361641546555
507.5381464137178
508.3909000422145
509.2603005889756
510.14470077906685
511.0423863432633
511.95157988628404
512.8704450464996
513.7970909374692
514.7295768601443
515.6659172731079
516.6040870067969
517.5420267062862
518.4776484858264
519.4088417769976
520.3334793510849
521.2494234951256
522.1545323199938
523.0466661778277
523.9236941651849
524.783500687463
525.6239920594267
526.443103116085
527.2388038076857
528.0091057523352
528.7520687197117
529.4658070193947
530.1484957674209
530.7983770048608
531.4137656425605
531.9930552067051
532.5347233605015
533.0373371780219
533.4995581470944
533.9201468791804
534.2979675052887
534.6319917381555
534.9213025821883
535.1650976740683
535.3626922383445
535.5135216439656
535.6171435493397
535.6732396251172
535.6816168454284
535.6422083398527
535.5550738001687
535.4203994380506
535.2384974921283
535.0098052852127
534.7348838348453
534.4144160226178
534.0492043299188
533.6401681498724
533.188340687211
532.694865459756
532.1609924171103
531.5880736940825
530.9775590181621
530.3309907919921
529.6499988731638
528.9362950748023
528.1916674114107
527.417974115301
526.6171374496955
525.7911373453169
524.9420048878358
524.0718156840024
523.1826831345837
522.2767516424492
521.3561897841978
520.4231834736202
519.4799291450754
518.5286269844852
517.5714742351412
516.6106586048451
515.6483518001195
514.6867032123783
513.7278337799954
512.7738300491383
511.8267384550512
510.8885598441456
509.9612442557961
509.04668598121907
508.1467189152553
507.2631122153654
506.39756628053715
505.55170906102865
504.7270927080569
503.9251905707375
503.1473945458381
502.3950127841554
501.66926775546347
500.9712946721224
500.3021402697795
499.6627619419513
499.05402722355234
498.4767136167684
497.9315087511626
497.4190108684934
496.93972962131073
496.49408717306073
496.08241958625354
495.70497848413567
495.3619329702619
495.0533717894956
494.77930571325095
494.53967013113703
494.3343278306074
494.1630719457854
494.025629056301
493.921662416743
493.8507752972322
493.81251441561903
493.80637344190535
493.8317965557561
493.8881820383544
493.9748858802767
494.09122538759834
494.23648276905965
494.4099086877999
494.6107257619108
494.8381319988612
495.0913041497374
495.36940097016077
495.67156637573737
495.9969324809356
496.34462251137523
496.71375358059356
497.1034393233548
497.5127923786723
497.94092671683484
498.3869598058
498.8500146133807
499.3292214427058
499.82371959945965
500.33265889042093
500.8552009537995
501.39052042286033
501.93780592525843
502.4962609213623
503.0651043856368
503.6435713359187
504.2309132161106
504.8263981384391
505.4293109919542
506.03895342444605
506.6546437053828
507.2757164778636
507.9015224079572
508.5314277400843
509.16481376731343
509.8010762255835
510.4396246209542
511.07988149900297
511.72128166549135
512.3632713673531
513.0053074428954
513.6468564499178
514.2873937802171
514.9264027686862
515.5633738049237
516.1978034549633
516.8291936003139
517.4570506010996
518.0808844896667
518.7002082006098
519.3145368426949
519.9233870177089
520.52627619083
521.1227221166585
521.7122423245564
522.2943536664569
522.8685719298117
523.4344115178567
523.9913851988733
524.5390039255865
525.0767767253275
525.6042106611441
526.120810863653
526.6260806330104
527.119521610005
527.6006340148999
528.0689169523555
528.5238687804423
528.9649875414568
529.3917714519476
529.8037194491485
530.2003317908244
530.5811107054137
530.9455610891854
531.2931912470175
531.6235136733052
531.936045869574
532.230311195485
532.5058397500527
532.762169279922
532.9988461114685
533.2154261033717
533.411475616134
533.586572494861
533.7403070614943
533.8722831126167
533.9821189189544
534.0694482227423
534.1339212292046
534.1752055884201
534.1929873638429
534.1869719837146
534.1568851716952
534.1024738531981
534.0235070341205
533.9197766488753
533.7910983748571
533.6373124106333
533.4582842153277
533.2539052068585
533.0240934168816
532.7687941004539
532.4879802986029
532.181653352153
531.849843365282
531.4926096173853
531.1100409219389
530.7022559312089
530.2694033858406
529.8116623085031
529.3292421408476
528.822382823105
528.2913548157493
527.7364590627295
527.1580268958975
526.5564198803809
525.9320296007915
525.2852773882431
524.6166139882401
523.9265191696088
523.2155012748526
522.4840967124937
521.7328693921214
520.9624101029466
520.1733358366964
519.3662890559057
518.5419369088261
517.7009703922223
516.8441034634128
515.9720721031129
515.0856333308046
514.18556417444
513.2726605963637
512.3477363775115
511.41162196205545
510.4651632647495
509.5092204433628
508.5446666387672
507.57238668534745
506.59327579443084
505.60823821353483
504.6181858643318
503.62403696228955
502.6267146209864
501.62714544413785
500.6262581084165
499.6249819402063
498.6242454894874
497.6249751040474
496.62809350720147
495.6345183821955
494.64516096644763
493.660924658771
492.6827036427197
491.71138152915097
490.7478300210435
489.7929076035408
488.8474582621291
487.9123102317655
486.98827477969445
486.0761450245871
485.1766947945341
484.29067752636126
483.4188252086002
482.56184737030264
481.7204301178019
480.89523522141235
480.08689925392605
479.2960327826313
478.52321961642485
477.7690161094095
477.0339505221878
476.31852244187286
475.6232022616869
474.94843072089657
474.2946185057193
473.66214591169313
473.05136256783413
472.4625872227211
471.8961075925039
471.35218027071977
470.83103069964517
470.3328532026962
469.8578110772368
469.4060367470141
468.9776319732934
468.57266812361013
468.19118649691956
467.8331987037903
467.4986871001701
467.1876052731646
466.89987857721354
466.6354047189893
466.3940543892278
466.1756719395512
465.9800761022163
465.8070607506563
465.65639569867227
465.5278275360813
465.4210804985413
465.3358573691917
465.2718404097017
465.2286923182391
465.20605721183375
465.2035616306151
465.2208155614106
465.2574134782097
465.31293539702403
465.38694794265945
465.47900542492675
465.58865092184726
465.7154173674276
465.8588286415882
466.01840065984027
466.193642460321
466.3840572858021
466.58914365828826
466.80839644385827
467.0413079054662
467.2873687415384
467.54606910827385
467.81689962360736
468.0993523508518
468.392921760107
468.69710566560207
469.01140613717666
469.33533038412
469.66839160961644
470.0101098341479
470.3600126862908
470.71763615940483
471.08252533277835
471.45423505588144
471.8323305944989
472.21638823762044
472.605995864056
473.00075346779266
473.4002736411903
473.8041820151724
474.21211765563356
474.6237334153717
475.03869624094654
475.4566874339418
475.8774028661747
476.30055314847175
476.72586375273687
477.1530750871536
477.58194252446856
478.0122363834244
478.4437418635151
478.87625893335604
479.30960217303084
479.74360057082464
480.1780972748139
480.6129492998931
481.0480271909977
481.48321464343974
481.9184080813566
482.35351619534833
482.78845944052614
483.2231694963488
483.6575886897347
484.09166938300757
484.5253733283606
484.95867099062303
485.3915408402243
485.8239686183846
486.255946576679
486.68747269322694
487.1185498678236
487.5491850984108
487.9793886413752
488.4091731582208
488.838552851296
489.26754259140733
489.69615704021214
490.12440977031036
490.5523123860374
490.979873647998
491.4070986044169
491.83398773243914
492.26053609257684
492.68673249950933
493.1125587124372
493.53798864818964
493.9629876203022
494.38751160725343
494.8115065529805
495.23490770274014
495.65763897732774
496.0796123885859
496.5007274990061
496.9208709281349
497.3399159083738
497.75772189263665
498.1741342161596
498.5889838146063
499.00208700042975
499.41324529926277
499.8222453479153
500.22885885535226
500.6328426278477
501.0339386592806
501.43187428730045
501.82636241586664
502.21710180443125
502.6037774237758
502.9860608782276
503.3636108937014
503.7360738707115
504.1030845012074
504.46426644783423
504.81923308398484
505.1675882927953
505.50892732299184
505.84283769923246
506.16890018436794
506.4866897908697
506.7957768384846
507.0957280550393
507.38610771725797
507.666478828385
507.9364043293473
508.19544834012197
508.44317742785756
508.6791618982472
508.90297710674764
509.11420478640053
509.31243438907694
509.4972644368346
509.66830387984623
509.8251734572074
509.96750705686145
510.0949530708054
510.20717574169873
510.3038564970335
510.3846952671038
510.44941178307425
510.4977468514501
510.52946360124537
510.5443487001719
510.5422135362149
510.5228953610945
510.4862583923314
510.4321948709157
510.36062607186466
510.271503265226
510.16480862526276
510.04055608568143
509.89879213892635
509.73959657771087
509.56308317707897
509.3694003153935
509.1587315327522
508.9312960254356
508.6873490750668
508.427182411239
508.1511245064193
507.85954080198275
507.55283386425106
507.2314434693657
506.8958466158156
506.54655746344656
506.1841271977954
505.80914381862243
505.42223185150687
505.02405198139303
504.6153006069643
504.19670931465146
503.769044271015
503.33310553221713
502.8897262692762
502.43977190777304
501.9841391806874
501.52375509307694
501.05957579737736
500.5925853782052
500.12379454561824
499.6542392358299
499.18497911847055
498.71709600963953
498.25169219015686
497.78988862858836
497.3328231087964
496.881648261984
496.4375295034608
496.00164287466816
495.57517279129706
495.1593096986893
494.75524763608087
494.3641817116775
493.98730549100964
493.62580830148863
493.2808724565818
492.9536704035138
492.6453617988993
492.35709051724314
492.0899815978373
491.8451381361405
491.62363812624034
491.42653126155795
491.2548357015686
491.1095348129309
490.99157389402967
490.90185689253053
490.84124312609663
490.81054401693996
490.81051985140175
490.8418765762539
490.90526264382976
491.00126591846396
491.13041065710365
491.2931545773434
491.4898860264375
491.7209212650377
491.9865018795593
492.2867923371476
492.62187769723505
492.99176149362984
493.3963638009452
493.83551949893143
494.3089767479268
494.81639568825904
495.357347375936
495.93131296637165
496.53768315725375
497.17575790095253
497.84474639607384
498.5437673668789
499.27184963830666
500.0279330132458
500.81086945758904
501.6194245974161
502.4522795313934
503.30803296012596
504.18520363282096
505.08223311020964
505.99748884119066
506.9292675491924
507.8757989227611
508.83524960338815
509.80572746203245
510.7852861542332
511.7719299422241
512.7636187710015
513.7582735838877
514.7537818617169
515.7480033684003
516.7387760843318
517.7239223078745
518.7012549039966
519.6685836780372
520.6237218515589
521.5644926163416
522.4887357417712
523.3943142102369
524.2791208546507
525.1410849718836
525.9781788857028
526.7884244326958
527.5698993446939
528.3207435013203
529.0391650265015
529.7234462031967
530.3719491811873
530.9831214534406
531.5555010773154
532.0877216177929
532.5785167909709
533.0267247871705
533.431292254183
533.7912779224475
534.1058558553168
534.3743183090752
534.5960781890142
534.7706710894649
534.8977569071268
534.9771210185417
535.0086750143835
534.992456985435
534.9286313575494
534.817488275252
534.6594425359533
534.4550320790302
534.2049160362316
533.9098723519313
533.5707949837423
533.1886906959969
532.7646754606556
532.2999704822291
531.7958978651311
531.2538759435324
530.6754142952116
530.0621084621408
529.4156344016201
528.7377426926729
528.0302525231813
527.2950454839508
526.5340591966102
525.7492808028309
524.9427403428181
524.1165040513342
523.2726675997109
522.4133493123089
521.5406833857361
520.6568131387978
519.7638843206857
518.8640385043142
517.9594065910336
517.0521024521794
516.1442167320002
515.2378108355069
514.3349111236239
513.4375033367678
512.5475272665635
511.6668716939655
510.7973696104927
509.94079373769483
509.0988523583463
508.27318547116766
507.46536127911145
506.6768730194917
505.90913614247916
505.1634858426736
504.4411749466194
503.74337215730384
503.07116065487975
502.4255370511243
501.80741069350546
501.2176033131201
500.65684900917836
500.12579456118584
499.6250000585501
499.1549398359831
498.7160037018066
498.30849844510936
497.93264960666784
497.5886034975949
497.27642944883803
496.9961222739258
496.7476049267535
496.53073133567386
496.3452893947996
496.1910040932135
496.0675407626724
495.9745084243902
495.91146321556124
495.87791187643336
495.8733152790537
495.89709197925293
495.948621773915
496.0272492461359
496.13228728154587
496.26302053983534
496.41870886629573
496.59859062899864
496.80188596814617
497.0277999451283
497.2755255798554
497.54424676596034
497.8331410545652
498.1413822984042
498.46814314915054
498.8125974018744
499.17392218166935
499.5512999685714
499.94392045794405
500.3509822545335
500.771694399397
501.20527772989993
501.6509660739556
502.1080072806241
502.5756640900723
503.0532148467435
503.539954060375
504.03519282016384
504.5382590680246
505.0484977374761
505.56527076522235
506.08795698293585
506.61595189714933
507.1486673654751
507.68553117767283
508.225986550333
508.769491544112
509.3155184125371
509.86355289142176
510.41309343791187
510.9636504280915
511.5147453219103
512.0659098040232
512.6166849089699
513.1666201388923
513.7152725816685
514.2622060369868
514.806990157493
515.349199611704
515.8884132749791
516.424213454416
516.9561851530841
517.48391537851
518.0069924998414
518.5250056576779
519.0375442300876
519.5441973578189
520.0445535311894
520.5382002406448
521.0247236924746
521.503708590683
521.9747379855058
522.4373931886071
522.8912537546139
523.335897528285
523.7709007561842
524.1958382613726
524.6102836792948
525.0138097527722
525.4059886837471
525.7863925391524
526.154593708077
526.5101654072412
526.8526822316945
527.1817207475668
527.4968601236341
527.7976827983778
528.0837751792461
528.3547283709763
528.6101389299617
528.8496096417101
529.0727503183324
529.2791786128267
529.4685208468092
529.6404128483011
529.7945007961108
529.930442067324
530.0479060844897
530.1465751591503
530.2261453284286
530.2863271813824
530.3268466718246
530.3474459143599
530.3478839604859
530.3279375518133
530.2874018476684
530.2260911245809
530.1438394453693
530.0405012957976
529.9159521870207
529.7700892221983
529.6028316257784
529.4141212340586
529.2039229457653
528.9722251314773
528.7190400008226
528.4444039264937
528.1483777242616
527.8310468883315
527.4925217815302
527.1329377799188
526.7524553714775
526.3512602085552
525.9295631138651
525.4876000398694
525.025631981459
524.5439448419098
524.0428492522119
523.5226803439235
522.9837974757857
522.4265839143857
521.8514464692364
521.2588150827094
520.6491423753182
520.0229031469062
519.3805938343783
518.7227319267341
518.0498553382367
517.3625217406475
516.6613078555743
515.9468087080722
515.2196368426876
514.4804215032328
513.7298077776716
512.9684557095898
512.1970393778847
511.4162459463746
510.6267746851151
509.82933596526357
509.0246502294555
508.213446939756
507.39646350531234
506.57444419190534
505.7481390156916
504.9183026234597
504.08569316171383
503.25107113691627
502.41519826927583
501.5788363425035
500.7427460520183
499.90768585408927
499.0744108184084
498.24367148660906
497.41621273928484
496.592772674034
495.77408149703547
494.9608604306471
494.1538206395409
493.3536621778551
492.5610729597625
491.7767277557915
491.00128721719756
490.2353969306309
489.47968650527
488.7347686945109
488.0012385542163
487.2796726394485
486.5706282415221
485.87464266712834
485.1922325611771
484.52389327491966
483.87009828078743
483.23129863523576
482.6079224907573
482.000374658102
481.40903621957585
480.83426419412723
480.27639125480493
479.7357254990419
479.2125502720818
478.7071240437381
478.2196803385441
477.75042771920823
477.2995498231367
476.8672054515701
476.4535287107095
476.05862920410675
475.68259227551044
475.32547930123116
474.98732803094896
474.6681529757754
474.3679458422814
474.08667601107885
473.8242910583768
473.5807173188415
473.3558604879867
473.14960626218715
472.9618210142858
472.7923525026689
472.64103061156993
472.5076681202659
472.39206149876014
472.2939917275125
472.21322513873406
472.14951427670246
472.102598774506
472.0722062446299
472.0580531807842
472.05984586832335
472.0772813005251
472.1100480979652
472.15782742826633
472.2202939235091
472.2971165925519
472.38795972552435
472.4924837878112
472.61034630087494
472.7412027073416
472.88470721784677
473.0405136371445
473.2082761670184
473.3876501836223
473.57829298693116
473.77986452003825
473.99202805612344
474.21445085101544
474.44680475939435
474.68876681279795
474.9400197577369
475.20025255239466
475.4691608205089
475.7464472611575
476.03182201334914
476.32500297441914
476.6257160713081
476.93369548394907
477.24868382017416
477.570432241688
477.8987005408083
478.233257167857
478.57387920925333
478.92035231653733
479.27247058674163
479.6300363946891
479.9928601779592
480.3607601754207
480.7335621203927
481.11109888972703
481.493210110288
481.8797417244427
482.2705455163267
482.665478600831
483.0644028774442
483.46718445123037
483.87369302338556
484.28380125397484
484.6973840996063
485.11431812894773
485.534480819106
485.9577498359852
486.3840023017754
486.81311405284777
487.2449588914461
487.6794078346346
488.11632836402646
488.55558367988897
488.9970319632482
489.44052564963397
489.88591071813266
490.33302599941936
490.78170250641153
491.2317627911627
491.68302033158267
492.13527895154624
492.58833227786323
493.04196323744833
493.49594359788944
493.9500335544838
494.4039813666548
494.85752304643137
495.3103821014843
495.7622693350293
496.2128827047416
496.66190724265863
497.10901503780286
497.55386528298004
497.9961043869564
498.43536615301514
498.8712720246044
499.30343139837834
499.73144200459274
500.15489035456176
500.57335225460713
500.9863933856087
501.39356994698784
501.7944293636983
502.1885110545473
502.57534725991155
502.9544639266739
503.3253816479408
503.6876166548814
504.0406818578504
504.3840879338029
504.7173444568806
505.03996106890105
505.35144868634075
505.65132074032755
505.9390944461898
506.2142920992319
506.4764423934442
506.7250817597391
506.95975572008285
507.18002025367065
507.3854431710932
507.5756054923117
507.75010282419566
507.90854673335804
508.0505661100356
508.17580851880024
508.28394153188424
508.374654040878
508.4476575425575
508.5026873946796
508.53950403773166
508.5578941787888
508.5576719338517
508.5386799253371
508.5007903317073
508.44390588649776
508.3679608241782
508.27292177039703
508.1587885743215
508.0255950809496
507.8734098414208
507.7023367595778
507.5125156732561
507.30412286885195
507.0773715278172
506.8325121038746
506.56983262988194
506.28965895334693
505.9923548995823
505.67832236151344
505.34800131519023
505.0018697600409
504.6404435829496
504.2642763453815
503.87395899285696
503.47011948612317
503.0534223533809
502.624568162886
502.1842929152303
501.7333673546022
501.2725961983235
500.8028172839449
500.3249006331893
499.8397474320228
499.3482889261295
498.851485231122
498.350324056906
497.8458193457013
497.3390098233074
496.83095746330577
496.32274586402025
495.81547853815607
495.31027711516526
494.8082794565418
494.31063768436144
493.8185161235726
493.3330891588473
492.8555390071108
492.38705340718315
491.92882322833646
491.48203999997884
491.0478933650879
490.6275684603943
490.22224322669956
489.83308565309994
489.46125095933763
489.10787872094915
488.774089942363
488.46098408357926
488.1696360465403
487.9010931278608
487.6563719452181
487.43645534523415
487.2422893011812
487.0747798093779
486.9347897936654
486.8231360278171
486.7405860862197
486.68785533360216
486.6656039650115
486.674434107622
486.7148869962776
486.78744023497774
486.8925051567773
487.0304242947174
487.201468976528
487.4058370559391
487.6436507934822
487.9149548996028
488.2197147527157
488.5578148046293
488.9290571855017
489.3331605201474
489.7697589670367
490.2384014907834
490.73855137831106
491.2695860081929
491.830796881936
492.4213899251879
493.04048606592914
493.6871220957052
494.36025181887516
495.0587474937546
495.78140156836145
496.52692871222854
497.29396814444556
498.08108625675953
498.88677952919096
499.7094777342558
500.54754742446164
501.3992956962818
502.26297422238076
503.1367835424952
504.01887760200026
504.90736852583643
505.80033161417015
506.6958105448758
507.59182276664825
508.4863650652907
509.3774192845459
510.2629581817012
511.1409513971741
512.0093715163947
512.8662002014929
513.7094343695709
514.5370923937945
515.3472203032413
516.1378979571789
516.9072451691582
517.6534277561639
518.3746634880887
519.0692279129232
519.7354600333117
520.3717678105157
520.9766334722945
521.5486186018563
522.0863689857863
522.5886191997275
523.054196911492
523.4820268822672
523.8711346476879
524.2206498617458
524.5298092878388
524.7979594226321
525.0245587396411
525.209179540692
525.351509404879
525.4513522265092
525.5086288356625
525.5233771972364
525.4957521865846
525.4260249420635
525.3145817968812
525.1619227946663
524.9686597951016
524.7355141779207
524.4633141555604
524.1529917067656
523.805579145419
523.4222053406344
523.0040916056869
522.5525472747572
522.0689649877137
521.5548157041997
521.0116434691927
520.4410599530545
519.8447387899499
519.2244097393254
518.5818526958302
517.9188915736444
517.2373880916508
516.5392354861225
515.8263521776058
515.1006754186579
514.3641549489164
513.6187466836416
512.8664064614552
512.1090838764811
511.34871621954125
510.5872225523354
509.8264979377265
509.06840784831377
508.3147827743652
507.5674130508677
506.82804392210846
506.09837086081444
505.380035157433
504.67461979366857
503.98364561282244
503.3085677978688
502.65077266652406
502.01157479089426
501.3922144475829
500.79385540245676
500.217583032614
499.66440278641943
499.1352389807695
498.6309339330877
498.15224742393036
497.6998564845169
497.2743555020534
496.87625663430697
496.5059905235543
496.16390729881135
495.85027785413513
495.56529538971864
495.3090772015061
495.08166670416546
494.8830356714607
494.71308667734047
494.5716557204189
494.4585150140481
494.3733759238713
494.3158920345572
494.28566232731947
494.28223444980813
494.30510806003946
494.35373822622773
494.4275388647223
494.52588619866543
494.6481222204139
494.79355814124295
494.961477812464
495.1511411027664
495.3617872173359
495.592637945117
495.8429008214499
496.1117721942249
496.39844018261664
496.7020875184004
497.02189426085465
497.3570403773352
497.70670818261516
498.07008463107985
498.4463634569044
498.8347471583704
499.23444882344813
499.64469379471154
500.06472117261507
500.49378515714386
500.931156228748
501.3761221702872
501.82798893251845
502.2860813464356
502.74974368650766
503.2183400895345
503.6912548345093
504.1678924894516
504.64767793158614
505.13005624765793
505.6144925215924
506.10047151705646
506.5874972627509
507.07509254848554
507.5627983402707
508.0501731227357
508.53679217722834
509.02224680397916
509.5061434966746
509.98810307766496
510.4677598019196
510.9447604376881
511.418763331592
511.8894374656122
512.3564615131388
512.8195229009094
513.2783168833057
513.7325456351568
514.1819173688931
514.6261454814703
515.0649477360703
515.498045483152
515.9251629250113
516.3460264275517
516.7603638825
517.1679041228356
517.5683763937042
517.9615098806285
518.3470332964129
518.7246745277272
519.0941603419479
519.4552161544772
519.807565856383
520.150931701871
520.4850342547784
520.8095923929841
521.1243233693699
521.4289429277662
521.7231654721189
522.0067042869318
522.279271806876
522.5405799333591
522.79034039577
523.0282651550649
523.2540668474038
523.4674592656451
523.6681578766
523.8558803718654
524.0303472498642
524.1912824265094
524.3384138717104
524.4714742688022
524.5902016939203
524.6943403123302
524.783641088736
524.857862508588
524.9167713073667
524.960143204741
524.9877636403908
524.9994285083048
524.9949448865065
524.9741317592591
524.9368207289407
524.882856714969
524.812098637342
524.7244200825601
524.6197099498697
524.4978730759083
524.3588308358782
524.2025217194647
524.0289018796868
523.8379456529265
523.6296460485007
523.4040152062674
523.1610848209004
522.9009065315561
522.6235522757021
522.3291146059253
522.0177069686262
521.6894639435433
521.3445414430463
520.9831168701566
520.6053892342889
520.2115792238153
519.8019292346355
519.376703354068
518.9361872994554
518.4806883109504
518.0105349980189
517.5260771392769
517.0276854353839
516.5157512148257
515.9906860925194
515.45292158124
514.902908655968
514.3411172713624
513.7680358327437
513.1841706211236
512.590045172973
511.9861996155417
511.37318995867867
510.7515873442482
510.12197725440376
509.48495868003357
508.8411432508271
508.1911543285342
507.5356260651266
506.87520242768534
506.21053619200063
505.5422879070505
504.8711248326913
504.1977198529757
503.5227503675921
502.84689716402704
502.1708432731674
501.4952728111569
500.8208698104149
500.1483170427948
499.478294837878
498.81147989943304
498.1485441231306
497.49015341865294
496.8369665393696
496.18963392278215
495.54879654494914
494.9150847920594
494.28911735230395
493.67150013114093
493.0628251930408
492.4636697327756
491.8745950792469
491.2961457347538
490.7288484525206
490.1732113552274
489.62972309715866
489.0988520724624
488.5810456719035
488.07672959034426
487.58630718700056
487.11015890035503
486.64864171949
486.20208871347694
485.77080862028265
485.3550854964726
484.9551784287831
484.57132130838914
484.2037226684353
483.8525655851648
483.5180076428588
483.2001809626462
482.89919229505153
482.6151231759385
482.3480301452853
482.0979450280041
481.8648752757994
481.6488043688863
481.4496922762164
481.2674759726251
481.10207001107403
480.9533671479673
480.82123901931766
480.70553686532304
480.6060923007313
480.522718128228
480.4552091919355
480.4033432679665
480.3668819888686
480.34557179867124
480.33914493510395
480.3473204354819
480.3698051626969
480.4062948477114
480.456475144877
480.5200226963595
480.5966062019543
480.6858874905519
480.78752258949515
480.9011627880924
481.0264556916181
481.1630462621851
481.3105778429075
481.4686931618268
481.63703531214594
481.8152487053474
482.002979993884
482.19987896021655
482.4055993690292
482.6197997795642
482.84214431519075
483.07230338751475
483.3099543725675
483.5547822368061
483.8064801108608
484.0647498091902
484.32930229404883
484.59985808240225
484.8761475946045
485.15791144384116
485.44490066556955
485.7368768864436
486.0336124324305
486.3348903760661
486.64050452301836
486.950259338349
487.2639698130774
487.5814612719199
487.90256912332666
488.22713855319745
488.5550241639578
488.88608956089377
489.2202068878001
489.55725631422587
489.89712547684024
490.23970887764887
490.5849072419895
490.93262683938985
491.28277877045906
491.63527822310186
491.99004370148106
492.34699623129706
492.7060585451204
493.0671542517111
493.43020699340417
493.7951395956487
494.16187321277494
494.53032647410737
494.9004146346296
495.2720487343889
495.64513477079487
496.01957288796166
496.39525658720396
496.7720719627344
497.14989696651105
497.52860070613394
497.90804277955743
498.288072650233
498.66852906613946
499.0492395259827
499.43001979567
499.8106734779723
500.1909916380759
500.5707524874858
500.94972112856834
501.32764936180644
501.70427555758425
502.07932459403156
502.4525078621595
502.82352333924945
503.1920557311721
503.5577766840257
503.9203450651254
504.279407312983
504.63459785559235
504.9855395960671
505.3318444644203
505.6731140340137
506.0089402009483
506.3389059244162
506.66258602576033
506.9795480437073
507.28935314297854
507.5915570732946
507.88571117559763
508.1713634321306
508.44805955688315
508.71534412283887
508.97276172238156
509.2198581571561
509.4561816536525
509.68128410088957
509.89472230673033
510.0960592694272
510.2848654609098
510.46072011819587
510.62321253916474
510.77194337883924
510.90652594228436
511.02658747023156
511.13177041355425
511.22173369279176
511.2961539389732
511.3547267120206
511.39716769303845
511.42321384686164
511.43262455138944
511.4251826904268
511.40069570698194
511.35899661428454
511.299944962104
511.22342775619376
511.12936032887046
511.01768715889824
510.88838263905507
510.7414517899369
510.5769309186978
510.39488822155636
510.1954243290461
509.9786727930904
509.7448005150832
509.49400811422146
509.2265302354475
508.94263579643206
508.64262817308645
508.32684532310276
507.9956598470009
507.649478986188
507.288744557541
506.91393282401344
506.52555430075245
506.12415349620403
505.7103085876891
505.2846310309333
504.8477651029855
504.4003873778871
503.94320613435343
503.47696069463467
503.00242069360945
502.5203852771053
502.0316822284257
501.537167022027
501.0377218032075
500.53425429262904
500.0276966145302
499.51900404755133
499.00915369715705
498.49914308873446
497.98998868051257
497.4827242955017
496.97839947175044
496.4780777304052
495.98283476128677
495.49375652594085
495.0119372784392
494.538477504555
494.0744817802744
493.621056551002
493.17930783328194
492.75033884125395
492.3352475404547
491.93512413200233
491.5510484706286
491.1840874204971
490.8352921532382
490.50569539312124
490.1963086148149
489.9081191997285
489.64208755750496
489.3991442198622
489.180186914556
488.98607762776555
488.81763966377474
488.6756547113547
488.560859926753
488.4739450437055
488.41554952139506
488.3862597416882
488.38660626735594
488.41706117330784
488.478035463114
488.5698765833022
488.69286604808
488.84721718724654
489.03307303010115
489.2505043381624
489.4995077994009
489.7800043965002
490.0918379614309
490.4347739283346
490.8084982963214
491.21261681330924
491.646654391438
492.11005476382826
492.60218039164903
493.1223126296661
493.6696521576396
494.24331968396916
494.8423569269053
495.46572787756924
496.1123203478572
496.78094780502886
497.4703514935404
498.17920284346667
498.90610616353354
499.6496016153345
500.4081684638722
501.1802285981766
501.96415031434606
502.7582523519686
503.56080817350335
504.37005047484996
505.18417591400225
506.0013500433613
506.81971243000805
507.63738194702717
508.45246221784237
509.2630471944618
510.0672268495298
510.8630929611337
511.6487449684694
512.4222958757975
513.1818781816459
513.9256498098727
514.6518000189255
515.3585552653888
516.0441849976902
516.7070073558097
517.3453947529539
517.9577793154093
518.542658157123
519.0985984660898
519.624242380291
520.1183116316959
520.5796119377143
521.0070371204533
521.3995729351163
521.7563005899231
522.0763999411256
522.3591523479603
522.6039431736949
522.810263920171
522.9777139844393
523.1060020276046
523.1949469478781
523.2444784519307
523.2546372207958
523.2255746687362
523.1575522955519
523.0509406348684
522.9062178028798
522.7239676539264
522.5048775512366
522.2497357631032
521.9594284966435
521.634936583193
521.2773318310468
520.8877730627353
520.467501855348
520.0178380035537
519.5401747259937
519.0359736366538
518.5067595037092
517.9541148191562
517.3796742031873
516.7851186678679
516.1721697652474
515.5425836454941
514.8981450509224
514.2406612718999
513.5719560905533
512.8938637379542
512.2082228901153
511.5168707276185
510.82163708308644
510.124338700049
509.4267736260434
508.73071576185356
508.0379095877078
507.35006508617107
506.6688528802926
505.995899604308
505.33278352281354
504.68103041286105
504.0421097219316
503.41743101323186
502.8083407081813
502.21611913439017
501.64197788583954
501.0870575003262
500.5524254575269
500.03907449939237
499.5479212730801
499.07980529510735
498.63548823379796
498.2156535055402
497.8209061788641
497.4517731789186
497.1087037836265
496.79207040156723
496.5021696204302
496.2392235137912
496.0033811929878
495.7947205899473
495.6132504559828
495.4589125608524
495.33158407577116
495.23108012355635
495.1571564786749
495.1095123997087
495.08779357663184
495.0915951752694
495.1204649613576
495.1739064867832
495.2513823208156
495.3523173095023
495.47610184681287
495.6220951416134
495.7896284651429
495.9780083642885
496.18651982665796
496.414429384189
496.6609881428201
496.92543472659753
497.2069981255387
497.5049004375032
497.8183594952127
498.1465913704908
498.48881274880307
498.844243168198
499.2121071177305
499.5916359914814
499.98206989528524
500.3826593042216
500.7926665698017
501.2113672766381
501.6380514492767
502.07202461073206
502.5126086950623
502.95914281701835
503.410983902438
503.86750718366284
504.3281065648655
504.7921948627786
505.2592039288375
505.72858465915505
506.19980689908436
506.6723592494013
507.14574878140724
507.6195006684465
508.09315774147774
508.5662799764484
509.0384439212435
509.5092420699003
509.97828219175113
510.44518662313385
510.90959152919567
511.37114614309377
511.829511989624
512.284362100043
512.7353802245551
513.1822600485966
513.6247044187072
514.062424583453
514.4951394544509
514.9225748921517
515.3444630206302
515.7605415752168
516.1705532863828
516.5742453029127
516.9713686570424
517.3616777737826
517.7449300261662
518.1208853376824
518.4893058327008
518.8499555353436
519.2026001170171
519.5470066925213
519.8829436642739
520.2101806138588
520.5284882398515
520.8376383406096
521.1374038404512
521.4275588574178
521.7078788106568
521.978140565282
522.2381226124734
522.4876052825107
522.7263709883925
522.9542044977236
523.1708932306655
523.3762275818509
523.5700012643625
523.7520116739282
523.9220602714217
524.0799529816499
524.2255006062582
524.3585192485355
524.4788307478965
524.5862631218025
524.6806510129477
524.7618361395707
524.8296677467293
524.8840030564203
524.9247077144915
524.9516562322896
524.9647324209899
524.9638298166766
524.9488520943764
524.9197134694015
524.8763390845553
524.8186653819992
524.7466404586929
524.6602244044506
524.5593896218032
524.4441211269815
524.3144168313455
524.1702878026151
524.0117585052952
523.8388670197314
523.6516652392846
523.4502190451836
523.2346084586509
523.0049277699401
522.7612856440215
522.503805202719
522.2326240830566
521.9478944715847
521.6497831145078
521.3384713034652
521.0141548368481
520.6770439564774
520.3273632594293
519.9653515848454
519.591261875569
519.2053610144121
518.8079296348953
518.3992619063245
517.9796652931233
517.5494602883911
517.1089801217112
516.6585704412613
516.1985889702429
515.7294051377
515.2513996838927
514.7649642404507
514.2705008855899
513.768421674757
513.2591481471569
512.7431108087123
512.2207485921862
511.69250829526914
511.1588439974367
510.62021645646473
510.0770924856356
509.5299443127777
508.9792489224042
508.4254873822937
507.86914415592014
507.31070640218985
506.7506632639634
506.1895051468952
505.6277229902037
505.06580753106294
504.5042485643738
503.94353419971935
503.38415011732104
502.82657882488246
502.2712989172763
501.7187843410062
501.169503665345
500.6239193621553
500.08248709650724
499.54565503021456
499.01386314032044
498.4875425544991
497.96711490540446
497.4529917060459
496.9455737481625
496.44525052547857
495.9523996836701
495.4673864987665
494.9905633856078
494.52226943792016
494.0628300015265
493.6125562821266
493.17174498894724
492.74067801544584
492.3196221581354
491.9088288744836
491.5085340807035
491.1189579900839
490.74030499230554
490.37276357400765
490.0165062807445
489.6716897203361
489.3384546074562
489.01692584917515
488.7072126710387
488.4094087831049
488.12359258520036
487.8498274105152
487.5881618065123
487.33862985192883
487.1012515084505
486.8760330054645
486.6629672561704
486.4620343032202
486.2732017919301
486.09642546898783
485.93164970449885
485.77880803514125
485.6378237261167
485.5086103494266
485.39107237586126
485.2851057779583
485.19059864108715
485.10743177982397
485.0354793568069
484.97460950123815
484.92468492414514
484.8855635275616
484.8570990048601
484.8391414294715
484.8315378292778
484.8341327440197
484.8467687630802
484.8692870410619
484.90152778870964
484.94333073690143
484.99453557154806
485.0549823373464
485.1245118084749
485.2029658245028
485.2901875899478
485.3860219360673
485.49031554370885
485.60291712627526
485.7236775720507
485.8524500452606
485.98909004541986
486.1334554247479
486.28540636363516
486.4448053044174
486.6115168439381
486.7854075855796
486.9663459516796
487.1542019574557
487.3488469477113
487.55015329776535
487.75799408025017
487.9722426997112
488.19277249719147
488.419456327126
488.6521661089767
488.89077235617975
489.13514368516513
489.3851463073812
489.6406435073985
489.9014951103221
490.16755694188595
490.4386802846409
490.7147113337068
490.99549065564497
491.2808526540632
491.570625045547
491.8646283494946
492.16267539539047
492.4645708509735
492.7701107746799
493.0790821956819
493.3912627247293
493.7064201988999
494.02431236328
494.3446865924436
494.6672796543878
494.9918175193755
495.31801521596896
495.645576736398
495.9741949931655
496.30355182847524
496.6333180778448
496.9631536890038
497.2927078968707
497.62161945514634
497.9495169248428
498.2760190198193
498.6007350090843
498.9232651752833
499.2432013285002
499.5601273742914
499.87361993467806
500.18324902057276
500.48857875384346
500.78916813699436
501.0845718682707
501.3743411998835
501.6580248369213
501.93516987433696
502.2053227692777
502.4680303458357
502.7228408292407
502.96930490669405
503.2069768121681
503.43541543241685
503.65418543125963
503.8628583889997
504.0610139536816
504.24824100075705
504.4241387976892
504.58831817005876
504.74040266577555
504.88002971400505
505.0068517754023
505.12053748025676
505.22077275121086
505.30726190730485
505.3797287461523
505.43791760115477
505.4815943709173
505.5105475182903
505.52458903659004
505.523555380651
505.50730836054544
505.4757359960585
505.428753330266
505.3663032006402
505.2883569661563
505.1949151890328
505.08600826982837
504.96169703466376
504.8220732734068
504.6672602276856
504.49741302757354
504.312719075778
504.1133983781967
503.89970381979543
503.6719213848032
503.43037032022755
503.17540324170545
502.9074061807368
502.62679857236293
502.3340331823134
502.0295959725637
501.7140059041686
501.38781467618395
501.0516063993979
500.7059972035011
500.35163477621927
499.9891978328185
499.61939551434284
499.2429667128874
498.86067932216264
498.47332941162887
498.08174032249303
497.6867616838148
497.28926834692663
496.8901592364059
496.4903561160057
496.0908022680888
495.69246108517115
495.2963145722788
494.90336175898716
494.5146170202926
494.13110830584446
493.75387527743703
493.3839673550103
493.02244167171
492.6703609388708
492.32879122215564
491.998799630533
491.6814519202058
491.3778100160504
491.0889294536984
490.81585674595516
490.5596266777447
490.3212595343436
490.1017582682922
489.902105610976
489.72326113548746
489.56615827802983
489.4317013258128
489.32076238001116
489.23417830287593
489.1727476586114
489.13722765820614
489.1283311189366
489.14672344974775
489.1930196742729
489.26778150374804
489.3715144724262
489.5046651483911
489.6676184329454
489.8606949619834
490.0841486229582
490.33816420118484
490.62285516922645
490.9382616330323
491.28434844837625
491.6610035209641
492.0680363032619
492.50517650062983
492.9720729988375
493.46829302451516
493.9933215494881
494.5465609492816
495.12733092528725
495.7348686991644
496.3683294870858
497.0267872603721
497.7092357978813
498.4145900343314
499.1416877075417
499.88929130625144
500.6560903187501
501.44070378112025
502.2416831224899
503.0575153032661
503.88662624088096
504.7273845161505
505.57810535188
506.4370548538861
507.3024545031518
508.17248588639643
509.04529565088893
509.91900066796467
510.7916933884412
511.66144737186
512.5263229701965
513.3843731455675
514.2336494005408
515.0722077987825
515.8981150530446
516.7094546568879
517.5043330359707
518.280885694211
519.0372833297843
519.7717378957176
520.4825085798083
521.1679076786198
521.8263063404271
522.4561401522109
523.0559145462505
523.6242100024581
524.1596870232723
524.6610908587031
525.1272559599613
525.5571101411024
525.9496784292764
526.3040865853911
526.6195642783407
526.895447897304
527.1311829877743
527.326326298264
527.4805474263146
527.5936300544043
527.6654727684515
527.6960894538215
527.6856092659824
527.6342761750539
527.5424480855328
527.4105955345295
527.2392999739487
527.0292516441648
526.7812470487993
526.4961860421057
526.1750685423299
525.8189908862591
525.429141841738
525.006798296343
524.5533206417746
524.0701478747951
523.5587924367197
523.0208348145376
522.4579179276424
521.8717413248521
521.2640552171277
520.6366543720285
519.9913718964435
519.3300729345816
518.6546483084813
517.9670081284037
517.2690754005041
516.562779659064
515.8500506502653
515.1328120939768
514.4129755493077
513.6924344087729
512.9730580449608
512.2566861325255
511.5451231671931
510.8401332022672
510.14343482188633
509.45669636894326
508.781531444057
508.1194946903785
507.4720778774569
506.84070629575336
506.2267354717371
505.63144821185557
505.0560519819615
504.50167662702785
503.9693724342223
503.46010854068317
502.97477168561534
502.5141653046731
502.07900896305523
501.66993812216026
501.2875042330305
500.93217514828274
500.6043358428629
500.30428943265014
500.03225847869606
499.78838656371767
499.57274012637686
499.38531053790945
499.22601640483936
499.09470608080295
498.9911603699185
498.9150954036731
498.8661656729237
498.8439671963283
498.84804080635865
498.87787553400113
498.9329120733434
499.01254630748633
499.11613287748276
499.24298877633515
499.39239695051515
499.5636098919162
499.7558532036959
499.9683291241025
500.2002199931192
500.45069164764146
500.7188967319018
501.0039779108176
501.3050709749005
501.6213078263391
501.9518193368293
502.2957380687337
502.65220085226764
503.0203512125684
503.3993416415829
503.7883357106503
504.1865100205991
504.59305598721255
505.00718146090685
505.4281121804098
505.8550930611952
506.28738932034884
506.7242874404054
507.1650959754843
507.6091462038498
508.05579263174866
508.5044133540061
508.9544102773366
509.4052092127498
509.8562598439102
510.3070355787226
510.7570332917504
511.20577296534776
511.65279723761597
512.0976708654504
512.539980111043
512.9793320603106
513.4153538817585
513.8476920341927
514.276011431542
514.6999945729028
515.119340645684
515.5337646094507
515.9429962678325
516.3467793355026
516.7448705068506
517.1370385326561
517.5230633107435
517.9027349961776
518.2758531361247
518.6422258340863
519.0016689477472
519.3540053241971
519.6990640758112
520.0366798995846
520.3666924421981
520.6889457125906
521.0032875433716
521.3095691020328
521.6076444525083
521.8973701672162
522.178604989369
522.4512095450062
522.7150461039541
522.9699783886289
523.2158714292895
523.4525914640654
523.6800058819124
523.8979832064741
524.1063931186557
524.3051065155718
524.4939956034335
524.6729340219359
524.8417969977156
525.0004615245983
525.1488065684995
525.2867132948606
525.4140653164715
525.5307489594651
525.6366535451375
525.7316716851043
525.815699587378
525.8886373710424
525.9503893872073
526.0008645439449
526.0399766328555
526.0676446549501
526.0837931436749
526.0883524830361
526.0812592188596
526.0624563614468
526.0318936781354
525.9895279743931
525.9353233622637
525.8692515151655
525.7912919081772
525.7014320431745
525.5996676583977
525.486002922194
525.3604506107738
525.2230322699318
525.0737783607159
524.9127283890764
524.7399310195883
524.5554441733177
524.3593351099105
524.1516804939811
523.9325664458672
523.7020885768848
523.4603520093344
523.2074713816227
522.9435708389422
522.6687840099793
522.3832539701178
522.0871331915895
521.7805834809546
521.4637759043353
521.136890700874
520.8001171848607
520.4536536369363
520.0977071847044
519.7324936730104
519.3582375241003
518.9751715878465
518.5835369822141
518.1835829241146
517.7755665508049
517.3597527320119
516.9364138728911
516.5058297079054
516.0682870857252
515.6240797452808
515.1735080830911
514.7168789120024
514.2545052115576
513.7867058702408
513.3138054198539
512.8361337622786
512.3540258888828
511.86782159283933
511.377865174662
510.88450514126197
510.3880938988148
509.88898743978984
509.3875450245512
508.8841288579217
508.3791037610104
507.8728368385767
507.3656971422429
506.8580553298946
506.35028332164467
505.842753952822
505.3358406244971
504.8299169520966
504.3253564127024
503.8225319916186
503.3218158286896
502.82357886477143
502.32819048875393
501.8360181855601
501.3474271856109
500.8627801162776
500.38243665578415
499.90675318992857
499.43608247197585
498.9707732862195
498.5111701157525
498.05761281492073
497.6104362869431
497.16997016721484
496.7365385127574
496.3104594981762
495.8920451184747
495.4816008990753
495.0794256132998
494.68581100742307
494.3010415333479
493.92539408900564
493.5591377666666
493.20253360931815
492.8558343751923
492.51928431050186
492.1931189304674
491.877564808681
491.572839374803
491.2791507205153
490.9966974135953
490.72566831993817
490.4662424333747
490.21858871311537
489.9828659286067
489.75922251156976
489.547796414954
489.3487149785012
489.16209480065766
488.98804161661735
488.82665018219967
488.67800416319443
488.542176029842
488.41922695617313
488.3092067239717
488.21215363115067
488.12809440434376
488.0570441155388
487.9990061026091
487.95397189362427
487.92192113488966
487.90282152269543
487.89662873874613
487.9032863892694
487.9227259478923
487.9548667023876
487.99961570542627
488.0568677294854
488.12650522607396
488.2083982895395
488.30240462582435
488.40836952659174
488.52612584921496
488.655494003202
488.7962819436909
488.94828517269116
489.1112867487318
489.28505730560636
489.4693550809508
489.663925955434
489.86850350339745
490.0828090557876
490.306551776265
490.5394287515005
490.7811250967426
491.03131407770303
491.2896572497128
491.5558046150499
491.8293947993466
492.1100552479972
492.3974024434912
492.69104214455604
492.99056964794534
493.29557007368254
493.6056186744844
493.9202811699912
494.23911410638414
494.5616652419576
494.8874739591562
495.21607170350546
495.5469824497145
495.8797231950894
496.21380448023604
496.54873093687104
496.88400186234
497.2191118202977
497.55355126692655
497.8868072020404
498.21836384436966
498.5477033302198
498.87430643467746
499.19765331452436
499.5172242718896
499.83250053754546
500.14296507268153
500.44810338788113
500.7474043779276
501.04036117095484
501.326471990419
501.6052410284452
501.8761793291996
502.13880568104264
502.39264751625456
502.6372418171593
502.87213602751297
503.0968889679562
503.3110717541812
503.5142687163451
503.7060783182123
503.88611407449343
504.0540054648034
504.20939884259457
504.35195833736384
504.48136674835854
504.59732642791863
504.6995601525812
504.78781198015963
504.86184809114263
504.92145761278965
504.966453424321
504.9966729416656
505.0119788803089
505.0122599948475
504.99743179390975
504.96743722912754
504.9222473569319
504.8618619720142
504.78631021125034
504.6956511267386
504.5899742264981
504.4693999813412
504.3340802963521
504.1841989453008
504.0199719662634
503.8416480166408
503.6495086856554
503.44386876231476
503.2250764567152
502.99351357243665
502.74959562773154
502.4937719231964
502.2265255535837
501.94837336129916
501.6598658289525
501.3615869081499
501.0541537815823
500.7382165553778
500.4144578786809
500.0835924873565
499.7463666686124
499.4035576433144
499.0559728628103
498.7044492170521
498.3498521508251
497.99307468502025
497.63503634002393
497.2766819583742
496.9189804239862
496.562923275522
496.2095232118372
495.8598124878168
495.51484119922196
495.17567545544443
494.8433954394412
494.5190933545974
494.20387125872475
493.8988387858525
493.60511075694507
493.3238046812617
493.0560381507005
492.8029261301114
492.5655781471695
492.3450953860422
492.1425676897545
491.9590704768482
491.7956615786836
491.6533780045144
491.53323264218847
491.43621090298086
491.36326731979136
491.3153221087035
491.29325770460105
491.29791528217726
491.33009127431706
491.3905339005075
491.4799397185529
491.59895021337314
491.74814843707094
491.9280557148719
492.1391284319571
492.3817549165569
492.6562524349509
492.96286431424704
493.3017572088647
493.6730185266134
494.0766540302022
494.51258562985794
494.98064938249445
495.4805937125212
496.0120778689288
496.57467063268996
497.16784928782585
497.79099886875906
498.44341169576023
499.1242872093982
499.8327321139308
500.56776083856073
501.3282963243656
502.11317114346855
502.9211289556014
503.75082630577316
504.60083476526086
505.46964341655786
506.3556616812798
507.2572224884132
508.1725857786749
509.0999423391749
510.0374179609965
510.9830779106799
511.93493170493895
512.8909381762761
513.8490108154986
514.8070233755276
515.7628157193246
516.7141998932358
517.6589664056683
518.5948906896449
519.5197397264791
520.4312788065839
521.3272784023834
522.2055211273652
523.0638087544983
523.8999692666216
524.7118639109701
525.4973942297153
526.2545090381519
526.9812113219302
527.6755650245447
528.335701696348
528.9598269765936
529.5462268803267
530.0932738624381
530.5994326319984
531.0632656909154
531.4834385719319
531.8587247520938
532.1880102190962
532.4702976693006
532.7047103176087
532.8904953008126
533.0270266574979
533.1138078690567
533.1504739481128
533.1367930626133
533.0726676858816
532.9581352652025
532.793368403973
532.5786745549512
532.3144952245299
532.0014046902586
531.6401082361747
531.2314399128378
530.7763598312736
530.2759510023923
529.7314157357595
529.1440716136665
528.5153470582828
527.8467765113976
527.1399952478916
526.3967338456603
525.6188123361347
524.8081340608377
523.9666792606073
523.0964984251791
522.1997054316687
521.2784705012075
520.3350130035353
519.3715941398978
518.3905095350789
517.3940817698148
516.3846528849654
515.3645768887653
514.336212298175
513.3019147449269
512.2640296762744
511.2248851797598
510.1867849604065
509.15200149774483
508.12276940895316
507.10127904305705
506.08967032965234
505.09002690409454
504.10437052957053
503.13465583484924
502.1827653848002
501.2505050990016
500.33960003194494
499.45169052642314
498.58832874977384
497.75097562070806
496.9409981324098
496.1596670756073
495.40815516343673
494.6875355579555
493.9987807961941
493.342762111804
492.72024914668395
492.13191004524396
491.5783119222616
491.0599216936235
490.5771072576011
490.13013901287695
489.7191916982777
489.34434653794193
489.0055936745199
488.7028348719842
488.4358864687744
488.2044825613352
488.008278397551
487.8468539590633
487.7197177111291
487.626310498489
487.56600956563005
487.53813267983554
487.5419423355477
487.5766500187649
487.641420510501
487.7353762087807
487.8576014492413
488.0071468050328
488.1830333474321
488.38425684945366
488.6097919156119
488.8585960218697
489.1296134507117
489.4217791072811
489.7340222037231
490.0652698001207
490.4144501915684
490.7804961320364
491.162347886818
491.5589561064973
491.96928451654406
492.39231241788445
492.82703699500587
493.27247542929535
493.7276668164063
494.19167388753516
494.66358453555216
495.14251314788464
495.6276017490218
496.1180209564635
496.61297075472703
497.11168109277133
497.6134123109312
498.1174554040564
498.6231321280932
499.1297949577873
499.63682690362845
500.14364119663423
500.64968084998435
501.15441810682324
501.6573537838147
502.1580165201342
502.65596194159866
503.1507717496029
503.64205274444845
504.1294357924937
504.61257474635573
505.09114532715154
505.5648439775517
506.0333866942035
506.4965078477848
506.95395899858266
507.40550771511306
507.8509364029224
508.29004115030796
508.72263059723844
509.1485248332876
509.5675543299171
509.9795589119637
510.3843867726638
510.781893535956
511.1719413692169
511.5543981490643
511.92913668233194
512.2960339838493
512.6549706122856
513.0058300649298
513.3484982319094
513.6828629100513
514.0088133762378
514.3262400196965
514.6350340323089
514.9350871556403
515.2262914830808
515.5085393152142
515.7817230663218
516.0457352198323
516.3004683304533
516.5458150707613
516.7816683200535
517.007921293261
517.2244677076503
517.4312019850242
517.6280194870243
517.8148167809201
517.9914919330732
518.1579448271389
518.3140775040496
518.4597945207851
518.5950033249583
518.7196146422939
518.8335428740487
518.9367065013719
519.0290284937146
519.1104367185136
519.1808643494871
519.2402502710546
519.2885394766056
519.3256834585836
519.35164058855
519.3663764855394
519.3698643711359
519.362085409875
519.3430290337893
519.3126932500664
519.2710849308862
519.218220084574
519.1541241072213
519.0788320139449
518.9923886490704
518.894848874682
518.786277737068
518.6667506106469
518.5363533190152
518.3951822329112
518.2433443449506
518.0809573210292
517.9081495283999
517.7250600405371
517.5318386189584
517.3286456721924
517.1156521921449
516.8930396681926
516.6609999793303
516.4197352646961
516.1694577728758
515.910389690396
515.642762949836
515.3668190181114
515.082808665551
514.7909917164137
514.491636781543
514.1850209739393
513.8714296080113
513.5511558832296
513.2245005529096
512.8917715789161
512.5532837731574
512.2093584268615
511.86032292860943
511.50651037207814
511.1482591544865
510.7859125667774
510.41981837659273
510.0503284051499
509.67779809908717
509.3025860982737
508.92505380059333
508.5455649247125
508.16448507178694
507.78218128703156
507.39902162212155
507.01537469942036
506.63160927899725
506.2480938293864
505.86519610306306
505.4832827175713
505.10271874316885
504.7238672977598
504.3470891498206
503.9727423300025
503.60118175212057
503.23275884422236
502.8678211903774
502.50671218369763
502.149770690976
501.79733072929344
501.44972115491055
501.1072653646563
500.770281009913
500.43907972322455
500.1139668574466
499.79524123725224
499.4831949227511
499.1781129849457
498.8802732926831
498.58994631070965
498.3073949084359
498.03287417899156
497.76663126806176
497.5089052120065
497.2599267847185
497.0199183525807
496.78909373685065
496.5676580827687
496.3558077346596
496.15373011633056
495.9616036160498
495.77959747533316
495.60787168071744
495.4465768576781
495.2958541658763
495.1558351950006
495.0266418605042
494.9083862985418
494.8011707594755
494.7050874994025
494.62021866925284
494.5466362010235
494.48440169070915
494.4335662775777
494.3941705195612
494.36624426459144
494.3498065177338
494.3448653039863
494.3514175267262
494.3694488219502
494.3989334085339
494.43983393480227
494.4921013218452
494.5556746042627
494.63048076917016
494.7164345942912
494.81343848605394
494.9213823187797
495.0401432761462
495.16958569611705
495.30956092055163
495.4599071507626
495.62044931042317
495.7909989172987
495.9713539652684
496.16129881819546
496.36060411731347
496.5690267038736
496.786309558843
497.01218176146665
497.24635846843813
497.4885409153796
497.7384164423474
497.9956585450708
498.2599269535872
498.53086773981454
498.8081134555348
499.0912833022225
499.37998333412276
499.6738066959213
499.972333896291
500.27513311850953
500.58176056916545
500.8917608657846
501.20466746405236
501.5200031250972
501.8372804231041
502.1560022933738
502.47566262077623
502.7957468683436
503.11573274552524
503.43509091541455
503.7532857400668
504.0697760629033
504.38401602709905
504.6954559287166
505.0035431031651
505.3077228434398
505.60743934851445
505.9021367000753
506.19125986561124
506.47425572585314
506.75057412450184
507.01966893811027
507.28099916402226
507.5340300243901
507.7782340842653
508.0130923816331
508.2380955671715
508.45274505143084
508.65655415694766
508.84904927271623
509.0297710083807
509.19827534548944
509.35413478307424
509.4969394747142
509.62629835420034
509.74184024689345
509.8432149638049
509.93009437547136
510.00217346280544
510.0591713422011
510.10083226224594
510.1269265694886
510.1372516408501
510.1316327804627
510.1099240788843
510.0720092327687
510.0178023231888
509.94724855085803
509.8603249264849
509.7570409144906
509.6374390283697
509.5015953759981
509.3496201531636
509.1816580836399
508.9978888041843
508.7985271928614
508.5838236391553
508.3540642544105
508.10957102119755
507.85070188020313
507.5778507532363
507.29144750094815
506.9919578137648
506.67988303441575
506.35575991042134
506.02016027488827
505.67369065387663
505.31699179855286
504.9507381403581
504.5756371674878
504.19242872098846
503.80188420872975
503.404805735462
503.00202514723674
502.5944029885534
502.1828273706917
501.7682127497831
501.35149861323265
500.93364807325787
500.5156463666127
500.09849925984975
499.6832313596833
499.270884328258
498.862515003445
498.45919342458666
498.0620007643678
497.67202716783635
497.2903694999659
496.918129003495
496.55640886916956
496.2063117210009
495.86893701962885
495.5453783873634
495.23672085906014
494.94403806352847
494.66838934071956
494.41081680050667
494.17234232938404
493.9539645519262
493.7566557544444
493.5813587789099
493.4289838957906
493.30040566498025
493.19645979450235
493.11794000722375
493.06559492639667
493.0401249913349
493.04217941491913
493.0723531949786
493.131184192003
493.21915028595504
493.33666662513866
493.4840829802352
493.6616812168075
493.86967289972023
494.10819704295665
494.3773180182136
494.67702363545305
495.00722340836285
495.36774701747373
495.75834298329335
496.17867756126856
496.62833386978195
497.10681126182754
497.6135249503376
498.1478058962873
498.70890096789725
499.2959733784511
499.9081034093
500.544289423525
501.2034491744815
501.8844214122294
502.58596778971076
503.3067750692605
504.04545762867787
504.8005602646959
505.5705612902735
506.3538759207204
507.1488599422717
507.9538136552636
508.7669860825809
509.5865794326254
510.4107538046575
511.23763212302094
512.0653052854492
512.8918375093119
513.7152718583736
514.5336359314639
515.344947693299
516.1472214266397
516.9384737840379
517.7167299166163
518.4800296566193
519.2264337299858
519.9540299747204
520.6609395404402
521.3453230442628
522.0053866580809
522.6393881022146
523.2456425204995
523.8225282120477
524.3684921952482
524.8820555800193
525.3618187249602
525.8064661567906
526.2147712302485
526.5856005075369
526.917917837498
527.2107881159513
527.4633807098264
527.6749725289949
527.8449507310681
527.9728150456862
528.0581797061217
528.1007749776405
528.1004482738956
528.057164854534
527.9710080992413
527.8421793556339
527.6709973605044
527.4578972359895
527.2034290642755
526.9082560465107
526.5731522537263
526.1989999796674
525.7867867074202
525.3376017035954
524.8526322555418
524.3331595686419
523.7805543421674
523.1962720434764
522.5818479015339
521.9388916418088
521.2690819855255
520.5741609371147
519.8559278844514
519.1162335370901
518.3569737283105
517.5800831073301
516.7875287484416
515.9813037041165
515.1634205292662
514.3359048038537
513.500788680849
512.6601044861175
511.8158783962885
510.9701242199559
510.124837306748
509.2819886078333
508.44351891037206
507.61133326734904
506.7872956430477
505.973223793214
505.1708843976786
504.381988461733
503.6081870009889
502.85106702290875
502.1121478166661
501.3928775613964
500.6946302611706
500.01870301327494
499.3663136147454
498.7385985104506
498.13661108430273
497.56132029346674
497.01360964377096
496.49427650295075
496.0040317468648
495.54349973231166
495.1132185885232
494.7136408179901
494.34513419600853
494.00798295712906
493.70238925550456
493.4284748851291
493.1862832450822
492.9757815340624
492.79686315774575
492.64935033192864
492.5329968639273
492.4474910942762
492.39245898048637
492.3674673044525
492.3720269849729
492.40559647686536
492.46758523831573
492.55735724837695
492.6742345569185
492.8175008497844
492.98640501238435
493.18016467544663
493.39796972729744
493.638985777799
493.90235755989147
494.1872122554817
494.49266273321365
494.81781068653567
495.1617496615147
495.52356796485464
495.90235144352886
496.2971861284168
496.7071607354093
497.1313690185028
497.5689119703313
498.0188998665239
498.4804541512963
498.95270916270135
499.43481369696156
499.92593241222306
500.4252470728646
500.93195763627466
501.44528318485453
501.96446270679485
502.48875572987595
503.0174428131734
503.54982590212904
504.085228552925
504.622996032482
505.16249530080074
505.70311488271966
506.24426463653504
506.78537542721233
507.3258987120982
507.8653060471637
508.4030885218986
508.93875613099726
509.4718370909393
510.00187710943334
510.52843861557415
511.0510999584418
511.56945458169656
512.0831101814666
512.5916878545256
513.0948212434614
513.5921556852327
514.0833473692587
514.5680625108766
515.0459765455942
515.5167733491329
515.9801444878701
516.4357885038858
516.8834102384421
517.3227201972472
517.7534339603505
518.175271639082
518.5879573820612
518.9912189318889
519.3847872337055
519.7683960964226
520.141781907102
520.5046833986329
520.856841470561
521.197999062552
521.5279010795987
521.8462943677908
522.1529277392558
522.4475520447415
522.7299202920987
522.9997878087207
523.2569124458618
523.5010548226768
523.731978607802
523.9494508363871
524.1532422605812
524.3431277314437
524.5188866101784
524.6803032065409
524.8271672421193
524.9592743360117
525.0764265103206
525.1784327128453
525.2651093542858
525.3362808572756
525.3917802144692
525.4314495527877
525.4551407008803
525.4627157568782
525.4540476535915
525.4290207183795
525.3875312250226
525.3294879350767
525.2548126263794
525.1634406065834
525.0553212097144
524.9304182738506
524.7887105981788
524.6301923778849
524.45487361542
524.2627805066674
524.0539558006084
523.8284591311439
523.5863673197881
523.3277746479873
523.0527930978674
522.7615525602868
522.4542010091751
522.1309046412395
521.7918479802102
521.4372339449354
521.0672838807826
520.6822375538941
520.2823531078936
519.8679069826718
519.4391937949483
518.9965261804604
518.540234597771
518.0706670937882
517.5881890311225
517.0931827774242
516.5860473569696
516.0671980649113
515.5370660446962
514.9960978292664
514.444754846761
513.8835128915603
513.312861561613
512.733303663082
512.1453545834607
511.54954163441033
510.94640336572354
510.33648885190354
509.7203569529168
509.098575550753
508.47172076359504
507.84037613949687
507.2051318315357
506.56658375649226
505.9253327391855
505.2819836446455
504.6371445003844
503.9914256111014
503.34543866819865
502.69979585650816
502.0551089606431
501.41198847341025
500.77104270868824
500.1328769210744
499.4980924345081
498.8672857820575
498.2410478590397
497.61996309165875
497.00460862332426
496.3955535207213
495.79335800157554
495.19857268597525
494.611737873101
494.0333828450721
493.4640251994385
492.9041702117032
492.3543102291977
491.81492409752104
491.28647662062616
490.7694180554753
490.2641836420947
489.7711931697601
489.29085057985077
488.823543605683
488.36964344947717
487.9295044964424
487.50346406582383
487.0918421985791
486.69494148110425
486.3130469042331
485.9464257566582
485.595327551814
485.25998398712636
484.9406089344397
484.63739846035685
484.350530875118
484.08016680857133
483.82644931169057
483.5895039819648
483.36943911090236
483.1663458518285
482.9802984061041
482.81135422585527
482.65955423129947
482.52492304079254
482.4074692117059
482.3071854902431
482.22404906832145
482.1580218457116
482.10905069573596
482.0770677328558
482.06199058045297
482.06372263710335
482.0821533396921
482.1171584218398
482.16860016628283
482.2363276500178
482.3201769811091
482.41997152612566
482.5355221273484
482.66662730906506
482.8130734723904
482.9746350781834
483.1510748178071
483.3421437716793
483.5475815557259
483.7671164559977
484.00046555184423
484.2473348281708
484.5074192774618
484.7804029924566
485.0659592505596
485.36375059117296
485.67342888721817
485.9946354122657
486.327000904844
486.6701456315966
487.0236794510034
487.3872018794417
487.7603021614442
488.1425593460746
488.53354237138404
488.93281015892273
489.3399117202548
489.7543862774263
490.17576339935266
490.6035631560693
491.03729629271714
491.47646442509523
491.92056025853685
492.36906783177267
492.821462787381
493.2772126703621
493.735777256279
494.19660891026933
494.65915297804787
495.1228482098348
495.5871272179802
496.05141696883805
496.5151393092054
496.9777115275109
497.4385469498362
497.89705557063695
498.35264471780283
498.804719751567
499.2526847966731
499.6959435069631
500.13389986129283
500.5659589894826
500.99152802687473
501.41001699600884
501.82083971385106
502.22341472292294
502.6171662445942
503.00152515278404
503.3759299663833
503.73982785876285
504.0926756826828
504.4339410088015
504.7631031758432
505.07965435036755
505.38310059395855
505.67296293551493
505.9487784462488
506.2101013149272
506.4565039208535
506.6875779019979
506.90293521560517
507.10220918853713
507.2850555545038
507.4511534752872
507.6002065431388
507.731943761684
507.84612050275837
507.9425194366932
508.02095143376914
508.08125643476944
508.1233042887024
508.14699555585617
508.1522622743806
508.139068688546
508.10741193679047
508.05732269763365
507.9888657915286
507.90214073676157
507.79728225756554
507.6744607426395
507.5338826522571
507.375790872125
507.20046501217263
507.0082216484743
506.79941450644674
506.57443458343437
506.3337102088339
506.07770703991747
505.8069279914512
505.52191309714874
505.22323930089095
504.9115201754876
504.58740556671523
504.2515811603766
503.90476797008034
503.5477217433608
503.1812322838031
502.8061226868873
502.4232484872595
502.03349671518254
501.63778486000115
501.237059738556
500.83229626657845
500.42449613126394
500.0146863633694
499.6039178074202
499.1932634888665
498.7838168772316
498.37669004456575
497.97301171890126
497.5739252328444
497.1805863678907
496.79416109546577
496.41582321604795
496.0467518981812
495.6881291196906
495.34113701391897
495.00695512430576
494.6867575711798
494.38171013519604
494.09296726245026
493.82166899694187
493.568937846664
493.335875590229
493.123560031581
492.9330417109843
492.7653405810806
492.621442657387
492.50229665323553
492.408810609796
492.34184853238315
492.3022270447647
492.29071207366803
492.30801557614996
492.3547923229759
492.43163675158456
492.5390799025258
492.677586453526
492.84755186550603
493.04929965498724
493.2830788073685
493.5490613455762
493.84734006850033
494.1779264734545
494.54074887668105
494.93565074555397
495.36238925565243
495.8206340853447
496.30996645994423
496.82987845683834
497.3797725822236
497.9589616292496
498.566668826502
499.20202828476846
499.86408574891203
500.5517996604849
501.264042535479
501.999602660279
502.7571861075032
503.5354190720231
504.33285052603725
505.14795519061556
505.97913681961825
506.8247317903329
507.6830129936727
508.55219401526534
509.4304335972731
510.31584036934606
511.2064778356306
512.1003696032757
512.9955048364772
513.8898439187108
514.781324304492
515.6678665407727
516.5473804369304
517.417771361181
518.2769466402532
519.1228220383227
519.9533282905423
520.7664176659614
521.560070534152
522.3323019095059
523.0811679469294
523.8047723624841
524.5012727524607
525.1688867845595
525.8058982351369
526.410662846795
526.9816139810869
527.517268041847
528.0162296455367
528.4771965159744
528.8989640818314
529.2804297562635
529.6205968792411
529.9185783044812
530.1735996143398
530.3850019474423
530.5522444251434
530.6749061643105
530.7526878656306
530.7854129686582
530.7730283669567
530.7156046788247
530.6133360712627
530.4665396370552
530.2756543269752
530.0412394412792
529.7639726868223
529.444647808265
529.0841718039457
528.6835617390514
528.2439411707707
527.7665362020228
527.2526711819722
526.703764072945
526.1213215047478
525.506933538593
524.8622681637593
524.1890655509704
523.4891320873659
522.764334218796
522.0165921259778
521.2478732617053
520.4601857767996
519.6555718629112
518.8361010405059
518.0038634203597
517.1609629666997
516.3095107897859
515.4516184952414
514.589391616887
513.724923159127
512.8602872741245
511.9975330981284
511.1386787702824
510.28570565610386
509.4405527965181
508.60511160198513
507.7812208098311
506.9706617214481
506.17515373451675
505.39635018379914
504.6358345023516
503.89511671332326
503.1756302608028
502.4787291864227
501.80568565665965
501.15768784400774
500.535838163443
499.9411518637928
499.37455597190245
498.8368885858647
498.3288985119475
497.85124523826295
497.404499236719
496.9891425834296
496.60556988647255
496.25408950863505
495.93492507155827
495.64821722660105
495.3940256767909
495.1723314334306
494.9830392902406
494.825980497285
494.70091561644784
494.6075375398763
494.54547465253887
494.5142941198956
494.5135052816117
494.5425631323047
494.60087187046116
494.68778849693575
494.80262644481087
494.9446592228029
495.11312405489065
495.30722549947046
495.5261390321081
495.7690145767148
496.0349799707418
496.3231443508861
496.632601446673
496.9624327702033
497.31171069137457
497.6795013889437
498.0648676688146
498.46687164196857
498.8845772554826
499.3170526710997
499.7633724868865
500.22261979860997
500.6938880985044
501.1762830100583
501.66892385836655
502.1709450765491
502.68149744968935
503.1997491986099
503.7248869066036
504.2561162929933
504.79266283808215
505.3337722647014
505.87871088213444
506.4267657987072
506.97724500976756
507.529477368195
508.0828124449921
508.63662028789514
509.19029108614313
509.7432347496883
510.29488041126274
510.844675859808
511.39208691374006
511.93659674248147
512.4777051446439
513.0149277911345
513.5477954412905
514.0758531398913
514.5986594025529
515.1157853966843
515.6268141249226
516.1313396176656
516.6289661409587
517.1193074256311
517.6019859231419
518.0766320931756
518.5428837275985
519.0003853149307
519.4487874489627
519.8877462846666
520.3169230440783
520.7359835743733
521.1445979599144
521.5424401896026
521.929187880445
522.3045220578714
522.6681269928719
523.019690095612
523.3589018648667
523.6854558923599
523.9990489207552
524.2993809537568
524.5861554164833
524.8590793640229
525.1178637359493
525.3622236544369
525.5918787634049
525.8065536059627
526.0059780374052
526.1898876711142
526.35802435482
526.510136674711
526.6459804847786
526.7653194586265
526.8679256608449
526.9535801349406
527.022073504738
527.0732065860973
527.1067910057831
527.1226498243119
527.1206181596227
527.1005438084117
527.0622878619552
527.0057253132312
526.9307456521551
526.8372534459244
526.7251689016455
526.5944284085787
526.4449850575464
526.2768091353478
526.0898885922085
525.8842294804974
525.6598563630552
525.4168126895834
525.1551611396176
524.8749839307422
524.5763830908013
524.2594806929471
523.9244190525084
523.5713608847727
523.2004894229225
522.8120084955385
522.4061425632169
521.9831367139386
521.5432566169419
521.0867884349569
520.6140386947422
520.1253341159718
519.6210213986575
519.101466969374
518.5670566865952
518.0181955055214
517.4553071028845
516.8788334623051
516.2892344208691
515.6869871776634
515.0725857650905
514.4465404838371
513.8093773024808
513.1616372228242
512.503875612135
511.83666150362194
511.16057686660974
510.47621584793006
509.78418398611535
509.0850974000958
508.3795819541741
507.66827240109797
506.95181150514327
506.23084914725575
505.50604141439936
504.7780496753208
504.0475396449806
503.31518043994413
502.58164362703434
501.84760226758146
501.1137299596241
500.38069988041565
499.64918383158516
498.91985128930446
498.19336846181363
497.47039735660695
496.75159485952685
496.0376118279708
495.3290922003517
494.6266721239485
493.9309791033134
493.2426311713285
492.562236084822
491.8903905465166
491.22767945500084
490.57467518432577
489.93193689475703
489.3000098761445
488.6794249252031
488.0706977578045
487.4743284572222
486.8908009591857
486.3205825745223
485.7641235500648
485.2218566683275
484.6941968862554
484.18154101316713
483.684267427888
483.20273583496856
482.73728705970626
482.28824288145756
481.85590590456303
481.4405594660791
481.04246757938637
480.66187491260325
480.2990068006157
479.9540692894076
479.62724921126744
479.3187142893624
479.02861327007446
478.75707608135025
478.50421401519617
478.27011993244747
478.0548684879643
477.8585163743362
477.6811025821039
477.5226486745052
477.3831590747266
477.2626213635997
477.16100658565057
477.0782695614195
477.014349204027
476.9691688380599
476.94263651893255
476.93464535089834
476.945073801953
476.97378601395036
477.02063210631064
477.0854484718125
477.16805806306684
477.2682706684445
477.3858831764329
477.52067982755756
477.6724324531038
477.8409006999824
478.02583224120934
478.22696297164094
478.4440171888037
478.67670775885125
478.924736267843
479.1877931587286
479.46555785460214
479.75769886891135
480.0638739034034
480.38372993477986
480.7169032911577
481.06301971954053
481.4216944456794
481.79253222785724
482.1751274062682
482.5690639498274
482.9739155023715
483.38924543026064
483.81460687340206
484.24954280176814
484.6935860795489
485.14625953912156
485.6070760670434
486.07553870426943
486.55114076275953
487.0333659606374
487.52168857803895
488.01557363573954
488.51447709854347
489.01784610529387
489.5251192272498
490.03572675647564
490.54909102580666
491.0646267618426
491.5817414722341
492.09983586831555
492.61830432391577
493.1365353709751
493.6539122324442
494.1698133928108
494.6836132063998
495.1946825433506
495.7023894729697
496.2060999839994
496.7051787411539
497.19898987706745
497.6868978185801
498.1682681460955
498.6424684846045
499.1088694248834
499.5668454732872
500.0157760284646
500.4550463832038
500.8840487495125
501.302183304983
501.70885925853827
502.10349593365015
502.4855238669945
502.8543859204125
503.20953840397516
503.55045220784126
503.8766139404065
504.1875270700836
504.4827130679818
504.7617125486996
505.0240864063587
505.26941694296266
505.49730898613643
505.7073909932641
505.8993161390215
506.0727633832985
506.2274385165388
506.3630751796346
506.4794358556733
506.576312831019
506.65352912339284
506.71093937472466
506.7484307065873
506.76592353603377
506.763372349667
506.7407664338389
506.6981305589252
506.63552561562506
506.55304920128907
506.4508361543736
506.3290590351224
506.18792855056256
506.02769392196234
505.8486431928973
505.65110347605554
505.4354411369262
505.20206191253664
504.95141096337994
504.6839728566622
504.4002714789422
504.10086987613687
503.78637001882714
503.45741249080237
503.11467609878366
502.7588774012051
502.3907701538717
502.0111446703086
501.62082709463164
501.22067858480233
500.8115944041946
500.39450291949703
499.97036450304773
499.5401703377724
499.10494112302615
498.6657256797998
498.2235994539334
497.7796629162144
497.3350398584661
496.89087558495083
496.4483349986565
496.0086005823778
495.5728702748912
495.1423552428883
494.7182775497058
494.30186772233077
493.8943622186847
493.49700079766353
493.1110237948627
492.73766930739356
492.37817029176205
492.03375157939035
491.70562681491947
491.39499532294553
491.1030389094154
490.8309186045739
490.57977135501284
490.35070667299203
490.1448032518389
489.96310555682936
489.80662040156693
489.6763135204344
489.5731061482327
489.4978716186401
489.45143199363395
489.43455473648424
489.447949441339
489.492264632785
489.5680846490849
489.6759266230786
489.81623757494935
489.9893916311297
490.19568738366013
490.43534540433626
490.70850592794636
491.01522671879854
491.35548113449136
491.7291564005245
492.13605210887107
492.5758789530937
493.04825771200643
493.552718493257
494.0887002475162
494.65555056318
495.2525257505897
495.87879122374056
496.53342218636357
497.21540462819456
497.92363663603174
498.6569300228802
499.4140122771168
500.19352883222854
500.99404565626674
501.81405215872275
502.65196441113324
503.5061286762371
504.3748252389052
505.2562725304778
506.1486315366475
507.0500104775774
507.95846974748474
508.8720270994713
509.7886630599788
510.7063265558883
511.6229407359849
512.536408967288
513.4446209856509
514.345459178953
515.236804980179
516.1165453467281
516.982579301518
517.8328245108827
518.6652238738307
519.4777520968622
520.2684222282227
521.0352921252471
521.7764708284468
522.4901248160879
523.1744841132925
523.8278482300412
524.4485919028915
525.0351706158717
525.5861258768173
526.1000902263416
526.5757919576218
527.0120595261776
527.4078256298833
527.7621309406721
528.07412747079
528.3430815579624
528.5683764553185
528.7495145132976
528.8861189423271
528.9779351469268
529.0248316239473
529.0268004197037
528.9839571429127
528.8965405325638
528.7649115821063
528.5895522234347
528.3710635763043
528.1101637709631
527.8076853538191
527.4645722879399
527.0818765621724
526.6607544245767
526.2024622575857
525.7083521138446
525.1798669330716
524.6185354615195
524.0259668966856
523.4038452808288
522.7539236677695
522.0780180883276
521.3780013405661
520.6557966317156
519.9133710991437
519.1527292381099
518.3759062642501
517.5849614387718
516.7819713841493
515.9690234178905
515.1482089316011
514.3216168420183
513.4913271400853
512.6594045634336
511.8278924167802
510.9988065637356
510.1741296124088
509.35580531598845
508.54573320819594
507.7457634921534
506.9576921997425
506.18325663699636
505.42413112950874
504.6819230802637
503.9581693506265
503.2543329735148
502.57180020601334
501.91187792695285
501.2757913832058
500.66468228667344
500.0796072621857
499.52153664480215
498.99135362331947
498.4898537251741
498.0177446363819
497.57564634865446
497.16409162440414
496.78352676899135
496.43431269836367
496.11672628912345
495.830961996981
495.5771337285802
495.3552769508188
495.1653510209953
495.00724172041083
494.88076397350085
494.78566473422
494.7216260211716
494.6882680827789
494.68515267366746
494.71178642346894
494.7676242794443
494.8520730045295
494.96449471265595
495.10421042356967
495.2705036198814
495.46262378967884
495.67978993870366
495.9211940568313
496.1860045243787
496.47336944461034
496.78241988970996
497.1122730484013
497.46203526435704
497.83080495554606
498.2176754056848
498.62173742002767
499.0420818388189
499.47780190281026
499.927995466305
500.39176705417907
500.8682297603129
501.35650698581287
501.85573401632803
502.36505943871873
502.8836463982747
503.41067369860457
503.94533674720174
504.4868483504618
505.0344393626116
505.58735919362204
506.1448761817316
506.70627783671836
507.2708709605524
507.83798165249243
508.4069552060394
508.97715590548245
509.54796673005546
510.11878897392495
510.6890417903803
511.25816166868196
511.8256018520324
512.3908317050242
512.9533360387937
513.5126144020078
514.0681803457144
514.6195606698951
515.1662946593132
515.7079333159433
516.2440385949303
516.774182650659
517.29794709913
517.8149223024448
518.3247066807751
518.8269060567065
519.321133036382
519.8070064314695
520.2841507255353
520.7521955879711
521.2107754381217
521.6595290617516
522.098099281483
522.5261326824075
522.9432793936652
523.3491929263472
523.7435300676811
524.1259508310457
524.4961184610015
524.853699492237
525.1983638610482
525.5297850676328
525.847640387196
526.1516111276003
526.4413829310994
526.7166461176049
526.9770960668812
527.2224336369139
527.4523656155791
527.6666052027044
527.8648725197276
528.0468951442143
528.212408666468
528.3611572653526
528.4928943003798
528.6073829170572
528.7043966624165
528.7837201075803
528.8451494742387
528.8884932618812
528.9135728726201
528.92022323049
528.9082933921518
528.8776471459354
528.828163596194
528.759737730067
528.672280963922
528.5657216669669
528.4400056597099
528.295096685197
528.1309768512274
527.9476470419698
527.7451272974994
527.5234571598724
527.2826959844843
527.0229232155888
526.7442386249528
526.446762512755
526.1306358699939
525.7960205018397
525.4430991114934
525.0720753442348
524.6831737914644
524.276639954594
523.852740168682
523.4117614858017
522.9540115182626
522.4798182419191
521.9895297598849
521.4835140270344
520.9621585357296
520.4258699632777
519.8750737817144
519.310213830538
518.7317518530623
518.1401669971099
517.5359552808768
516.919629024844
516.2917162506665
515.6527600480782
515.003317911001
514.3439610441114
513.6752736411967
512.9978521367217
512.3123044320937
511.6192490981459
510.91931455539446
510.21313823366745
509.5013657128351
508.78464984642005
508.0636498698687
507.3390304952905
506.61146099453606
505.8816142725621
505.15016593307905
504.4177933385244
503.68517466646114
502.9529879644925
502.2219102057103
501.49261634669944
500.7657783901883
500.04206445446766
499.3221378516845
498.6066561771152
497.89627041154483
497.19162403885866
496.49335218089044
495.8020807514883
495.1184256317172
494.4429918680579
493.7763728953974
493.1191497865209
492.47189052971817
491.835149336028
491.209465977571
490.59536515832747
489.99335591863405
489.4039310745683
488.8275666932443
488.2647216048824
487.7158369524122
487.1813357792876
486.6616226560659
486.157083346213
485.668084511512
485.1949734573126
484.7380779177157
484.29770588058454
483.87414545210174
483.467664760426
483.0785118978359
482.70691490061034
482.3530817658376
482.0172005042943
481.6994392284423
481.39994627448203
481.1188503572527
480.8562607565674
480.6122675334407
480.38694177457415
480.1803358633453
479.99248377543574
479.82340139718696
479.6730868647408
479.5415209219995
479.4286672954661
479.3344730839853
479.2588691612983
479.20177058926924
479.163077039678
479.14267322251277
479.14042931866226
479.15620141493065
479.1898319393265
479.24115009459575
479.30997228805967
479.3961025558904
479.49933298002566
479.61944409603126
479.7562052903419
479.9093751854041
480.07870201132397
480.26392396275554
480.4647695398974
480.68095787257806
480.9121990265476
481.1581942912391
481.4186364484097
481.69321002124224
481.9815915036491
482.28344956964855
482.598445262818
482.9262321659974
483.26645655159194
483.6187575130333
483.98276707813005
484.3581103051946
484.74440536299426
485.1412635957206
485.54828957433364
485.9650811357676
486.3912294116188
486.82631884802794
487.26992721856726
487.7216256320256
488.180978537065
488.64754372583326
489.1208723387036
489.6005088723672
490.0859911935168
490.5768505603824
491.07261165439303
491.572792624245
492.0769051446248
492.58445449177765
493.0949396380855
493.6078533677223
494.12268241533985
494.6389076296532
495.15600416368596
495.67344169332245
496.1906846657472
496.7071925792921
497.22242029608475
497.7358183886121
498.2468335210845
498.7549088663131
499.2594845586721
499.75999818353534
500.2558853033539
500.74658002033055
501.2315155754395
501.71012498335665
502.18184170273906
502.64610034115606
503.1023373937754
503.5499920146746
503.9885068194461
504.4173287176269
504.83590977340674
505.2437080929886
505.64018873692885
506.02482465574184
506.3970976470297
506.75649933245677
507.10253215292073
507.4347103801641
507.7525611429237
508.0556254655778
508.3434593170265
508.61563466727296
508.8717405490655
509.1113841219346
509.3341917359196
509.5398099922388
509.7279067981385
509.8981724131297
510.050320483754
510.1840890639116
510.2992416177571
510.39556800223767
510.4728854264595
510.53103938517904
510.5699045638544
510.58938571284705
510.5894184884795
510.5699702587791
510.5310408718019
510.4726633844919
510.39490475002293
510.29786646149114
510.1816851497693
510.0465331333421
509.8926189179699
509.72018764405976
509.5295214796457
509.32093995692026
509.0948002502802
508.8514973938088
508.5914644360669
508.31517253005586
508.023130956194
507.7158870761652
507.39402621550886
507.05817147277986
506.70898345303806
506.34715992336123
505.97343538804154
505.5885805810642
505.19340187347524
504.78874059328075
504.3754722555559
503.9545057005104
503.5267821373122
503.093274091497
502.6549842538723
502.21294422894147
501.7682131810589
501.32187637671956
500.87504362163753
500.42884759153475
499.98444205584263
499.54299999377923
499.10571160251897
498.673782197487
498.2484300051469
497.8308838490829
497.42238073069313
497.02416330630325
496.6374772629977
496.2635685959787
495.9036807908091
495.5590519144294
495.23091161944285
494.9204780667675
494.62895477229216
494.3575273837263
494.1073603944938
493.8795938021948
493.6753397197125
493.4956789476537
493.3416575175247
493.21428321569186
493.1145220987777
493.0432950117489
493.0014741205253
492.9898794714191
493.00927559014633
493.0603681335876
493.1438006078555
493.26015116657703
493.4099295036182
493.59357385473
493.81144812274357
494.0638391410397
494.3509540900868
494.67291808179857
495.0297719263218
495.4214700956409
495.847878898052
496.3087748771928
496.8038434488922
497.33267778855344
497.8947779811434
498.4895504451241
499.1163076408083
499.77426807266585
500.46255659412327
501.18020502238
501.9261530696061
502.69924959566447
503.49825418625204
504.32183905905055
505.16859129910716
506.0370154232488
506.925536271871
507.8325022248901
508.75618873709874
509.6948021866127
510.6464840285429
511.6093152444164
512.5813210763235
513.5604760332889
514.5447091559204
515.5319095239406
516.5199319897292
517.5066031196976
518.4897273240376
519.4670931541917
520.4364797462586
521.3956633874417
522.3424241815661
523.2745527887784
524.1898572138799
525.0861696172366
525.9613531218208
526.8133085896046
527.6399813402539
528.4393677849905
529.209521948563
529.9485618524676
530.6546757328614
531.3261280671053
531.9612653833931
532.5585218285746
533.116424470161
533.6335983094945
534.108770984177
534.5407771389571
534.9285624455069
535.271187252865
535.5678298517444
535.8177893374392
536.0204880576099
536.1754736326993
536.2824205383318
536.3411312409711
536.3515368803072
536.3136974940703
536.2278017832906
536.0941664184156
535.913234888966
535.6855759015198
535.4118813329044
535.0929637474947
534.7297534895736
534.3232953637956
533.8747449188211
533.3853643511753
532.8565180481277
532.2896677899552
531.6863676333402
531.048258498861
530.3770624865444
529.6745769444043
528.9426683156997
528.183265791354
527.3983547946588
526.5899703260642
525.7601901963592
524.9111281769234
524.0449270959384
523.1637519094162
522.2697827757021
521.3652081617776
520.4522180092126
519.5329969870069
518.6097178578356
517.6845349834173
516.7595779937909
515.8369456442186
514.9186998822736
514.006860146364
513.1033979155206
512.210231528806
511.3292212912367
510.46216488154863
509.6107930755214
508.77676579689046
507.96166850613344
507.1670089356235
506.39421417784894
505.64462813153705
504.9195093086954
504.2200290038196
503.547269824768
502.90222458309825
502.28579553998145
501.69879400217746
501.1419402609705
500.6158638654371
500.12110421996675
499.6581114945497
499.22724783510535
498.8287888600089
498.46292542797846
498.12976566157886
497.82933720975035
497.56158973200115
497.32639758624816
497.12356270181897
496.95281761875555
496.8138286742949
496.70619931723877
496.6294735308638
496.5831393450876
496.5666324188456
496.5793396739124
496.6206029617347
496.68972274534894
496.7859617790406
496.9085487689301
497.05668199835316
497.2295329026698
497.426249578947
497.645960216803
497.8877764376652
498.15079653071155
498.43410857475357
498.7367934362912
499.0579276350071
499.39658606904135
499.7518445934594
500.12278244644114
500.508484518789
500.90804346334966
501.320561641964
501.74515290858767
502.1809442281739
502.6270771318567
503.08270900986713
503.5470142444321
504.01918518567305
504.4984329742795
504.98398821540184
505.4751015088415
505.97104384124304
506.4711068465678
506.9746029416014
507.480865343684
507.9892479781981
508.4991252835786
509.00989192182544
509.5209624026902
510.03177062983275
510.54176937726
511.05042970436165
511.5572403177756
512.0617068882133
512.563351330287
513.0617110532825
513.5563381905987
514.0467988152684
514.5326721486261
515.0135497688765
515.4890348259739
515.9587412688253
516.4222930904032
516.8793235959521
517.3294746990285
517.7723962497345
518.2077453991539
518.6351860035849
519.0543880716465
519.4650272568717
519.866784397922
520.2593451081182
520.642399415541
521.0156414545269
521.3787692089624
521.7314843074411
522.073491869965
522.4045004055147
522.7242217595095
523.032371109967
523.3286670108708
523.6128314810109
523.8845901363819
524.1436723640944
524.389811535637
524.622745257202
524.8422156547206
525.047969691199
525.2397595139514
525.4173428294424
525.5804833035713
525.7289509851969
525.8625227505685
525.9809827662289
526.0841229678678
526.1717435524495
526.2436534808714
526.2996709884094
526.3396241002846
526.3633511497964
526.3707012965044
526.3615350419176
526.335724740132
526.2931551008561
526.2337236823493
526.1573413719149
526.0639328517391
525.9534370480666
525.8258075619059
525.6810130796287
525.5190377619998
525.3398816104147
525.1435608092567
524.9301080433365
524.6995727894212
524.4520215809204
524.187538244882
523.9062241105562
523.608198188854
523.2935973221428
522.9625763038875
522.6153079677044
522.2519832454542
521.8728111940527
521.4780189907424
521.0678518966181
520.6425731882479
520.2024640572674
519.7478234778707
519.2789680421964
518.7962317636069
518.2999658478228
517.7905384319026
517.2683342910934
516.7337545136536
516.187216143771
515.6291517927334
515.060009218645
514.48025087511
513.8903534293598
513.2908072503891
512.6821158676898
512.0647954012371
511.43937396347434
510.8063910341152
510.1663968086664
509.5199515216803
508.867624745898
508.20999466852084
507.5476473459012
506.8811759379972
506.2111799239632
505.5382643002983
504.86303876310006
504.18611687605545
503.50811522585246
502.82965256670474
502.15134895574107
501.4738248810577
500.7977003842849
500.1235941795922
499.45212277106407
498.78389957041037
498.1195340170307
497.4596307024586
496.80478850120267
496.15559971005734
495.5126491979611
494.87651356849693
494.24776033713493
493.62694712530896
493.0146208734032
492.4113170747096
491.8175590323884
491.2338571414246
490.66070819753804
490.09859473492855
489.54798439462644
489.00932932507624
488.4830656164596
487.9696127701685
487.4693732047006
486.98273179912377
486.51005547518156
486.0516928190116
485.60797374332486
485.179209190797
484.76569087932904
484.36769108969247
483.9854624959546
483.61923803896775
483.2692308430338
482.9356341756766
482.61862145027624
482.31834627113966
482.0349425204155
481.7685244861504
481.51918703065354
481.2870057981338
481.072037460376
480.87431999911234
480.6938730236603
480.53069812230444
480.3847792457761
480.2560831210339
480.1445596934151
480.05014259507936
479.9727496375387
479.91228332593647
479.86863139263926
479.8416673476681
479.8312510434996
479.83722925172697
479.85943624902177
479.89769440980047
479.95181480298714
480.02159779024396
480.1068336230298
480.2073030358737
480.32277783326856
480.4530214676478
480.59778960597913
480.7568306826207
480.92988643616656
481.11669242807466
481.3169785409814
481.5304694547322
481.7568850982875
481.9959410757717
482.24734906505245
482.5108171874284
482.7860503471928
483.0727505399939
483.37061712909565
483.67934708884667
483.99863521486554
484.3281743006313
484.6676552803702
485.0167673383545
485.3751979849338
485.74263309982825
486.1187569434304
486.5032521370793
486.8957996134544
487.2960785384215
487.7037662058829
488.1185379073999
488.5400667785237
488.9680236238894
489.4020767232598
489.8418916208694
490.2871309005887
490.7374539495895
491.19251671329994
491.6519714445332
492.1154664497481
492.58264583546884
493.0531492579338
493.52661167908343
494.00266313206276
494.48092849944084
494.96102730726795
495.4425735379827
495.9251754651057
496.4084355126026
496.89195014169525
497.37530976777185
497.85809870994746
498.33989517573514
498.82027128313274
499.29879312226467
499.7750208585601
500.24850887921787
500.718805984428
501.1854556245069
501.6479961838567
502.10596131241834
502.5588803050725
503.00627852920724
503.4476779004061
503.88259740594583
504.31055367561345
504.73106159918007
505.1436349896652
505.5477872912729
505.9430323306657
506.32888511006627
506.704862640501
507.0704848133123
507.42527530791506
507.7687625336524
508.1004806035706
508.41997033792745
508.7267802952114
509.0204678283201
509.3006001633599
509.5667554983335
509.8185241187459
510.05550952697536
510.27732958213585
510.4836176470881
510.6740237392023
510.8482156813917
511.0058802498811
511.14672431517903
511.27047597268995
511.3768856593741
511.46572725289275
511.5367991497242
511.5899253188262
511.62495632756014
511.6417703367717
511.6402740621172
511.6204036988718
511.5821258076239
511.52543815838305
511.4503705306809
511.3569854672599
511.24537897893595
511.11568119822863
510.9680569794144
510.8027064427238
510.61986546047
510.4198060829863
510.2028369023208
509.9693033516667
509.7195879385395
509.4541104097663
509.1733278464084
508.87773468679393
508.56786267584255
508.244280738922
507.9075947784954
507.5584473917714
507.1975175075211
506.82551994020014
506.44320485948384
506.0513571733189
505.65079582262166
505.2423729857652
504.82697319102186
504.40551233522143
503.9789366069888
503.548221313012
503.1143696059176
502.6784111124746
502.24140046101365
501.80441570712463
501.368556656944
500.934943087618
500.5047128647595
500.07901995693874
499.65903234752363
499.24592984452687
498.84090178946093
498.44514466657677
498.05985961432725
497.68624984140297
497.32551795024824
496.978863171483
496.64747851310125
496.33254782878333
496.03524281018395
495.75671990864384
495.498117192346
495.2605511455005
495.045113416752
494.8528675246281
494.68484552844876
494.5420446737026
494.42542402145193
494.3359010718772
494.2743483926262
494.24159026319074
494.23839934706444
494.26549340389636
494.3235320542901
494.413113610331
494.5347719853397
494.6889736966546
494.8761149754035
495.0965189973611
495.350433249099
495.63802704368806
495.95938920016823
496.3145259009186
496.7033587408841
497.1257229823379
497.58136602851675
498.0699461290341
498.591031329434
499.1440986766434
499.72853369140756
500.3436301180392
500.9885899609799
501.6625238167025
502.364451508441
503.09330303015327
503.8479198050005
504.62705626238755
505.4293817363102
506.2534826863633
507.0978652412871
507.96095806348626
508.84111553149665
509.73662123588645
510.6456917825534
511.5664808958499
512.4970838124667
513.4355419554674
514.3798478763554
515.3279504516097
516.2777603186968
517.2271555351745
518.1739874431454
519.116086720035
520.051269595434
520.9773442125907
521.8921171120437
522.7933998138615
523.6790154740742
524.5468055901447
525.3946367297286
526.2204072565628
527.0220540270595
527.7975590309721
528.5449559493442
529.2623366029351
529.9478572644563
530.5997448082463
531.2163026715078
531.7959166017474
532.3370601656765
532.8382999956114
533.2983007503788
533.7158297688416
534.0897613952438
534.4190809567292
534.7028883747357
534.9404013934335
535.1309584098815
535.2740208920573
535.3691753723831
535.416135005958
535.4147406846506
535.3649617003418
535.2668959528152
535.1207697001055
534.926936851446
534.6858778051603
534.3981978359726
534.0646250382785
533.6860078340932
533.2633120564465
532.7976176210016
532.2901148007111
531.7421001202772
531.1549718889373
530.5302253916899
529.8694477604685
529.1743125480115
528.4465740282262
527.6880612477721
526.9006718544061
526.086365728395
525.2471584439924
524.3851145886538
523.5023409682387
522.6009797268895
521.6832014105472
520.751198003093
519.8071759639089
518.8533492953222
517.8919326679029
516.9251346310206
515.9551509353676
514.9841579933228
514.0143065020884
513.0477152534679
512.0864651530143
511.13259347002725
510.1880883385319
509.2548835278891
508.33485350021766
507.42980877027003
506.54149158175017
505.67157191235
504.82164381803165
503.99322212532513
503.18773947866043
502.40654374797157
501.65089579998045
500.92196763474766
500.2208408872849
499.5485056922768
498.90585990826895
498.29370869602616
497.7127644441737
497.1636470337111
496.64688443153045
496.1629136017242
495.71208172224686
495.2946476933074
494.9107839227882
494.56057837302774
494.24403685245403
493.96108553479996
493.71157368794405
493.49527659385507
493.3118986407132
493.1610765680047
493.0423828451948
492.95532916451464
492.8993700284295
492.8739064125281
492.8782894848304
492.9118243628498
492.97377389015895
493.06336241476646
493.1797795522596
493.3221839173526
493.4897068081881
493.6814558285021
493.8965184336278
494.1339653872642
494.3928541169004
494.67223195676934
494.97113926818633
495.28861242808944
495.62368667765475
495.975398823981
496.3427897889529
496.7249070004657
497.1208066222268
497.52955561935636
497.95023365803104
498.38193483840354
498.8237692609571
499.27486442732544
499.73436647747815
500.20144126597665
500.6752752807748
501.1550764087372
501.6400745526833
502.12952210533365
502.62269428608056
503.11888934701807
503.6174286551127
504.117656657776
504.6189407394108
505.12067097672525
505.62225980084463
506.1231415744814
506.6227720925066
507.12062801422707
507.61620623565443
508.10902320999656
508.5986142244715
509.0845326413389
509.5663491108326
510.0436507634183
510.5160403885001
510.9831356064353
511.4445680403675
511.8999824940221
512.3490361412266
512.7913977325063
513.2267468236735
513.6547730309137
514.0751753164941
514.4876613088455
514.8919466603563
515.2877544457423
515.6748146034214
516.0528634218165
516.4216430720837
516.7809011883552
517.1303904961941
517.4698684896055
517.7990971566055
518.1178427529808
518.4258756235542
518.7229700700149
519.008904264089
519.2834602045531
519.5464237163768
519.797584490148
520.0367361598921
520.2636764172654
520.478207159974
520.6801346722399
520.8692698351933
521.0454283651932
521.2084310781717
521.3581041780284
521.4942795669907
521.6167951757716
521.7254953112363
521.8202310191552
521.9008604595635
521.9672492922663
522.0192710701033
522.0568076376105
522.0797495327237
522.0879963891705
522.0814573371564
522.0600513999566
522.023707884121
521.9723667611205
521.9059790384318
521.8245071182713
521.7279251423989
521.616219321662
521.4893882491655
521.3474431960702
521.1904083890905
521.0183212688327
520.8312327281413
520.6292073296398
520.4123235016745
520.180673711987
519.9343646185597
519.6735171971669
519.3982668452466
519.108763461779
518.8051715029358
518.4876700133044
518.1564526325217
517.8117275771726
517.4537175978289
517.0826599111113
516.698806106683
516.3024220291168
515.8937876345641
515.4731968221463
515.040957240074
514.5973900665704
514.1428297657213
513.6776238183825
513.2021324282632
512.716728203367
512.2217958130083
511.71773162069957
511.2049432932238
510.6838493862993
510.154878907275
509.61847085535226
509.07507373989415
508.52514507742836
507.9691508680301
507.4075650518425
506.8408689465303
506.26955066652334
505.69410452499983
505.1150304196401
504.5328332032417
503.94802204032857
503.3611097509597
502.77261214298755
502.18304733402334
501.5929350644519
501.002796002932
500.4131510458578
499.8245206122498
499.2374239355561
498.65237835390127
498.0698986003533
497.4904960947948
496.9146782389888
496.34294771642743
495.77580179857813
495.21373165921113
494.6572216985654
494.10674887906396
493.5627820742191
493.025781432344
492.49619775668225
491.9744719035876
491.4610342003803
490.9563038844732
490.46068856529354
489.9745837104401
489.49837215739785
489.03242365208723
488.57709441549895
488.1327267395366
487.69964861303794
487.2781733788539
486.8685994228071
486.4712098952503
486.0862724658839
485.71403911238264
485.3547459432746
485.0086130554156
484.67584442630937
484.3566278414452
484.05113485669756
483.7595207956457
483.48192478150133
483.21846980322726
482.9692628153372
482.73439487072073
482.51394128567097
482.3079618361917
482.11650098458466
481.93958813517804
481.77723791790004
481.62945049831706
481.4962119126889
481.37749442645634
481.2732569144635
481.18344526117716
481.1079927790539
481.0468206431245
480.9998383397963
480.9669441278364
480.9480255094715
480.94295970950736
480.95161416035626
480.97384699085325
481.00950751667773
481.05843673018194
481.1204677874135
481.1954264901185
481.2831317605598
481.3833961070123
481.4960260778594
481.62082270231394
481.7575819158241
481.9060949682666
482.0661488131705
482.2375264763517
482.42000740244674
482.6133677779765
482.8173808297105
483.0318170972295
483.25644467868045
483.4910294488287
483.7353352486754
483.9891240460872
484.2521560670374
484.5241898972195
484.8049825539483
485.0942895284432
485.3918647988012
485.6974608141379
486.0108284505072
486.3317169393861
486.65987376971543
486.9950445646887
487.33697293465275
487.68540030762756
488.0400657390845
488.40070570278306
488.76705386465426
489.13884084187754
489.51579394942485
489.89763693644494
490.2840897149615
490.67486808345393
491.06968344792796
491.4682425431266
491.8702471565195
492.275393857765
492.6833737364603
493.0938721510426
493.50656849164847
493.92113595969977
494.3372413669619
494.754544956758
495.17270024992087
495.5913539179648
496.01014568588886
496.4287082669138
496.8466673313215
497.2636415114352
497.6792424446372
498.09307485617626
498.5047366833325
498.91381924231166
499.3199074390218
499.72258002462667
500.1214098965606
500.51596444554735
500.90580594897267
501.29049201069824
501.6695760471514
502.04260781929753
502.4091340099226
502.7686988454465
503.12084476126967
503.46511310938894
503.80104490684994
504.12818162351357
504.4460660075543
504.75424294700895
505.0522603655228
505.3396701502881
505.61602911012005
505.88089996164433
506.1338523415866
506.374463843088
506.60232107380733
506.81702073333287
507.0181707072165
507.2053911747639
507.3783157275948
507.53659249591163
507.6798852793894
507.80787467956804
507.9202592305249
508.0167565245587
508.09710432960156
508.16106169505287
508.2084100427005
508.23895423939433
508.2525236482387
508.2489731552333
508.22818416843864
508.1900655868832
508.13455473657115
508.061618271043
507.9712530339797
507.8634868813842
507.7383794609131
507.5960229459085
507.4365427216375
507.2600980212325
507.06688250887106
506.8571248078193
506.6310889710115
506.38907489189927
506.1314186533671
505.8584928125225
505.5707066191082
505.2685061652845
504.9523744646168
504.6228314581591
504.28043394551037
503.92577543864786
503.55948593631626
503.18223161675047
502.7947144464839
502.39767170298165
501.9918754088508
501.57813167539257
501.15727995329354
500.73019218837715
500.29777188043886
499.8609530432475
499.4206990639283
498.97800146011383
498.53387853338035
498.0893739176507
497.6455550214534
497.2035113631812
496.7643527987875
496.32920764164845
495.8992206745955
495.4755510545392
495.0593701105225
494.6518590363832
494.2542064795967
493.8676060283476
493.4932535993728
493.1323447296076
492.78607177521457
492.4556210221083
492.14216971263056
491.8468829935801
491.5709107913885
491.31538462083523
491.0814143343475
490.87008481955957
490.6824526533924
490.51954272152847
490.3823448127793
490.27181019842874
490.1888482072549
490.134322807479
490.1090492073201
490.11379048624656
490.1492542694934
490.21608945887084
490.3148830332525
490.44615693246726
490.61036503863636
490.80789026923236
491.0390417962699
491.3040524061321
491.6030760145293
491.9361853509839
492.30336982709144
492.70453360257824
493.1394938628659
493.60797932149353
494.10962896028855
494.6439910195858
495.21052225014284
495.80858743765253
496.437459209955
497.096318136145
497.7842531257964
498.5002621354461
499.2432531883185
500.0120457120701
500.8053721980838
501.62188018452207
502.4601345639465
503.31862021490156
504.1957449554363
505.08984281508214
505.99917762035545
506.9219468872801
507.8562860127954
508.8002727553708
509.75193199370403
510.7092407509074
511.67013347010993
512.6325075259671
513.5942289551656
514.5531383876589
515.5070571591148
516.4537935838482
517.3911493664297
518.3169261291134
519.2289320312988
520.1249884564293
521.0029367410225
521.8606449199563
522.6960144617373
523.5069869672317
524.2915508051113
525.0477476571214
525.7736789462674
526.4675121212304
527.1274867706901
527.7519205417289
528.3392148370663
528.8878602665984
529.3964418296064
529.8636438050465
530.2882543284493
530.6691696350072
531.0053979495822
531.2960630057074
531.5404071772106
531.7377942076918
531.8877115246157
531.9897721262587
532.0437160313023
532.0494112827386
532.0068544999333
531.9161709749886
531.7776143118242
531.5915656086537
531.3585321867484
531.0791458704931
530.7541608258165
530.3844509661852
529.9710069374426
529.5149326947644
529.0174416869315
528.4798526650895
527.9035851349472
527.2901544729406
526.6411667282331
525.9583131335854
525.2433643491327
524.4981644640244
523.7246247816629
522.9247174150122
522.1004687191052
521.2539525884737
520.3872836477568
519.5026103641444
518.6021081105727
517.6879722085874
516.762410979572
515.8276388326325
514.8858694169338
513.9393088656702
512.9901491580966
512.040561625144
511.092690623254
510.148647400053
509.2105041742921
508.2802884511023
507.3599775922361
506.4514936595359
505.5566985483326
504.6773894258922
503.8152944884227
502.97206904845706
502.1492919626851
501.34846240853017
500.5709970159943
499.81822735947895
499.0913978125173
498.3916637665943
497.7200902134248
497.0776506882862
496.46522657035337
495.8836067343821
495.33348754651496
494.81547319548775
494.33007634909404
493.87771912444447
493.4587343593167
493.0733671707211
492.72177678570654
492.4040386285066
492.1201466473548
491.8700158635825
491.65348512497485
491.47032004484277
491.32021610788587
491.20280192365345
491.1176426082743
491.06424327509046
491.04205261490836
491.0504665467257
491.0888319200293
491.1564502501142
491.25258146839246
491.3764476701999
491.5272368432126
491.70410656023824
491.9061876208903
492.13258762750826
492.3823944816616
492.6546797885467
492.9485021575212
493.26291038796796
493.5969465306919
493.94964881610133
494.3200544414465
494.7072022104716
495.11013501989794
495.52790218818467
495.95956162305015
496.40418182527264
496.8608437272766
497.3286423659747
497.8066883902593
498.29410940437776
498.7900511493206
499.29367852520846
499.80417645841305
500.320750617814
500.8426279852358
501.36905728571037
501.8993092837496
502.4326769522813
502.9684755213268
503.50604241383894
504.044737076408
504.5839407128055
505.1230559284974
505.66150629435333
506.19873583783965
506.7342084699862
507.2674073563122
507.7978342398138
508.32500872404796
508.8484675241803
509.36776369361996
509.8824658336215
510.39215729296507
510.89643536451246
511.3949104851212
511.8872054450325
512.3729546124562
512.8518031786593
513.3234064284085
513.7874290401654
514.2435444200042
514.6914340727635
515.1307870135461
515.5612992222182
515.9826731430883
516.3946172314862
516.7968455485508
517.1890774052082
517.5710370559526
517.9424534426945
518.3030599885551
518.6525944411269
518.9907987643902
519.3174190781663
519.632205643693
519.9349128936407
520.2252995046888
520.5031285106983
520.7681674544291
521.0201885755981
521.258969032959
521.484291158022
521.695942738031
521.8937173259284
522.0774145751741
522.2468405972858
522.4018083398304
522.5421379824509
522.667657348382
522.7782023288923
522.8736173180212
522.953755654966
523.018480071523
523.0676631419879
523.1011877329415
523.1189474504145
523.1208470819623
523.1068030311704
523.076743742121
523.0306101114876
522.9683558860739
522.8899480438304
522.7953671566119
522.6846077331408
522.5576785408572
522.4146029054737
522.2554189871948
522.0801800326584
521.8889546017097
521.681826768139
521.4588962935704
521.2202787737814
520.9661057568567
520.6965248327115
520.4116996935923
520.1118101652388
519.79705220852
519.4676378914621
519.1237953316032
518.7657686085967
518.3938176469765
518.0082180691041
517.6092610183914
517.1972529530079
516.7725154103421
516.3353847424552
515.8862118227771
515.4253617242993
514.953213369604
514.4701591531431
513.976604536226
513.4729676152552
512.9596786637371
512.4371796486485
511.9059237218421
511.36637468728446
510.81900644501445
510.2643024127482
509.70275492613206
509.13486461870866
508.56113978268746
507.98209571164983
507.39825402641463
506.81014198537616
506.2182917807033
505.62323982185427
505.02552600785987
504.4256929898539
503.8242854254074
503.2218492262798
502.6189308012362
502.0160762956049
501.4138308292533
500.8127377346686
500.21333779683783
499.6161684966642
499.0217632596943
498.4306507119219
497.8433539444045
497.2603897884363
496.68226810304424
496.1094910765704
495.542552544097
494.98193732240844
494.42812056409383
493.88156713234844
493.3427309979961
492.81205466019986
492.28996859230773
491.7768907142271
491.2732258926673
490.7793654704899
490.2956868263038
489.82255296539995
489.3603121430377
488.90929752101334
488.4698268583553
488.04220223688094
487.6267098222276
487.22361966088823
486.83318551361174
486.4556447253462
486.09121813175875
485.7401100022766
485.4025080194826
485.0785832945521
484.7684904183237
484.4723675475107
484.1903365254768
483.9225030369069
483.6689567955404
483.4297717639935
483.2050064046486
482.99470396051436
482.7988927647937
482.61758657778586
482.4507849497235
482.2984736080434
482.16062486746944
482.0371980612087
481.92813999147245
481.83338539741214
481.75285743844586
481.68646819090884
481.6341191558992
481.5957017761287
481.5710979595058
481.56018060714996
481.56281414356096
481.57885504669485
481.60815237574485
481.650548294439
481.7058785876343
481.7739731690179
481.8546565777803
481.947748462175
482.0530640479339
482.1704145895459
482.2996078024664
482.4404482743975
482.5927378538631
482.75627601440925
482.9308601928969
483.116286100536
483.3123480054662
483.51883898578785
483.73555115202606
483.9622758381216
484.19880376019836
484.4449251425341
484.7004298103253
484.96510724901975
485.2387466301921
485.52113680410525
485.8120662592524
486.1113230493346
486.41869468830737
486.7339680143348
487.0569290236844
487.3873626757395
487.7250526705062
488.0697812002207
488.4213286768123
488.7794734371096
489.1439914277963
489.51465587222856
489.89123692134535
490.27350129105304
490.66121188859137
491.0541274304947
491.45200205488555
491.85458493091386
492.2616198682386
492.67284492951603
493.0879920489023
493.50678665965415
493.92894733394627
494.35418543800864
494.7822048056422
495.212701433119
495.6453631983872
496.0798696074282
496.5158915705336
496.95309121115633
497.3911217098878
497.82962718599566
498.26824261879995
498.7065938109919
499.14429739587456
499.5809608903862
500.0161827956397
500.4495527465105
500.8806517115025
501.3090522437945
501.73431878411634
502.1560080158954
502.57366927293566
502.9868449997229
503.39507126421074
503.7978783226651
504.1947912358542
504.58533053563315
504.9690129407874
505.34535212080357
505.71385950599876
506.07404514220815
506.4254185880238
506.767489852467
507.09977037084803
507.4217740164594
507.73301814566713
508.0330246739158
508.32132118017535
508.59744203736136
508.86092956616267
509.1113352095358
509.3482207249656
509.57115939142705
509.7797372277977
509.9735542193364
510.15222554876976
510.31538282850795
510.462675330524
510.5937712104327
510.7083587222643
510.80614742036795
510.8868693448185
510.95028018671695
510.9961604298295
511.02431646505124
511.03458167428613
511.0268174805457
511.00091436128014
510.9567928221383
510.89440432853013
510.8137321924701
510.71479241225256
510.5976344625383
510.46234203242
510.3090337090463
510.137863604429
509.949021923154
509.7427354688209
509.5192680870937
509.27892104329345
509.02203333251686
508.74898192029866
508.4601819118874
508.1560866482336
507.83718772679345
507.5040149452839
507.1571361665723
506.7971571029371
506.4247210179352
506.04050834411004
505.64523621479407
505.2396579082363
504.8245622022757
504.4007726377845
503.96914668911916
503.5305748398461
503.085979562101
502.636314197981
502.18256174151657
501.7257335199538
501.2668677732183
500.80702813058065
500.3473019837831
499.88879875613173
499.4326480672606
498.9799977935085
498.53201202415613
498.08986891411246
497.6547584339955
497.22788001892957
496.8104401178397
496.40364964552094
496.00872134022717
495.6268670299918
495.2592948113357
494.9072061444525
494.57179286947036
494.25423414897443
493.95569334251843
493.67731481942724
493.4202207167828
493.1855076500892
492.97424338469506
492.78746347663684
492.62616789215895
492.4913176157394
492.3838312570086
492.3045816674646
492.25439257834927
492.23403527150583
492.2442252955517
492.2856192401648
492.35881158161726
492.46433161301223
492.6026404729889
492.77412828685726
492.97911143420487
493.217829957076
493.4904451228275
493.7970371557198
494.1376031511955
494.51205518659754
494.9202186417565
495.36183074250135
495.8365393396954
496.3439019358084
496.8833849703554
497.45436337483216
498.056120407021
498.68784777371314
499.34864604993857
500.03752540172854
500.7534066183206
501.4951224585778
502.26141931517617
503.0509591987892
503.8623220431227
504.6940083302453
505.5444420342078
506.41197387947346
507.29488490916043
508.1913903565452
509.0996438117888
510.0177416743676
510.9437278801871
511.8755988908993
512.8113089315029
513.7487754608953
514.6858848586951
515.6204983103546
516.5504578713026
517.4735926896575
518.3877253659643
519.2906784273424
520.1802808924352
521.054374902685
521.9108223947568
522.7475117884433
523.5623646640325
524.3533424028312
525.11845276434
525.8557563734738
526.5633730912203
527.2394882422961
527.8823586737211
528.4903186187366
529.0617853410558
529.5952645351756
530.0893554593265
530.5427557786006
530.9542660969021
531.3227941575154
531.6473586932877
531.9270929087425
532.1612475778753
532.3491937429403
532.4904250010628
532.5845593670078
532.6313407019852
532.6306397002705
532.5824544275697
532.4869104072778
532.3442602530395
532.1548828482674
531.9192820755328
531.6380851008811
531.3120402202095
530.942014276877
530.5289896617184
530.0740609086479
529.5784309010146
529.0434067057691
528.470395054253
527.8608974899932
527.216505205351
526.5388935900813
525.8298165158149
525.0911003813172
524.324637944165
523.5323819651838
522.7163386926416
521.878561213814
521.0211427020503
520.1462095878492
519.2559146826669
518.3524302841759
517.4379412914764
516.5146383583559
515.584711112197
514.6503414655019
513.7136970462392
512.7769247723568
511.8421445948145
510.9114434324125
509.98686932055267
509.07042579479054
508.16406652866243
507.2696902438224
506.3891359089841
505.5241782425428
504.67652353209206
503.8478057823909
503.0395832015852
502.2533350337194
501.49045874386337
500.75226756045225
500.0399883776364
499.35476001863725
498.697631859316
498.0695628094013
497.47142064718594
496.9039817019182
496.367930876511
495.8638620016718
495.3922785111741
494.95359442667626
494.54813563929645
494.1761414740355
493.83776652210366
493.5330827252739
493.2620816955411
493.02467725265444
492.82070816147655
492.64994105060936
492.51207349339177
492.40673723218157
492.3335015267389
492.29187660750466
492.28131721465974
492.30122620403495
492.3509582011707
492.42982328515285
492.5370906843579
492.671992466833
492.83372720866817
493.021463624419
493.23434414440925
493.4714884246112
493.7319967757134
494.01495349891076
494.31943011686576
494.6444884892589
494.98918380342184
495.35256743159186
495.73368964733237
496.13160219475174
496.54536070527115
496.97402695774394
497.4166709787529
497.8723729809116
498.34022513796657
498.8193331964468
499.30881792452055
499.8078163995714
500.3154831368435
500.8309910623462
501.3535323339699
501.8823190154374
502.4165836082994
502.95557944772804
503.4985809683998
504.0448838472374
504.5938050301772
505.14468265042893
505.6968758459065
506.24976448369034
506.8027487995766
507.3552489608929
507.90670456083024
508.4565740525217
509.00433413101075
509.5494790711688
510.0915200294808
510.62998431742056
511.16441465392893
511.6943684042367
512.21941681193
512.739144230815
513.2531473627733
513.761034507445
514.262424829182
514.7569476462925
515.2442417471752
515.7239547375394
516.195742422515
516.6592682270337
517.1142026574095
517.5602228065546
517.9970119047755
518.4242589176584
518.841658192178
519.24890915178
519.6457160408202
520.0317877183332
520.4068375007527
520.7705830528495
521.1227463259117
521.4630535418695
521.7912352218433
522.1070262573495
522.4101660222125
522.7003985230867
522.9774725864473
523.2411420798632
523.491166165275
523.7273095819473
523.9493429567735
524.1570431396759
524.3501935619312
524.5285846152724
524.6920140495197
524.8402873863816
524.973218346986
525.0906292906585
525.1923516624327
525.2782264467704
525.3481046250009
525.4018476340067
525.4393278237047
525.4604289109241
525.4650464273019
525.4530881588678
525.4244745750593
525.3791392449881
525.3170292388475
525.2381055125428
525.1423432738576
525.0297323286906
524.9002774060764
524.7539984609261
524.5909309535468
524.4111261050178
524.2146511275296
524.0015894288537
523.7720407901335
523.5261215162667
523.2639645582384
522.9857196068872
522.6915531576478
522.381648545925
522.0562059528281
521.7154423810272
521.3595916005612
520.9889040644881
520.603646794316
520.204103235163
519.7905730806139
519.3633720672258
518.9228317386847
518.4692991796729
518.0031367195785
517.5247216062317
517.0344456499612
516.5327148382895
516.0199489215521
515.496580969765
514.9630569012064
514.4198349832717
513.867385306203
513.3061892303732
512.7367388078403
512.1595361789041
511.575092944516
510.98392951550204
510.38657443966554
509.78356370796297
509.175440040991
508.56275215707444
507.9460540233198
507.32590409108974
506.70286451739736
506.0775003737475
505.4503788440377
504.82206841326587
504.1931380488806
503.56415637662866
502.9356908527502
502.3083069343943
501.68256725018597
501.05903077292214
500.4382519964186
499.8207801185775
499.20715823274077
498.59792252935745
497.9936015099686
497.39471521550155
496.8017744708515
496.2152801477235
495.635722447681
495.06358020730823
494.49932022738636
493.9433966279533
493.39625023104674
492.8583079728858
492.32998234717036
491.811670881076
491.30375564537735
490.80660280005895
490.3205621766943
489.8459668987862
489.3831330411631
488.93235932941735
488.49392688026063
488.06809898354885
487.6551209266035
487.25521986126535
486.86860471394374
486.4954661387878
486.1359765139465
485.7902899807195
485.4585425252546
485.1408521023045
484.8373188004264
484.54802504787426
484.2730358583489
484.0123991156702
483.76614589627434
483.53429082825136
483.31683248548677
483.1137538153589
482.92502259835925
482.75059193788945
482.59040077833015
482.4443744493012
482.31242523391137
482.19445295873123
482.0903456031641
481.9999799258409
481.9232221056037
481.85992839454224
481.80994578050024
481.7731126563979
481.74925949362995
481.7382095167813
481.7397793768803
481.7537798204044
481.7800163512916
481.81828988327294
481.86839737989
481.93013247957975
482.00328610322015
482.0876470416003
482.1830025203617
482.2891387400766
482.4058413892591
482.5328961282346
482.6700890418595
482.8172070592088
482.9740383384963
483.1403726156526
483.3160015151718
483.50071882201564
483.69432071346347
483.8966059499249
484.1073760239311
484.32643526673604
484.5535909121575
484.7886531175646
485.03143494215595
485.28175228284846
485.539423768285
