495.9999999999998
496.2815539000489
496.563064024466
496.84448632409936
497.1257762041169
497.4068882545084
497.6877759845211
497.96839156230874
498.24868556106264
498.5286067128365
498.80810167120393
499.08711478383583
499.3655878760548
499.64346004642874
499.9206674754871
500.19714324854374
500.472817193516
500.7476157346147
501.02146176270253
501.2942745230512
501.56596952116064
501.83645844716796
502.1056491192565
502.3734454464466
502.63974741115635
502.904451071826
503.16744858579904
503.42862825256645
503.68787457742684
503.9450683555454
504.2000867762816
504.4528035475412
504.70308903982004
504.95081044952
505.19583198107085
505.43801504734637
505.6772184878144
505.91329880377464
506.14611040994663
506.375505901613
506.6013363364299
506.8234515299724
507.04170036414064
507.25593110753493
507.46599174679085
507.6717303277477
507.87299530527014
508.06963590050884
508.2615024643816
508.4484468460473
508.6303227651653
508.8069861867483
508.97829569741845
509.1441128818017
509.30430269773876
509.4587338489983
509.607279154172
509.7498159104916
509.8862262513567
510.01639749639156
510.14022249285824
510.257599947214
510.3684347456257
510.47263826232626
510.5701286548183
510.6608311449806
510.74467828509216
510.8216102077914
510.8915748590811
510.95452821360414
511.01043447142433
511.05926623555365
511.1010046695034
511.13563963418244
511.16316980360705
511.18360275904075
511.19695506126646
511.20325230069074
511.2025291250088
511.19482924426256
511.1802054131614
511.15871939053915
511.13044187585115
511.0954524227161
511.05383932960154
511.0056995077795
510.9511383267326
510.8902694372647
510.823214572614
510.7501033280084
510.67107291924816
510.58626792100387
510.4958399856002
510.3999475431476
510.2987554839294
510.19243482397786
510.0811623547965
509.96512027815777
509.84449582690957
509.7194808727564
509.59027152200457
509.4570677003458
509.32007272787007
509.1794928856198
509.03553697498734
508.8884158711769
508.73834207195927
508.5855292430285
508.43019176132236
508.2725442577393
508.1128011607502
507.9511762424475
507.78788216854605
507.62313005376944
507.45712902398185
507.2900857864065
507.12220420928577
506.9536849123146
506.7847248691533
506.6155170233319
506.44624991884575
506.27710734674133
506.1082680089454
505.9399052005728
505.77218651195193
505.60527355153386
505.4393216907397
505.274479831693
505.11089019868643
504.9486881541528
504.78800203979745
504.62895304343476
504.47165509195617
504.3162147708031
504.1627312703617
504.01129635967743
503.8619943877579
503.71490231251977
503.5700897572914
503.4276190946728
503.28754555743683
503.1499173760709
503.0147759424192
502.8821559987626
502.7520858516136
502.624587609434
502.49967744345446
502.3773658706809
502.25765805800125
502.1405541461114
502.0260495918335
501.91413552726317
501.8047991340273
501.69802403079785
501.59379067212967
501.49207675666526
501.39285764278094
501.29610676969776
501.2017960820087
501.1098964555553
501.02037812257487
500.9332110939953
500.84836557671184
500.7658123836115
500.68552333406365
500.6074716426424
500.53163229392567
500.4579824012778
500.38650154758676
500.3171721059683
500.24997953852545
500.1849126713902
500.1219639444409
500.06112963419645
500.00241004841973
499.94580969102554
499.89133739596156
499.8390064287936
499.7888345548062
499.74084407255566
499.69506181199984
499.65151909655077
499.61025166861526
499.57129957842864
499.53470703618837
499.50052222764646
499.4687970934207
499.4395870724514
499.41295081023566
499.3889498327276
499.3676481871421
499.3491120511352
499.33340931184506
499.3206091163771
499.310781395584
499.30399636321954
499.3003239927358
499.2998334741605
499.30259265365726
499.3086674584865
499.31812131018717
499.3310145288855
499.3474037317448
499.367341228667
499.3908744184646
499.4180451888227
499.4488893234836
499.4834359200978
499.5217068221356
499.5637160682272
499.60946936228356
499.6589635677795
499.7121862295461
499.7691151262802
499.82971785677523
499.89395146278076
499.9617620914028
500.03308469989753
500.107842805499
500.1859482826741
500.2673012100585
500.3517897691942
500.4392901970485
500.5296667940997
500.6227719894687
500.7184464642067
500.81651933354425
500.91680838864204
501.01912039814357
501.12325146954777
501.2289874701338
501.33610450691395
501.44436946480636
501.5535406019157
501.6633682005516
501.77359527238013
501.883958315816
501.99418812345704
502.1040106370646
502.2131478472509
502.3213187346936
502.42824024938926
502.53362832413524
502.6371989181305
502.73866908640497
502.83775807060505
502.93418840650884
503.02768704360994
503.1179864720541
503.2048258521046
503.2879521412173
503.36712121371596
503.4420989678848
503.5126624151201
503.578600745804
503.63971636677593
503.6958259054339
503.74676117549825
503.79237009942034
503.83251758245615
503.8670863335636
503.89597762848314
503.91911201060606
503.9364299254941
503.94789228514907
503.95348095837926
503.95319918396655
503.94707190369684
503.9351460126034
503.9174905240028
503.8941966471222
503.86537777539763
503.83116938391
503.7917288347879
503.7472350897738
503.6978883296945
503.6439094812023
503.58553965169455
503.52303947374537
503.4566883607541
503.3867836758972
503.3136398169366
503.2375872198862
503.1589712849021
503.0781512280044
502.9954988624808
502.9113973141553
502.826239675195
502.74042760159205
502.65436985979676
502.5684808282451
502.4831789597635
502.39888521109316
502.3160214459369
502.2350088181031
502.15626614143787
502.08020825324456
502.0072443779499
501.9377764979494
501.8721977387306
501.81089077541986
501.75422626790163
501.7025613316858
501.6562380516736
501.61558204588954
501.5809010860364
501.5524837813569
501.53059833196124
501.5154913575226
501.50738680692973
501.50648495418613
501.51296148554246
501.52696668251156
501.5486247050821
501.5780329790449
501.6152616908681
501.6603533930185
501.71332272204137
501.77415623115877
501.84281233868217
501.9192213930288
502.0032858544998
502.09488059326515
502.1938533023978
502.300025024382
502.4131907891343
502.53312036116495
502.6595590931282
502.7922288825792
502.93082922826994
503.07503838178417
503.22451458978134
503.37889742162776
503.53780917674123
503.7008563655265
503.8676312573939
504.0377134890861
504.21067172632064
504.3860653715057
504.56344630998495
504.7423606868938
504.922350706476
505.10295644571545
505.2837176741081
505.46417567125627
505.64387503394664
505.8223654644465
505.9992035318594
506.1739543985379
506.3461935037134
506.5155081966962
506.68149931221143
506.8437826806774
507.00199056655947
507.15577302832787
507.30479919391934
507.4487584459848
507.58736151164646
507.72034145199046
507.847454547077
507.9684810728149
508.0832259665379
508.1915193785583
508.29321710752095
508.3882009180696
508.4763787399378
508.55768474814647
508.6320793245727
508.6995489017794
508.76010569065147
508.8137872940027
508.860656208866
508.9007992206787
508.9343266930901
508.9613717576645
508.98208940826765
508.9966555054712
509.00526569682773
509.00813425925776
509.0054928700941
508.9975893136638
508.9846861304881
508.96705921632423
508.94499637855154
508.9187958576916
508.88876482203324
508.8552178434202
508.8184753623087
508.7788621502216
508.73670577769104
508.6923350956923
508.64607873844346
508.59826365532626
508.5492136795545
508.4992481410516
508.4486805307578
508.39781722321885
508.346956263823
508.2963862265403
508.2463851476174
508.197219540309
508.14914349522815
508.10239787045316
508.05720957509845
508.01379094947174
507.9723392441583
507.9330361995537
507.89604772677535
507.861523690446
507.8295977933896
507.8003875625821
507.77399443498416
507.75050394127163
507.72998598495036
507.7124952138748
507.6980714806713
507.68674038787765
507.67851391304384
507.67339110869176
507.6713588717756
507.6723927770273
507.67645796825866
507.68351010130635
507.6934963320234
507.70635634251784
507.72202339844864
507.74042542969545
507.76148612643004
507.78512604254826
507.81126369851575
507.83981667586255
507.8707026956837
507.90384067354614
507.93915174339276
507.9765602433225
508.0159946564669
508.0573885005026
508.10068115953584
508.1458186523365
508.192754331303
508.2414495070306
508.2918739938374
508.34400657204964
508.39783536339144
508.45335811646447
508.5105823999356
508.5695257016403
508.6302154323627
508.69268883362736
508.756992789428
508.8231835424488
508.89132631598784
508.96149484333654
509.033770806905
509.10824318992456
509.1850075441496
509.2641651776078
509.3458222669972
509.43008889984736
509.5170780520432
509.6069045067273
509.69968372098384
509.7955306470329
509.89455851493653
509.9968775841226
510.1025938712965
510.2118078625156
510.3246132173709
510.44109547338326
510.56133075878006
510.68538452179877
510.8133102846829
510.9451484305573
511.0809250312631
511.22065072397123
511.3643196441141
511.5119084218636
511.66337524903486
511.8186590229107
511.97767857309475
512.140331977097
512.3064959699393
512.4760254525783
512.6487531034235
512.8244890966772
513.0030209307154
513.1841133691627
513.367508496703
513.5529258909814
513.74006291133
513.928595104498
514.1181767269732
514.3084413827934
514.4990027751045
514.6894555691794
514.8793763640314
515.068324769098
515.2558445818901
515.4414650619698
515.6247022960858
515.8050606488011
515.9820342924943
516.155108810262
516.3237628648694
516.4874699265456
516.6457000520684
516.7979217072302
516.9436036245141
517.0822166876164
517.2132358343431
517.3361419692715
517.4504238776161
517.5555801318637
517.651120982811
517.736570226668
517.8114670399668
517.8753677741316
517.9278477017398
517.9685027067354
517.9969509110751
518.0128342305163
518.0158198525717
518.0056016300781
517.9819013842686
517.9444701117042
517.8930890898995
517.8275708768992
517.7477602005122
517.6535347334826
517.5448057514799
517.4215186713424
517.2836534677854
517.1312249676531
516.9642830212802
516.7829125508556
516.5872334761382
516.377400518449
516.1536028843844
515.9160638311847
515.6650401162523
515.4008213338742
515.1237291427083
514.8341163880256
514.5323661230532
514.2188905340507
513.894129774061
513.5585507106659
513.2126455934805
512.8569306474438
512.4919445981805
512.1182471358226
511.7364173238598
511.34705195967865
510.9507638935405
510.5481803128225
510.1399409984953
509.72669656095616
509.30910666235764
508.8878382324053
508.4635636843534
508.0369591378721
507.6087026554328
507.17947249864153
506.74994541065234
506.32079493049076
505.89268974487675
505.4662920829763
505.042256159258
504.62122666922033
504.20383734230904
503.7907095559399
503.3824510142059
502.97965449455677
502.5828966653419
502.19273697660634
501.8097166262303
501.434357603318
501.067161810466
500.7086102661588
500.359162388119
500.0192553579512
499.68930356700685
499.36969814307326
499.0608065571337
498.7629723091074
498.47651469117153
498.2017286269792
497.9388845848696
497.6882285629704
497.4499821438303
497.22434261594856
497.011483159386
496.8115530925405
496.62467817701355
496.45096097722035
496.29048127123605
496.14329650939146
496.0094423171223
495.8889330384603
495.7817623164651
495.68790370685826
495.60731132108685
495.5399204950679
495.4856484799355
495.4443951512071
495.4160437328486
495.4004615328148
495.3975006867489
495.4069989066158
495.4287802311625
495.4626557752578
495.5084244752796
495.5658738278955
495.6347806197897
495.71491164601764
495.8060244148047
495.9078678368335
496.0201828973087
496.1427033092457
496.27515614655704
496.4172624557112
496.56873784492706
496.7292930500421
496.89863447636844
497.07646471602663
497.2624830403954
497.45638586745497
497.657867203917
497.86661906215056
498.08233185208434
498.30469474852674
498.53339603451724
498.76812342134104
499.0085643458866
499.2544062461847
499.50533681607527
499.7610442399459
500.021217408509
500.28554611668324
500.5537212447259
500.8254349238438
501.100380687538
501.3782536099958
501.65875043286417
501.9415696817073
502.22641177339733
502.5129791157174
502.80097620043045
503.0901096909904
503.3800885060394
503.6706238998438
503.9614295408076
504.25222158914926
504.5427187747333
504.8326424759058
505.1217168001316
505.409668667274
505.69622789640124
505.9811272969311
506.2641027647439
506.54489338371576
506.82324153294667
507.09889299985855
507.37159709930336
507.64110679878974
507.9071788498531
508.1695739255288
508.4280567638368
508.68239631715574
508.93236590732414
509.1777433862449
509.418311301762
509.6538570685076
509.8841731433229
510.1090572047992
510.32831233643526
510.5417472128906
510.7491762887663
510.95041998928303
511.14530490219255
511.3336639702658
511.51533668357376
511.69016927057834
511.8580148870284
512.0187338017522
512.1721935784984
512.3182692530236
512.4568435046787
512.58780682183
512.7110576603908
512.8265025946364
512.9340564594394
513.033642483155
513.1251924104453
513.2086466144331
513.2839541976532
513.3510730812659
513.4099700819708
513.4606209760997
513.5030105504618
513.5371326395742
513.5629901489739
513.580595064351
513.5899684463047
513.5911404105431
513.5841500933799
513.569045602406
513.5458839522936
513.5147309857399
513.475661279688
513.4287580369615
513.3741129634241
513.3118261308464
513.2420058258001
513.1647683849329
513.0802380170064
512.9885466120562
512.8898335380702
512.7842454256493
512.6719359411968
512.5530655492001
512.4278012641558
512.2963163926626
512.1587902662362
512.0154079655127
511.866360036529
511.7118421997291
511.55205505233755
511.3872037647485
511.21749777159295
511.0431504581747
510.8643788429699
510.6814032569082
510.49444702017223
510.30373611721217
510.1094988706243
509.911965614528
509.71136836806625
509.5079405096016
509.30191645216524
509.09353132069543
508.8830206316283
508.6706199753784
508.45656470225094
508.24108961235754
508.02442865004963
507.8068146032624
507.5884788081264
507.3696508592418
507.15055832601877
506.9314264754574
506.71247800171034
506.4939327627379
506.2760075243054
506.0589157115329
505.84286716821447
505.6280679241168
505.4147199704565
505.20302104375844
504.9931644182641
504.7853387069875
504.57972767152376
504.3765100406858
504.1758593380119
503.9779437182142
503.7829258126576
503.59096258391145
503.40220518936894
503.21679885392797
503.0348827517294
502.85658989693997
502.68204704355054
502.51137459416793
502.3446865178141
502.18209027674266
502.0236867622614
501.8695702395596
501.71982830158674
501.57454183205465
501.43378497760455
501.29762512899634
501.1661229110671
501.03933218135376
500.917300037432
500.80006683299115
500.6876662026048
500.58012509518295
500.47746381609056
500.37969607791865
500.28682905988484
500.19886347576016
500.1157936501905
500.0376076032705
499.9642871432239
499.8958079670669
499.8321397691522
499.7732463574887
499.71908577771774
499.66961044464637
499.62476728123744
499.58449786492906
499.54873858109437
499.51742078340044
499.49047096081233
499.46781091101946
499.4493579200579
499.43502494785696
499.42472081933795
499.4183504206422
499.41581490013255
499.4170118738998
499.4218356355297
499.4301773698341
499.4419253701692
499.4569652588973
499.4751802105413
499.49645117723975
499.5206571160849
499.547675217861
499.5773811367228
499.6096492204062
499.64435274049976
499.68136412225147
499.72055517339305
499.7617973115008
499.80496178945197
499.8499199185417
499.8965432888096
499.9447039861382
499.99427480562974
500.0451294607311
500.09714278760407
500.1501909442785
500.2041516041779
500.2589041436421
500.31432982305415
500.3703119611411
500.4267361020265
500.48349017461703
500.54046464397555
500.59755265446455
500.6546501644859
500.71165607262213
500.7684723350029
500.8250040737173
500.88115967607933
500.9368508845717
500.99199287736553
501.046504339349
501.1003075236152
501.15332830338224
501.20549621433344
501.25674448742456
501.3070100722595
501.3562336511601
501.40435964408783
501.451336204573
501.4971152067972
501.5416522240379
501.58490649872596
501.62684090441763
501.6674219000795
501.7066194771001
501.74440709934686
501.7807616365458
501.8156632913432
501.849095520462
501.88104495035634
501.911501287767
501.940457225584
501.96790834445085
501.9938530105486
502.01829227002617
502.0412297405528
502.0626715004571
502.0826259759138
502.1011038266281
502.1181178304724
502.13368276750555
502.14781530374785
502.160533875078
502.17185857163935
502.18181102316885
502.19041428564844
502.1976927296266
502.2036719305374
502.2083785613805
502.2118402881374
502.21408566828154
502.2151440527391
502.21504549166474
502.2138206443022
502.21150069307214
502.2081172619736
502.2037023393956
502.19828820547093
502.19190736410997
502.18459247981514
502.1763763193238
502.1672916980973
502.15737143166774
502.14664829186376
502.1351549679606
502.1229240327994
502.10998791383724
502.0963788690087
502.08212896729685
502.06727007391765
502.05183383996575
502.0358516963419
502.0193548517813
502.0023742948233
501.98494079961137
501.9670849354031
501.9488370796022
501.9302274341119
501.9112860448448
501.89204282418905
501.87252757619177
501.85277002423254
501.83279984098414
501.8126466804905
501.7923402121801
501.771910156574
501.75138632244085
501.7307986451803
501.71017722622787
501.6895523732676
501.66895464103004
501.6484148724561
501.62796424006035
501.60763428737886
501.5874569703197
501.56746469809667
501.54769037343226
501.5281674317731
501.50892987928205
501.4900123294161
501.4714500378714
501.4532789356527
501.4355356600182
501.4182575830861
501.4014828379146
501.38525034191866
501.36959981745775
501.3545718093944
501.3402076993815
501.3265497165721
501.31364094441966
501.30152532325366
501.29024764838715
501.2798535635524
501.2703895494424
501.2619029071421
501.25444173622424
501.2480549072491
501.24279202836135
501.2387034057055
501.2358399974439
501.2342533611779
501.23399559456516
501.235119268926
501.237677355601
501.2417231448606
501.2473101572483
501.2544920472906
501.26332249943306
501.2738551160705
501.28614329760643
501.30024011449206
501.3161981711913
501.33406946207197
501.35390521930816
501.3757557529309
501.399670283142
501.42569676496254
501.4538817053501
501.4842699730076
501.51690460114673
501.5518265835561
501.589074664435
501.6286851224937
501.67069154984745
501.7151246262673
501.76201188940445
501.81137750169574
501.863242014726
501.9176221318495
501.9745304698927
502.0339753207678
502.0959604138583
502.1604846801205
502.2275420189559
502.2971210689261
502.36920498335786
502.4437712119245
502.52079128941153
502.6002306329393
502.6820483489022
502.76619705084437
502.85262268950123
502.94126439625285
503.0320543411965
503.12491760699373
503.21977207965966
503.31652835746513
503.4150896791383
503.51535187260015
503.6172033254329
503.72052497814957
503.8251903412021
503.93106553657185
504.03800936472396
504.14587339776915
504.25450209972985
504.3637329746774
504.47339674341265
504.58331754930657
504.6933131938023
504.8031954019476
504.9127701182608
505.0218378331784
505.1301939402082
505.237629123775
505.343929777617
505.4488784534403
505.5522543393342
505.65383376721013
505.753390748382
505.8506975363652
505.94552521587735
506.03764431683794
506.12682545192257
506.2128399760859
506.29546066650306
506.37446242136906
506.4496229757729
506.52072363264585
506.58755000669504
506.64989277912497
506.70754846079313
506.76032016137503
506.80801836215556
506.85046169005284
506.8874776903449
506.9189035954329
506.9445870868882
506.9643870480078
506.9781743040682
506.98583234742534
506.9872580445882
506.982362322341
506.9710708299475
506.95332457450036
506.9290805265539
506.8983121932027
506.8610101557311
506.81718256897364
506.76685561962813
506.71007394093255
506.64690098121423
506.57741932381043
506.50173095585717
506.4199574835875
506.33224029200323
506.23874064694877
506.13963973769916
506.0351386583304
505.9254583263733
505.8108393374474
505.6915417547373
505.56784483232167
505.4400466715609
505.30846380998923
505.173430742393
505.03529937395695
504.89443840556413
504.75123265155946
504.6060822905517
504.4594020501111
504.31162032647984
504.16317824065845
504.0145286325058
503.8661349947494
503.71847034900856
503.5720160661498
503.42726063354587
503.2846983720505
503.14482810577243
503.0081517879966
502.87517308683147
502.74639593434694
502.6223230431287
502.50345439437496
502.39028570187764
502.283306856408
502.18300035523094
502.08983972171194
502.00428792016857
501.92679577116724
501.85780037244444
501.7977235306686
501.74697020937145
501.7059269984607
501.6749606107888
501.6544164113636
501.64461698482256
501.6458607467757
501.65842060453843
501.68254267263154
501.71844504825754
501.7663166518636
501.8263161378279
501.89857088020415
501.9831760382487
502.0801937062398
502.18965215192344
502.3115451477159
502.44583139848015
502.5924340693753
502.75124041697984
502.9221015266055
503.10483215839116
503.2992107043984
503.5049792585721
503.72184380108496
503.9494744981806
504.187506118217
504.43553856423944
504.69313752297967
504.9598352296819
505.23513134769064
505.5184939613271
505.8093606801611
506.1071398522953
506.4112118837884
506.72093066091753
507.03562507163963
507.35460062225684
507.67714114492895
508.0025105912458
508.3299549066207
508.6587039798258
508.98797366171556
509.3169678469937
509.64488061260687
509.970898405935
510.2942022755871
510.6139701374071
510.9293790681803
511.23960761942055
511.54383814349507
511.84125912427083
512.1310675044128
512.4124710014221
512.68469040456
512.9469618448082
513.1985390299442
513.4386954367797
513.6667264528293
513.8819514599369
514.0837158526401
514.2713929842822
514.4443860340216
514.6021297880875
514.7440923288915
514.8697766259365
514.9787220227771
515.0705056147156
515.1447435123555
515.201091986504
515.2392484902765
515.2589525547553
515.2599865550521
515.2421763440894
515.2053917519307
515.1495469492152
515.0746006740287
514.9805563221561
514.8674619010563
514.735409848343
514.5845367160546
514.4150227225482
514.2270911743414
514.0210077606018
513.7970797233302
513.5556549067854
513.2971206902097
513.0219028083271
512.7304640645099
512.4233029419419
512.1009521184644
511.76397689099605
511.4129735156481
511.0485674699457
510.67141164384145
510.2821844664124
509.8815879752974
509.4703458361368
509.04920131938667
508.61891524190963
508.18026388077976
507.73403686674664
507.2810350647406
506.82206844874094
506.3579539783262
505.88951348414946
505.4175715694442
504.94295353447563
504.46648333059665
503.9889815503703
503.5112634600591
503.0341370805576
502.5584013224847
502.0848441807443
501.6142409934812
501.147352770056
500.684924592351
500.2276840933485
499.7763400165204
499.33158085915693
498.89407360235083
498.4644625299855
498.0433681386478
497.63138613996904
497.22908655651025
496.83701291194546
496.4556815159019
496.08558084339836
495.7271710084038
495.38088333068134
495.0471199947346
494.726253799328
494.418627995794
494.1245562131088
493.8443224674211
493.5781812534043
493.32635771453084
493.0890478891272
492.8664190288959
492.6586099864582
492.46573166831894
492.28786754948754
492.12507424576893
491.97738213961634
491.8447960554418
491.727295980235
491.624837825231
491.53735422433977
491.46475536510377
491.40692984804537
491.3637455703592
491.3350506299493
491.3206742458936
491.32042769147364
491.3341052359412
491.36148509129805
491.4023303605129
491.45638998373084
491.52339967920966
491.60308287595075
491.69515163521413
491.79930755824824
491.9152426777086
492.04264033041153
492.181176009283
492.3305181925412
492.49032914833066
492.6602657132646
492.8399800435346
493.02912033741364
493.2273315281629
493.4342559465276
493.64953395222403
493.87280453399893
494.10370587800725
494.34187590440854
494.586952772208
494.8385753524964
495.09638367039355
495.36001931621644
495.6291258265202
495.90334903573864
496.1823373992575
496.46574228891467
496.75321826205715
497.0444233053468
497.339019054492
497.63667099106294
497.93704861757897
498.2398256121118
498.54467996372597
498.8512940901597
499.15935493914816
499.4685540747388
499.7785877499079
500.08915696684255
500.3999675263438
500.7107300678095
501.02116010115685
501.3309780319337
501.6399091808028
501.94768379854213
502.25403707765935
502.55870916163497
502.8614451526876
503.1619951188791
503.46011410140824
503.75556212296544
504.04810419794904
504.3375103452378
504.62355560408105
504.9060200535734
505.1846888361357
505.45935218539404
505.7298054587833
505.99584917513397
506.25728905746195
506.51393608107446
506.76560652701016
507.01212204080264
507.25330969653913
507.48900206610057
507.71903729343904
507.9432591737645
508.1615172374913
508.3736668386049
508.5795692468256
508.7790917428553
508.97210771606416
509.15849676401575
509.33814479321563
509.51094412048195
509.6767935743229
509.8355985956811
509.9872713373816
510.1317307616229
510.26890273488254
510.3987201195692
510.5211228617178
510.6360580740124
510.7434801134167
510.8433506527867
510.9356387458983
511.02032088532314
511.09738105265495
511.1668107606619
511.22860908690376
511.28278269825677
511.3293458657975
511.36832046961536
511.39973599317375
511.42362950689215
511.4400456407291
511.44903654558266
511.4506618432868
511.4449885650074
511.43209107791614
511.4120510000362
511.3849571031908
511.3509052040336
511.3099980431391
511.2623451521768
511.2080627092706
511.1472733827389
511.080106163473
511.0066961862423
510.92718454023094
510.8417180691303
510.75044916115337
510.65353552938944
510.5511399829326
510.44343018922734
510.3305784281098
510.2127613380703
510.09015965527374
509.96295794593203
509.83134433263655
509.69551021524165
509.55564998692535
509.41196074608996
509.26464200479967
509.1138953944571
508.95992436937945
508.8029339089094
508.6431302186951
508.4807204317785
508.31591231014085
508.14891394733655
507.97993347276423
507.80917875805955
507.63685712612073
507.46317506334225
507.2883379356683
507.11254970904537
506.9360126747719
506.75892718022493
506.5814913654482
506.4039009060484
506.2263487628027
506.0490249383604
505.87211624140167
505.69580605859323
505.52027413465834
505.34569636085024
505.1722445721197
505.0000863532169
504.8293848538953
504.6602986133677
504.49298139420233
504.32758202582033
504.16424425770475
504.0031066224055
503.84430230841116
503.6879590429365
503.53419898464904
503.3831386263246
503.23488870742057
503.08955413655417
502.94723392388397
502.80802112339944
502.6720027850726
502.5392599167878
502.4098674559454
502.2838942506712
502.16140305059884
502.04245050720175
501.92708718363394
501.8153575740161
501.70730013205457
501.6029473088254
501.50232559955714
501.40545559928006
501.3123520672064
501.22302399968544
501.1374747115548
501.05570192570576
500.9776978706826
500.90344938614095
500.8329380359764
500.76614022895234
500.70302734671594
500.64356587906764
500.58771756628084
500.53543954822
500.4866845200584
500.4414008943985
500.39953296948505
500.3610211031499
500.32580189216395
500.293808356702
500.2649701296049
500.2392136501049
500.2164623617099
500.19663691394067
500.17965536755634
500.1654334028146
500.15388453030926
500.1449203039637
500.13845053577023
500.1343835118052
500.13262620901907
500.13308451233337
500.1356634315926
500.14026731791563
500.14680007898255
500.15516539275455
500.1652669191145
500.1770085089295
500.19029441006353
500.2050294698407
500.22111933348526
500.23847063808296
500.25699120155105
500.2765902060462
500.2971783752626
500.31866814514234
500.34097382761917
500.36401176700974
500.38770048858976
500.411960838892
500.43671611733174
500.46189219877857
500.48741764670325
500.5132238165603
500.5392449491513
500.5654182537687
500.5916839809267
500.61798548454345
500.6442692735031
500.67048505257344
500.696585752664
500.7225275503698
500.7482698767659
500.7737754154974
500.7990100902056
500.8239430413404
500.84854659249555
500.87279620656153
500.89667043202394
500.9201508397322
500.94322195049403
500.9658711538901
500.9880886187125
501.0098671954674
501.0312023114136
501.0520918586336
501.07253607562916
501.092537423026
501.1121004539709
501.131231679758
501.149939431278
501.1682337169468
501.1861260777871
501.20362944031086
501.2207579678625
501.2375269111163
501.2539524584089
501.27005158653134
501.2858419125791
501.3013415474734
501.3165689518211
501.331542794763
501.3462818164378
501.3608046947413
501.37512991704295
501.3892756574066
501.40325965980594
501.4170991278619
501.4308106215928
501.44440996161575
501.45791214118316
501.4713312464147
501.4846803850658
501.49797162411255
501.51121593639124
501.5244231564855
501.5376019460128
501.5507597684817
501.5639028739089
501.5770362933758
501.5901638435923
501.60328814139154
501.6164106280434
501.62953160326936
501.6426502688114
501.65576478135085
501.668872314564
501.68196913007824
501.69505065703845
501.70811157993387
501.72114593425414
501.7341472094992
501.7471084590441
501.7600224163219
501.7728816167607
501.7856785249164
501.79840566625745
501.8110557630586
501.8236218738342
501.8360975356701
501.8484769087499
501.8607549223703
501.87292742177925
501.8849913151687
501.89694472010285
501.90878710866167
501.92051945058085
501.9321443536337
501.94366620048834
501.9550912812896
501.966427921252
501.9776866026083
501.9888800802302
502.000023490155
502.0111344502047
502.02223315191645
502.0333424430704
502.04448790017534
502.0556978903084
502.06700362173314
502.0784391827384
502.0900415681896
502.1018506932941
502.11390939410325
502.1262634142911
502.1389613778149
502.15205474712843
502.1655977667244
502.17964739186937
502.19426320241666
502.20950730150577
502.2254441989785
502.2421406794632
502.2596656551934
502.27809000363584
502.2974863900504
502.31792907524687
502.33949370889144
502.3622571087332
502.3862970261611
502.4116918985894
502.4385205892182
502.4668621147061
502.496795361374
502.52839879074503
502.5617501353744
502.59692608593116
502.6340019704308
502.67305142653277
502.71414606794025
502.75735514604463
502.8027452079522
502.85037975205876
502.9003188823744
502.95261896288844
503.0073322733345
503.06450666775135
503.12418523721925
503.18640597818387
503.2512014678441
503.3185985480738
503.3886180193287
503.46127434605324
503.5365753751186
503.61452206875066
503.69510825334993
503.7783203855646
503.86413733697447
503.9525301987647
504.0434621077025
504.1368880946316
504.23275495662534
504.33100115391045
504.4315567326367
504.5343432744589
504.6392738737573
504.74625314323686
504.85517724858835
504.9659339727459
505.07840281014455
505.1924550913289
505.3079541382187
505.42475545023655
505.54270692136356
505.66164908812914
505.78141540850396
505.90183257155593
506.02272083756606
506.14389440818906
506.26516182612386
506.3863264036162
506.50718667895137
506.62753689996873
506.7471675335422
506.86586579991894
506.98341623064204
507.09960124856156
507.2142017682346
507.3269978149565
507.4377691606444
507.5462959747054
507.6523594878993
507.7557426671495
507.8562308992267
507.9536126811642
508.0476803152019
508.1382306060583
508.22506555834406
508.307993071857
508.38682763238234
508.4613909955866
508.5315128616367
508.5970315381854
508.6577945893033
508.7136594679417
508.7644941295982
508.8101776249217
508.85060066899734
508.8856661851124
508.91528982086595
508.9394004345201
508.95794054955456
508.9708667754605
508.9781501929487
508.9797767018672
508.9757473302592
508.9660785030761
508.95080226909107
508.9299664845918
508.9036349525418
508.87188751606294
508.8348201052931
508.79254473680885
508.74518946489405
508.6928982840699
508.6358309824366
508.57416294550376
508.5080849103337
508.437802669976
508.3635367283348
508.28552190580734
508.20400689619356
508.1192537755133
508.0315374635176
507.9411451388245
507.8483756087154
507.75353863479495
507.65695421585804
507.5589518294107
507.45986963345905
507.360053630425
507.25985679517527
507.1596381691871
507.0597619229823
506.9605963891507
506.8625130684386
506.7658856114652
506.6710887787185
506.5784973815927
506.48848520736044
506.401423931033
506.3176820170658
506.237623613963
506.1616074450247
506.08998569856675
506.0231029209534
505.96129491576664
505.9048876524587
505.8541961878627
505.8095236039935
505.77115996554767
505.73938130047554
505.71444860700234
505.6966068904954
505.6860842335531
505.6830909026747
505.6878184947712
505.70043912665443
505.721104670534
505.7499460384761
505.787072518754
505.83257116691146
505.886506254187
505.94891877576987
506.0198260212449
506.0992212094462
506.1870731897135
506.28332621132364
506.387899762737
506.5006884821302
506.62156214048235
506.7503656982501
506.8869194364768
507.03101916294133
507.1824364936183
507.3409192094329
507.506191688086
507.6779554105432
507.8558895415384
508.03965158315776
508.2288781002764
508.4231855163979
508.62217097814977
508.8254132864171
509.0324738918412
509.2428979521447
509.4562154485237
509.67194235814327
509.8895818795008
510.10862570711805
510.3285553517845
510.5488435024181
510.76895542542763
510.9883503972796
511.2064831658369
511.4228054359083
511.6367673743338
511.84781912982265
512.0554123626558
512.2590017793207
512.4580466670837
512.652012423421
512.8403720752082
513.0226077826687
513.1982123231346
513.3666905497167
513.5275608200017
513.680356389943
513.8246267682465
513.9599390267095
514.085879062133
514.202052805583
514.3080873749329
514.4036321667973
514.4883598841177
514.5619674957649
514.6241771247056
514.6747368615293
514.7134215004071
514.7400331948604
514.7544020310845
514.7563865169508
514.7458739850994
514.722780908762
514.6870531292615
514.6386659946085
514.5776244091998
514.5039627950589
514.4177449654007
514.3190639115446
514.2080415045001
514.0848281128082
513.9496021384998
513.8025694732734
513.6439628772396
513.4740412828154
513.2930890265787
513.1014150121673
512.8993518076421
512.6872546810746
512.4655005783518
512.2344870473308
511.99463111259365
511.7463681051752
511.4901504517463
511.22644642778545
510.9557388793672
510.6785239182943
510.39530959531413
510.1066145561686
509.8129666852616
509.5149017417485
509.21296199281016
508.907694848735
508.59965150428553
508.2893855907121
507.9774518426808
507.6644047842668
507.35079743805915
507.03718006129793
506.72409891277647
506.4120950540121
506.1017031879748
505.79345053852313
505.48785577350293
505.18542797418905
504.8866656534489
504.5920558247482
504.302073123909
504.0171789852939
503.7378208737875
503.4644315736387
503.19742853495967
502.93721327843207
502.6841708585461
502.4386693855031
502.2010596056259
501.9716745398295
501.7508291795235
501.5388202390789
501.3359259636857
501.14240599125395
500.9585012668798
500.78443400822715
500.62040771997636
500.466607255329
500.3231989224632
500.19033063373945
500.06813209534016
499.95671503488705
499.85617346452193
499.76658397692705
499.6880060716991
499.6204825093971
499.5640396906163
499.5186880574982
499.48442251508357
499.46122286993085
499.44905428343253
499.4478677373009
499.4576005088232
499.4781766536016
499.50950749354627
499.5514921079307
499.60401782538
499.6669607147144
499.74018607269005
499.82354890684354
499.91689441179005
500.0200584374682
500.1328679479552
500.25514146960444
500.38668952743285
500.527315068844
500.6768138738634
500.8349749511567
501.0015809193041
501.1764083729874
501.359228233819
501.5498060856193
501.74790249406567
501.9532733108133
502.1656699622724
502.3848397232618
502.61052597587985
502.84246845409655
503.08040347469574
503.32406415528067
503.5731806201189
503.8274801946658
504.0866875896143
504.3505250753599
504.61871264784963
504.89096818684783
505.1670076076459
505.44654500725323
505.72929280609844
506.0149618862695
506.30326172732845
506.5939005407948
506.8865854043803
507.1810223969906
507.476916735457
507.7739729139093
508.0718948466664
508.3703860154494
508.6691496216546
508.9678887443614
509.266306504697
509.56410623709354
509.86099166796015
510.15666710231153
510.45083761877504
510.74320927315745
511.03348931062504
511.32138638655044
511.60661079602926
511.8888747120017
512.1678924318619
512.4433806323547
512.7150586324286
512.9826486636074
513.2458761474093
513.5044699792613
513.7581628182996
514.0066913824616
514.2497967483085
514.4872246549613
514.7187258114812
514.9440562069784
515.1629774226037
515.3752569445087
515.5806684768404
515.7789922538897
515.9700153504394
516.1535319892956
516.3293438448524
516.4972603414802
516.6570989455187
516.8086854496843
516.9518542487642
517.0864486054999
517.2123209056201
517.3293329010927
517.4373559407853
517.5362711877691
517.6259698224655
517.7063532308156
517.7773331766628
517.838831957553
517.8907825431672
517.9331286956451
517.965825071152
517.98883730215
518.0021420599237
518.0057270970267
517.9995912694066
517.983744538016
517.9582079498665
517.9230135985462
517.8782045641976
517.8238348329692
517.7599691960479
517.6866831285146
517.604062648392
517.5122041563206
517.4112142563214
517.3012095581871
517.1823164621121
517.0546709261862
516.9184182174205
516.7737126470672
516.6207172910664
516.4596036964144
516.2905515742237
516.1137484803419
515.9293894844883
515.7376768288718
515.5388195772098
515.3330332550588
515.1205394824431
514.9015655998195
514.676344288457
514.4451131862929
514.2081145003046
513.9655946163823
513.7178037076977
513.4649953425704
513.2074260927897
512.945355143348
512.6790439045549
512.4087556274337
512.1347550232297
511.8573078878523
511.57668073205605
511.29314041810557
511.00695380362174
510.7183873932827
510.427706999004
510.13517740917325
509.84106206747407
509.5456227617617
509.24911932341365
508.95180933753727
508.6539478643082
508.3557871716424
508.0575764793933
507.7595617152145
507.46198528215666
507.1650858380406
506.86909808656765
506.57425258002036
506.2807755333634
505.9888886495418
505.6988089557511
505.4107486504492
505.1249149608951
504.8415100109772
504.5607306990824
504.2827685857017
504.00780979043475
503.73603489804924
503.4676188731957
503.20273098333234
502.94153472947403
502.68418778441526
502.4308419380199
502.1816430491365
501.93673100375094
501.6962396790489
501.4602969130519
501.2290244794406
501.0025380672248
500.78094726504
500.56435554991253
500.35286028026655
500.1465526928619
499.9455179033157
499.74983490990536
499.5595766004213
499.37480976192296
499.1955950933066
499.02198722059404
498.85403471484597
498.691780112618
498.535259938936
498.3845047327995
498.23953907523986
498.10038162000245
497.967045126941
497.8395364982075
497.71785681735554
497.6020013915015
497.4919597967183
497.38771592684236
497.2892480458952
497.19652884435715
497.1095254995172
497.02819974007656
496.9525079151423
496.8824010677472
496.8178250130179
496.75872042113633
496.70502290530237
496.6566631149068
496.61356683407945
496.57565508574635
496.54284424135324
496.5150461363831
496.49216819174376
496.47411354110557
496.4607811642574
496.4520660265284
496.4478592243583
496.4480481371263
496.45251658524774
496.4611449944397
496.4738105660595
496.49038745338646
496.5107469436896
496.5347576459535
496.5622856841227
496.5931948956539
496.62734703512336
496.664601982666
496.7048179570345
496.74785173301694
496.79355886292353
496.8417939018028
496.89241063601105
496.9452623147515
497.0002018842026
497.0570822238249
497.11575638434533
497.1760778268751
497.23790066264957
497.3010798929303
497.36547164863566
497.4309334292498
497.4973243405316
497.56450533055533
497.63233942361245
497.70069195149597
497.7694307816822
497.83842654195064
497.90755284096514
497.9766864843461
498.0457076857173
498.1145002721414
498.1829518833847
498.2509541645652
498.31840295179137
498.3851984504012
498.4512454054309
498.5164532639249
498.58073632869286
498.64401390317676
498.7062104271181
498.76725560271274
498.82708451095914
498.8856377179152
498.942861370522
498.99870728158936
499.05313300359427
499.10610189105967
499.15758315133553
499.20755188362847
499.25598910617543
499.3028817714995
499.3482227697168
499.3920109198135
499.4342509487751
499.47495345845795
499.51413488012577
499.55181741661306
499.5880289721159
499.62280306961907
499.6561787559937
499.688200494841
499.71891804721685
499.7483863404
499.7766653249161
499.8038198200504
499.8299193480716
499.8550379574033
499.8792540349987
499.9026501081259
499.92531263570737
499.9473317893777
499.96880122445083
499.9898178410164
500.0104815354772
500.03089494286996
500.0511631703066
500.0713935219385
500.09169521589064
500.1121790935822
500.1329573218338
500.15414308823034
500.1758502902627
500.1981932188082
500.2212862365203
500.2452434517194
500.27017838842806
500.2962036532452
500.3234305997792
500.3519689913257
500.3819266624256
500.41340917992534
500.4465195042116
500.4813576513449
500.51802035680106
500.55660074157987
500.59718798153136
500.6398669807443
500.6847180498149
500.73181658983736
500.781232782975
500.83303129046925
500.88727095894967
500.94400453592874
501.0032783954163
501.06513227458686
501.1295990223484
501.1967043606111
501.2664666590902
501.3388967245665
501.41399760554833
501.4917644132819
501.57218416003093
501.65523561548406
501.74088918208236
501.8291067900558
501.9198418129453
502.01303900436227
502.1086344566665
502.20655558217004
502.3067211174098
502.40904115095947
502.5134171752155
502.61974216258034
502.7279006664072
502.83776894693887
502.9492151223866
503.0620993452584
503.1762740039719
503.29158394967766
503.4078667481753
503.52495295678045
503.6426664259615
503.76082462544423
503.8792389942906
503.9977153143747
504.11605410662514
504.2340510493663
504.35149741807226
504.4681805458272
504.5838843036755
504.6983895999218
504.81147489740863
504.922916747695
505.0324903409439
505.1399700702175
505.2451301087165
505.347744998335
505.4475902478345
505.5444429389592
505.6380823387727
505.72829051641077
505.81485296239447
505.8975592086247
505.97620344717586
506.05058514605014
506.1205096600963
506.18578883522883
506.2462416039658
506.3016945703057
506.35198258197204
506.39694928811065
506.4364476805441
506.4703406166582
506.4985013220033
506.52081387070973
506.5371736418622
506.54748775001855
506.5516754481314
506.54966850121036
506.5414115291724
506.5268623174248
506.50599209381494
506.4787857706676
506.445242150763
506.4053740962633
506.35920865968785
506.3067871761213
506.2481653158911
506.18341309703254
506.11261485703363
506.0358691835125
505.9532888036369
505.86500043225135
505.771144578787
505.67187531307496
505.5673599902484
505.4577789350743
505.3433250862545
505.2242036013557
505.10063142315096
504.9728368082839
504.8410588193143
504.70554678138126
504.5665597049395
504.4243656762079
504.2792412170156
504.1314706157154
503.9813452308924
503.8291627697684
503.6752265433519
503.51984470045926
503.3633294428001
503.20599622343565
503.0481629311134
502.8901490630688
502.73227488885306
502.5748606077517
502.418225502428
502.2626870914856
502.10856028366396
501.95615653634917
501.8057830209975
501.6577417980387
501.51232900379284
501.3698340519582
501.2305388522333
501.0947170485799
500.9626332795849
500.83454246337476
500.7106891095614
500.59130666065346
500.4766168652847
500.3668291854742
500.26214023998256
500.1627332856856
500.06877773875783
499.98042873724273
499.8978267464198
499.8210972083362
499.7503502368211
499.68568035910266
499.62716630484437
499.574870843276
499.52884066901885
499.48910633708635
499.4556822473448
499.42856667849645
499.4077418714863
499.3931741620603
499.3848141620863
499.3825969891094
499.38644254341614
499.3962558316681
499.41192733605027
499.4333334277029
499.46033682295956
499.4927870807462
499.53052113936826
499.5733638907966
499.6211287904848
499.6736185005966
499.73062556436093
499.7919331091339
499.85731557561456
499.92653947057056
499.9993641403997
500.075542562832
500.1548221539784
500.2369455878349
500.3216516253634
500.40867595018995
500.4977520078627
500.5886118456344
500.6809869497842
500.774609077478
500.8692110801832
500.96452771569915
501.0602964459487
501.156258217789
501.252158224238
501.34774664361424
501.4427793541841
501.53701862193645
501.6302337592185
501.72220175215375
501.81270785497264
501.90154614953065
501.9885200684287
502.073442880313
502.1561381360624
502.2364400747229
502.31419398823
502.3892565441673
502.46149606604246
502.53079277073607
502.59703896292814
502.6601391864303
502.72001033243663
502.7765817047452
502.82979504215245
502.87960449846537
502.9259765807566
502.96889004666315
503.00833576179
503.0443165185143
503.07684681768046
503.10595261488317
503.13167103321064
503.15405004442715
503.1731481207109
503.1890338592041
503.2017855816957
503.21149091172305
503.2182463313864
503.222156720142
503.2233348777726
503.2219010337623
503.21798234541
503.21171238708354
503.2032306330078
503.19268193588084
503.18021600358986
503.1659868763346
503.1501524064482
503.13287374318463
503.1143148246998
503.09464187932065
503.0740229380039
503.05262735977055
503.0306253717717
503.0081876254552
502.9854847701596
502.96268704533526
502.9399638924413
502.91748358737874
502.8954128941733
502.87391674050883
502.85315791565824
502.83329679128167
502.8144910654008
502.7968955296859
502.78066185999245
502.7659384298695
502.7528701466589
502.74159830974435
502.7322604904696
502.7249904331438
502.71991797642465
502.7171689942369
502.7168653552515
502.719124899853
502.72406143342874
502.73178473473564
502.74240057802285
502.7560107675615
502.7727131833036
502.7926018364654
502.81576693378355
502.84229494903377
502.87226870030185
502.9057674314971
502.9428668966469
502.9836394455103
503.0281541089841
503.07647668282294
503.1286698083711
503.1847930491261
503.24490296196694
503.309053161901
503.3772943792521
503.44967450835503
503.52623864694294
503.60702912553586
503.6920855262486
503.78144469055076
503.8751407155659
503.9732049385774
504.0756659095189
504.1825493513234
504.2938781080671
504.40967208092775
504.52994815209547
504.65472009687994
504.78399848435254
504.917790566979
505.0561001598691
505.1989275104084
505.3462691590708
505.49811779218555
505.6544620874551
505.8152865531803
505.98057136232126
506.15029218255415
506.32442000344315
506.50292096180897
506.68575616643903
506.87288152331564
507.0642475625419
507.25979926817075
507.4594759121329
507.66321089341983
507.8709315836742
508.08255918036997
508.29800856873413
508.51718819355176
508.73999994200045
508.96633903860146
509.1960939533123
509.42914632369946
509.6653708920132
509.90463545796746
510.1468008480062
510.39172090178477
510.6392424765376
510.8892054699351
511.1414428619409
511.395780776026
511.6520385600213
511.91002888682425
512.1695578750465
512.4304252295924
512.6924244021388
512.9553427714185
513.2189618431611
513.4830574694446
513.7474000871396
514.0117549750753
514.2758825294757
514.5395385571394
514.8024745857216
515.0644381903659
515.3251733358378
515.5844207333025
515.8419182108966
516.0974010971609
516.3506026162645
516.6012542938645
516.8490863724876
517.0938282353037
517.3352088371438
517.5729571415911
517.8068025629332
518.0364754117271
518.2617073427718
518.4822318043585
518.6977844876285
518.9081037748783
519.1129311857012
519.3120118199223
519.5050947963418
519.6919336862618
519.8722869407445
520.0459183106021
520.2125972580911
520.3720993592743
520.5242066960435
520.6687082368715
520.8054002054387
520.9340864362466
521.0545787162805
521.1666971118128
521.2702702795586
521.3651357615333
521.4511402630429
521.5281399133324
521.5960005085418
521.6545977367144
521.7038173845765
521.74355552577
521.7737186903108
521.794224015212
521.8049993762676
521.8059835009416
521.797126062286
521.7783877538359
521.7497403454591
521.7111667202417
521.6626608926225
521.6042280080209
521.5358843242069
521.4576571747727
521.369584915132
521.2717168514545
521.1641131529449
521.0468447479993
520.9199932048926
520.7836505975991
520.6379193573063
520.4829121101554
520.3187515017228
520.1455700087666
519.9635097388314
519.772722218323
519.573368169636
519.3656172779185
519.1496479480595
518.9256470523802
518.6938096695072
518.4543388149249
518.2074451637585
517.953346766389
517.6922687575153
517.4244430592114
517.1501080784434
516.8695083994792
516.5828944715481
516.2905222920697
515.9926530857769
515.6895529800549
515.3814926768316
515.0687471214093
514.7515951686258
514.4303192468032
514.1052050199268
513.7765410484262
513.4446184487897
513.1097305521868
512.772172562254
512.4322412122629
512.0902344219102
511.74645095396556
511.401190071013
511.0547511924969
510.70743355229155
510.35953585696774
510.0113559449475
509.6631904467618
509.31533444663364
508.96808114561605
508.62172152652005
508.27654402088194
507.93283417827763
507.5908743383341
507.2509433057716
506.9133160287813
506.5782632809618
506.246051347103
505.91694171322297
505.5911907613061
505.2690494691994
504.95076311608835
504.63657099393896
504.32670612530336
504.0213949879615
503.72085724691766
503.4253054942491
503.13494499734514
502.84997345611316
502.5705807696927
502.29694881319574
502.0292512250345
501.7676532054092
501.5123113265078
501.2633733549822
501.02097808724704
500.785255198122
500.5563251033699
500.3342988366873
500.11927794171197
499.911354379593
499.7106104525593
499.5171187438327
499.3309420741865
499.15213347545676
498.9807361812967
498.816783635413
498.66029951752876
498.51129778731416
498.36978274646657
498.23574911904643
498.10918215013595
497.9900577228809
497.87834249388476
497.77399404677163
497.6769610637002
497.58718351459146
497.50459286378737
497.429112293758
497.3606569453303
497.299134173863
497.24444382082345
497.19647850020027
497.15512389909856
497.12025909177896
497.09175686636087
497.06948406342036
497.0533019256715
497.04306645779747
497.0386287954365
497.0398355823434
497.0465293547476
497.05854893190957
497.0757298118459
497.0979045710893
497.12490326724384
497.1565538431045
497.19268253116246
497.2331142573493
497.2776730428893
497.3261824031146
497.3784657421065
497.43434674206
497.4936497462974
497.5562001348862
497.6218246918469
497.690351962975
497.76161260329127
497.8354397131286
497.9116691619439
497.9901398990524
498.0706942505549
498.15317820172066
498.2374416640724
498.3233387264894
498.41072788972843
498.49947228379574
498.5894398676636
498.68050361094186
498.77254165721354
498.8654374687563
498.9590799523564
499.0533635659798
499.1481884061772
499.2434602762337
499.339090735178
499.434997127824
499.5311025960413
499.62733607148095
499.7236322500529
499.8199315485073
499.916180043502
500.0123293935863
500.1083367446642
500.2041646195782
500.2997807923252
500.3951581473338
500.4902745243176
500.5851125493057
500.6796594525392
500.7739068739985
500.8678506573532
500.96149063310105
501.054830391682
501.14787704739746
501.24064099394326
501.33313565236955
501.4253772123405
501.51738436756887
501.6091780462973
501.7007811376712
501.79221821479683
501.88351525522506
501.97469935962215
502.06579846943674
502.1568410843704
502.24785598042837
502.33887192926295
502.42991741949794
502.5210203807579
502.61220791116256
502.7035060089929
502.7949393091498
502.8865308249311
502.9783016956175
503.0702709403943
503.16245521924014
503.25486860146066
503.34752234251323
503.44042466973633
503.5335805775587
503.6269916327063
503.72065578987394
503.8145672182934
503.9087161395999
504.0030886774143
504.0976667190829
504.19242779002576
504.28734494109915
504.3823866493355
504.47751673244994
504.5726942774708
504.66787358372
504.7630041203254
504.8580304984754
504.95289245866473
505.0475248732254
505.14185776435744
505.23581633776405
505.3293210319863
505.4222875835494
505.5146271080254
505.6062461971049
505.6970470317028
505.7869275110265
505.8757813975036
505.96349847746876
506.0499647374413
506.13506255576425
506.2186709093808
506.3006655955456
506.3809194682143
506.45930268882114
506.53568299112266
506.609925959719
506.68189532183953
506.7514532519509
506.8184606886696
506.88277766342827
506.9442636403095
507.00277786638344
507.05817973189716
507.11032913967915
507.1590868831198
507.204315031925
507.2458773246148
507.28363956665453
507.31747003309243
507.3472398745156
507.3728235251101
507.39409911164086
507.410948862185
507.42325951335306
507.43092271472665
507.4338354293532
507.43190032919443
507.4250261843512
507.4131282447691
507.3961286130985
507.3739566074715
507.34654911296286
507.3138509204218
507.27581505136044
507.232403067627
507.1835853646022
507.1293414466826
507.06966018386646
507.00454004829834
506.93398932968483
506.85802632854023
506.7766795262053
506.6899877305912
506.5980001966968
506.5007767210954
506.39838770970783
506.29091421829474
506.1784479651709
506.06109131564153
505.9389572376523
505.8121692282471
505.68086121056405
505.5451774012398
505.4052721481753
505.2613097386583
505.1134641778968
504.96191893814506
504.80686667872635
504.6485089373578
504.4870557933136
504.3227255030766
504.1557441092206
503.98634502330077
503.81476858364323
503.64126158909187
503.46607680988956
503.2894724769188
503.1117117505814
502.93306217064134
502.75379508844367
502.5741850830207
502.3945093627252
502.21504715414454
502.0360790801194
501.8578865287503
501.68075101525875
501.5049535385166
501.33077393408286
501.15849022569296
500.9883779771965
500.82070964691815
500.6557539464279
500.4937752056744
500.3350327464383
500.1797802660779
500.028265233459
499.88072829901023
499.73740272090197
499.59851380930246
499.46427839051296
499.33490429264634
499.21058985441863
499.091523458602
498.9778830916582
498.8698359309991
498.7675379612377
498.67113362071086
498.5807554794356
498.4965239495543
498.4185470291927
498.34692008052696
498.281725642706
498.2230332801837
498.1708994669073
498.1253675066849
498.0864674899111
498.05421628670825
498.0286175764541
498.0096619135846
497.99732682944096
497.9915769697655
497.99236426726634
497.99962814858566
498.01329577492845
498.033282315495
498.05949125276635
498.0918147185615
498.1301338596141
498.1743192312656
498.2242312178252
498.27972047806094
498.3406284141738
498.40678766257406
498.4780226047697
498.55414989663603
498.6349790142463
498.720312814348
498.80994810747615
498.90367624164236
499.00128369457656
499.10255267251995
499.2072617135183
499.31518629317395
499.4260994308813
499.5397722945907
499.6559748021716
499.7744762174826
499.8950457392798
500.01745308115386
500.14146904079394
500.2668660569218
500.39341875224045
500.5209044608089
500.64910373835414
500.7778008541935
500.9067842636156
501.03584705965255
501.16478740321486
501.2934089306972
501.4215211383261
501.54893974261086
501.67548701634183
501.80099209965624
501.9252912857474
502.04822828084826
502.1696544382064
502.28942896582925
502.4074191078661
502.52350029961605
502.6375562961948
502.74947927498425
502.85916991214594
502.96653743357126
503.07149964068157
503.1739829115735
503.27392217825434
503.3712608810273
503.46595090121787
503.55795247346623
503.64723407885367
503.7337723201515
503.81755178041556
503.8985648660496
503.97681163546076
504.05229961445224
504.12504359941215
504.19506544928726
504.2623938673621
504.32706417396906
504.389118071317
504.4486034015688
504.5055738992294
504.5600889388824
504.6122132793199
504.662016805129
504.7095742668338
504.7549650206225
504.79827276855906
504.839585300094
504.8789942356185
504.91659477275977
504.95248543608625
504.9867678308454
505.0195464012285
505.05092819352234
505.081022624391
505.10994125447456
505.1377975674585
505.16470675478564
505.19078550619554
505.21615180621825
505.24092473662154
505.2652242847094
505.28917115732787
505.31288660048955
505.3364922245107
505.360109834474
505.3838612657508
505.4078682243074
505.4322521314832
505.45713397286033
505.4826341508112
505.50887234038504
505.53596734826345
505.5640369744259
505.59319787607586
505.62356543340184
505.65525361685155
505.68837485566604
505.72303990736447
505.75935772781196
505.79743534151623
505.8373777117845
505.879287610388
505.92326548641944
505.9694093341152
506.01781455953545
506.06857384605553
506.1217770185528
506.17751090612364
506.23585920326883
506.29690232963867
506.36071728850874
506.42737752411756
506.49695277796275
506.56950894422744
506.6451079245511
506.7238074823012
506.8056610965652
506.89071781626643
506.9790221148906
507.0706137463145
507.16552760221134
507.2637935715002
507.36543640231145
507.47047556692087
507.57892513009534
507.69079362131106
507.8060839113517
507.9247930938612
508.0469123724654
508.17242695412637
508.30131594937245
508.4335522800163
508.5691025949784
508.70792719479704
508.8499799653449
508.9952083211963
509.14355315901906
509.2949488213671
509.4493230713119
509.6065970783525
509.7666854159665
509.9294960711145
510.09493046602154
510.2628834925333
510.43324355930434
510.6058926520722
510.7807064072214
510.95755419876065
511.1362992387736
511.31679869136474
511.49890380005274
511.68246002851635
511.8673072145946
512.053279737437
512.2402066976822
512.4279121105309
512.6162151115562
512.8049301750124
512.9938673443182
513.1828324743361
513.3716274850063
513.56005062589
513.7478967511829
513.9349576047656
514.1210221148024
514.3058766973189
514.4893055681574
514.6710910626579
514.8510139624206
515.0288538285232
515.2043893405341
515.3773986406316
515.5476596820794
515.7149505812364
515.879049972313
516.0397373641508
516.1967934982423
516.3500007071733
516.49914327266
516.6440077823574
516.7843834846108
516.9200626403635
517.0508408714867
517.1765175048453
517.2968959114896
517.4117838403465
517.520993745826
517.6243431087672
517.7216547501578
517.8127571370761
517.8974846803285
517.9756780232949
518.0471843214934
518.1118575122471
518.1695585737097
518.2201557725025
518.2635248992772
518.2995494915461
518.3281210431876
518.349139200188
518.3625119423502
518.3681557507672
518.365995760836
518.3559659005874
518.3380090141226
518.3120769699852
518.2781307543262
518.2361405487164
518.1860857925225
518.1279552298727
518.0617469413269
517.987468360338
517.9051362744682
517.8147768112646
517.7164254087832
517.6101267708558
517.4959348072467
517.3739125589249
517.2441321087096
517.106674477549
516.9616295066629
516.8090957258503
516.6491802083099
516.4819984123923
516.3076740106873
516.1263387068503
515.9381320405278
515.743201180727
515.5417007080126
515.3337923860473
515.1196449231021
514.8994337241369
514.6733406339857
514.441553672137
514.2042667596359
513.9616794386079
513.7139965849042
513.4614281144
513.2041886835499
512.9424973848139
512.6765774374986
512.4066558744986
512.1329632254965
511.8557331972534
511.57520235155795
511.29160978128783
511.00519678502206
510.7162065407543
510.424883779255
510.1314744575632
509.8362254331133
509.5393841390789
509.24119826149575
508.9419154186886
508.6417828434845
508.3410470686649
508.0399536161562
507.73874669053964
507.43766887739815
507.1369608468586
506.83686106264184
506.53760549699524
506.23942735191923
505.942556787076
505.6472206547667
505.35364224240516
505.0620410228758
504.7726324130423
504.48562754067734
504.2012330201113
503.9196507368647
503.64107764149975
503.3657055529085
503.0937209712618
502.82530490086316
502.56063268315444
502.29987384008035
502.04319192791166
501.7907444015324
501.54268248916577
501.2991510775049
501.06028860720477
500.8262269787178
500.59709146848786
500.37300065558344
500.1540663589184
499.94039358525055
499.73208048806816
499.5292183373701
499.3318915002804
499.1401774324176
498.954146679894
498.77386289177065
498.5993828427614
498.43075646599436
498.26802689563795
498.11123051918906
497.9603970392351
497.8155495444925
497.6767045899363
497.54387228582954
497.41705639541703
497.2962544410069
497.1814578181539
497.07265191761024
496.96981625466685
496.8729246054902
496.7819451500783
496.69684062150384
496.6175684611961
496.54408098002335
496.4763255248791
496.41424465039495
496.3577762953352
496.3068539632366
496.26140690693853
496.2213603166588
496.1866355112527
496.157150132277
496.1328183404902
496.11355101443377
496.09925595076476
496.08983806601344
496.08519959945005
496.0852403166987
496.0898577137114
496.09894722076666
496.11240240614126
496.1301151790695
496.1519759916321
496.17787403931413
496.2076974599953
496.2413335311217
496.27866886476573
496.31958960027424
496.3639815942147
496.4117306073321
496.4627224882227
496.5168433534428
496.5739797637227
496.6340188959428
496.69684871057456
496.76235811428035
496.83043711743164
496.9009769864161
496.9738703906071
497.0490115438271
497.12629634009414
497.20562248340906
497.2868896113084
497.3699994119323
497.4548557343781
497.54136469216525
497.62943475970394
497.7189768616996
497.8099044554014
497.9021336055472
497.9955830518622
498.0901742689779
498.1858315185758
498.28248189352223
498.38005535382126
498.4784847543042
498.57770586401983
498.67765737723244
498.77828091590993
498.8795210236285
498.98132515081255
499.08364363116283
499.18642964917075
499.28963919872103
499.39323103281873
499.4971666044722
499.6014099988063
499.70592785655674
499.81068928911293
499.91566578534025
500.0208311104995
500.1261611975058
500.2316340306048
500.3372295214949
500.4429293780233
500.54871696571485
500.6545771624546
500.76049620671245
500.8664615397487
500.9724616422567
501.0784858658619
501.1845242598813
501.2905673938023
501.39660617598537
501.50263166910327
501.6086349028157
501.7146066842416
501.82053740691856
501.92641685901907
502.03223403155346
502.1379769272603
502.2436323709489
502.3491858221524
502.4546211908842
502.5599206571741
502.66506449505636
502.77003090171775
502.8747958325242
502.9793328426911
503.0836129363541
503.1876044237302
503.2912727870355
503.3945805558975
503.4974871930525
503.5999489910612
503.70191898071465
503.8033468517424
503.9041788864222
504.0043579066851
504.10382323525187
504.2025106712622
504.3003524807564
504.39727740231206
504.49321066816725
504.58807404115447
504.68178586773104
504.7742611473059
504.8654116179677
504.9551458586033
505.0433694072632
505.1299848956674
505.214892199786
505.29798860634554
505.3791689950862
505.45832603656817
505.5353504052445
505.6101310073839
505.68255522330065
505.7525091632109
505.8198779359978
505.88454593017195
505.94639710627257
506.0053152999357
506.06118453485
506.1138893447949
506.1633151039234
506.2093483643391
506.25187719987196
506.2907915548785
506.3259835968767
506.3573480718197
506.3847826608316
506.40818833722886
506.4274697226633
506.44253544128395
506.4532984708203
506.45967648946817
506.4615922174995
506.45897375253713
506.4517548974333
506.439875479671
506.4232816611589
506.40192623722527
506.37576892364433
506.3447766305958
506.3089237225116
506.2681922628347
506.2225722427647
506.17206179308977
506.116667378281
506.0564039721066
505.99129521403904
505.9213735457644
505.84668032715314
505.76726593110766
505.6831898167848
505.5945205807481
505.50133598567305
505.40372296629687
505.3017776123385
505.19560512820857
505.08531976945085
504.97104475588804
504.8529121613757
504.73106278009817
504.6056459694585
504.47681946965884
504.34474920010234
504.20960903280337
504.0715805431022
503.9308527381334
503.7876217635515
503.64209058905095
503.4944686732689
503.34497160868176
503.193820747189
503.041242807124
502.8874694624149
502.7327369146436
502.5772854487975
502.42135897363926
502.2652045477513
502.1090718923119
501.95321289156686
501.79788108194623
501.64333113083336
501.4898183060152
501.33759793688034
501.1869248684981
501.0380529097752
500.89123427688514
500.7467190331839
500.60475452691236
500.4655848280133
500.32945016540043
500.19658636602475
500.06722429705377
499.9415893124776
499.8199007054925
499.70237116803224
499.589206258871
499.4806038817802
499.3767537752546
499.2778370152833
499.1840255326124
499.0954816459146
499.0123576122198
498.93479519589334
498.8629252574339
498.7968673633027
498.73672941794405
498.6826073192157
498.634584638541
498.5927323270609
498.55710844894395
498.5277579429069
498.5047124129214
498.4879899490228
498.4775949791176
498.473518152625
498.4757362567228
498.4842121659025
498.4988948254614
498.51971926953
498.54660667418165
498.57946444604556
498.6181863466531
498.66265265260313
498.71273035156946
498.768273374063
498.8291228607322
498.89510746488577
498.9660436898086
499.041736260321
499.12197852796714
499.2065529091361
499.29523135536243
499.38777585491823
499.48393896462983
499.5834643707615
499.6860874777663
499.7915360235858
499.89953072002123
500.00978591654024
500.12201028580023
500.23590752906983
500.3511770996833
500.4675149425483
500.58461424758497
500.70216621491636
500.81986082966085
500.93738764419606
501.0544365656864
501.1706986465688
501.2858668756437
501.39963696741546
501.51170814733365
501.6217839306074
501.7295728923514
501.8347894268987
501.93715449406875
502.0363963501428
502.1322512613446
502.22446419760615
502.3127895044079
502.39699155050215
502.4768453494132
502.5521371527244
502.6226650132676
502.68823931636837
502.74868327737846
502.80383340385436
502.8535399208786
502.8976671581509
502.93609389761724
502.9687136805587
502.9954350733578
503.0161818914423
503.03089338105605
503.0395243586138
503.04204530755
503.0384424326608
503.028717672021
503.01288866664663
502.9909886880902
502.96306652423834
502.92918632377274
502.8894273999408
502.8438839944334
502.79266500228664
502.7358936588919
502.6737071903838
502.60625642880876
502.5337053935896
502.4562308409609
502.3740217831545
502.2872789791853
502.19621439911253
502.1010506636927
502.00202046134746
501.89936594441303
501.7933381067487
501.68419614484463
501.57220680456805
501.45764371566685
501.34078671612815
501.2219211685074
501.1013372703763
500.9793293610272
500.85619522648636
500.73223540479336
500.6077524934473
500.48305046094566
500.3584339644129
500.23420767525704
500.11067561467223
499.9881405007254
499.8669031087026
499.74726164632364
499.62951114526726
499.51394287023857
499.40084374674365
499.2904958087741
499.1831756675214
499.0791540021297
498.97869507333337
498.8820562606856
498.78948762401916
498.7012314897523
498.6175220625721
498.5385850628296
498.4646373897435
498.3958868104076
498.33253167460697
498.2747606554316
498.2227525155802
498.1766758991549
498.13668914861796
498.10294014646456
498.07556618113574
498.05469383667435
498.0404389055518
498.03290632401445
498.0321901292642
498.03837343769425
498.0515284433274
498.0717164356544
498.0989878361454
498.1333822527259
498.17492855145895
498.2236449445916
498.27953909405994
498.3426082294715
498.4128392795285
498.4902090158905
498.57468420853746
498.66622179172185
498.76476903962924
498.87026375090545
498.9826344412715
499.10180054348916
499.22767261393045
499.360152545028
499.4991337829281
499.64450154971854
499.7961330696356
499.95389779871067
500.1176576573489
500.2872672653333
500.46257417881543
500.6434191289547
500.82963626189087
501.0210533797079
501.21749218203746
501.4187685080054
501.62469257831276
501.83506923730835
502.0496981949124
502.26837426823903
502.490887622848
502.7170240136367
502.9465650253524
503.17928831268813
503.41496784003846
503.65337412108005
503.8942744582997
504.13743318252216
504.3826118925186
504.6295696948154
504.8780634437731
505.12784798194815
505.3786763807909
505.63030018179336
505.8824696381599
506.13493395709054
506.38744154283535
506.6397402406893
506.8915775820745
507.1427010308485
507.392858230977
507.6417972555938
507.8892668573946
508.13501672031384
508.37879771245787
508.62036214018735
508.85946400316976
509.0958592502238
509.3293060357748
509.5595649766802
509.7863994091722
510.0095756456916
510.2288632313475
510.44403519969995
510.6548683275769
510.8611433886448
511.06264540549057
511.25916389994865
511.4504931413387
511.6364323922929
511.81678615184995
511.99136439549335
512.159982811794
512.3224630352545
512.4786328748729
512.6283265379312
512.7713848485477
512.9076554604569
513.0369930633881
513.1592595824245
513.274324369802
513.3820643886003
513.4823643877933
513.5751170681458
513.6602232384532
513.7375919617018
513.8071406907784
513.8687953933452
513.9224906654991
513.9681698338696
514.0057850458429
514.0352973476022
514.0566767496709
514.0699022797415
514.0749620225902
514.071853146853
514.0605819184206
514.0411637002783
514.0136229386811
513.9779931356084
513.9343168075028
513.8826454303455
513.8230393710742
513.7555678053026
513.6803086213531
513.5973483106881
513.5067818449205
513.4087125395797
513.3032519048315
513.1905194833671
513.0706426758326
512.9437565542733
512.8100036640824
512.6695338148842
512.5225038607105
512.3690774698241
512.2094248846324
512.0437226721898
511.8721534657935
511.69490569815156
511.5121733266546
511.32415555142165
511.13105652675307
510.9330850665421
510.7304543441495
510.52338158727633
510.3120877684147
510.09679729151514
509.8777376754569
509.6551392347954
509.42923475827075
509.2002591856584
508.9684492836392
508.7340433214047
508.497280746666
508.2584018626393
508.01764750655053
507.77525873018743
507.53147648304935
507.28654129865583
507.0406929844939
506.79417031605925
506.5472107354664
506.3000500550523
506.0529221663897
505.80605875518995
505.5596890225826
505.31403941320275
505.0693333503873
504.82579097865914
504.5836289136494
504.34305999964306
504.10429307496867
503.8675327455114
503.6329791666642
503.4008278340186
503.171269383052
502.9444893980328
502.7206682303334
502.49998082631134
502.2825965648969
502.06867910504064
501.8583862431394
501.65186978052384
501.44927540109325
501.2507425592129
501.0564043779675
500.8663875578147
500.6808122956534
500.49979221431147
500.32343430244003
500.1518388647792
499.985099482774
499.823302985588
499.66652943152263
499.51485209977636
499.36833749245335
499.22704534675626
499.0910286573281
498.9603337087415
498.8350001181099
498.7150608877639
498.6005424679602
498.49146482959094
498.38784154678314
498.28967988919186
498.19698092378223
498.1097396258544
498.02794499901984
497.9515802038721
497.88062269512426
497.81504436699885
497.7548117066199
497.6998859551184
497.6502232761627
497.60577493159514
497.56648746374407
497.53230288396145
497.5031588669484
497.478988950421
497.45972273965805
497.445286116552
497.43560145281793
497.43058782695846
497.43016124449747
497.43423486100045
497.4427192074323
497.45552241740825
497.4725504558668
497.49370734866244
497.5188954124955
497.5480154845698
497.58096715139783
497.6176489761684
497.6579587240491
497.7017935847701
497.7490503917961
497.7996258374381
497.8534166833446
497.9103199658249
497.97023319546986
498.0330545505544
498.0986830637147
498.1670188014709
498.2379630362377
498.31141841046957
498.38728909251114
498.4654809237379
498.54590155665346
498.6284605836395
498.7130696560294
498.7996425931497
498.8880954810359
498.9783467606357
499.07031730540024
499.1639304882386
499.25911223788796
499.3557910847619
499.45389819632004
499.55336740202176
499.65413520796386
499.7561408013561
499.85932604500533
499.9636354619453
500.06901621033757
500.1754180488257
500.2827932925925
500.39109676041375
500.5002857130232
500.6103197831378
500.72116089750114
500.83277319132816
500.94512291565457
501.0581783381759
501.1719096381424
501.2862887958538
501.4012894772797
501.5168869143505
501.6330577814758
501.7497800688083
501.86703295270263
501.98479666378336
502.10305235301934
502.22178195622774
502.340968057508
502.4605937521098
502.58064250916027
502.701098034661
502.8219441352685
502.9431645834139
503.06474298418
503.18666264422257
503.3089064429983
503.4314567065835
503.55429508435094
503.6774024287681
503.80075867852844
503.9243427451666
504.04813240332214
504.17210418488656
504.29623327724784
504.4204934257901
504.54485684075746
504.6692941085318
504.7937741073545
504.9182639275372
505.04272879619333
505.1671320065126
505.29143485160085
505.4155965629132
505.53957425334283
505.6633228650194
505.7867951218332
505.9099414867251
506.0327101237638
506.1550468649366
506.2768951816182
506.3981961607684
506.51888848599316
506.6389084236458
506.7581898141142
506.8766640684278
506.9942601703354
507.11090468399874
507.22652176739496
507.34103319148454
507.4543583652093
507.5664143664283
507.67711597899904
507.78637573626645
507.8941039711853
508.0002088732189
508.1045965521648
508.20717110911454
508.30783471474365
508.4064876950609
508.50302862474933
508.597354428293
508.68936048910876
508.7789407669197
508.865987923618
508.9503934578687
509.0320478486791
509.1108407081203
509.18666094345923
509.25939692899965
509.32893668784146
509.3951680836947
509.45797902286404
509.51725766646314
509.5728926528415
509.62477333006484
509.67278999816176
509.7168341608059
509.75679878611106
509.7925785761882
509.8240702450674
509.85117280460565
509.8737878579663
509.89181990015857
509.9051766250849
509.9137692385449
509.9175127765929
509.9163264285925
509.91013386423117
509.89886356370783
509.8824491502399
509.8608297239288
509.8339501959445
509.80176162198455
509.76422153391246
509.721294268338
509.6729512908198
509.61917151437956
509.5599416110663
509.495256315315
509.42511871778925
509.34954054833133
509.2685424465993
509.18215421898697
509.09041508050416
508.9933738802957
508.8910893094274
508.78363008962555
508.6710751417623
508.55351373296276
508.4310456012358
508.3037810564797
508.17184105663466
508.0353572577532
507.89447203681897
507.74933848620213
507.60012037872485
507.4469921023636
507.29013856369136
507.12975505926346
506.9660471142797
506.79923028796503
506.62952994520816
506.4571809940893
506.28242758907606
506.1055227998268
505.92672824563004
505.74631369558404
505.56455663471803
505.3817417963539
505.1981606610976
505.01411092299725
504.82989592356313
504.6458240544845
504.4622081300308
504.27936473028467
504.09761351654515
503.91727652042283
503.7386774082699
503.56214072266056
503.3879911027097
503.216552485133
503.0481472880869
502.88309557992835
502.72171423516596
502.56431607997513
502.41120902969465
502.26269522082737
502.1190701402124
501.9806217541167
501.8476296400431
501.7203641241012
501.59908542681114
501.48404282026473
501.37547379962854
501.2736032720313
501.1786427659095
501.0907896638739
501.0102264620763
500.93712005900534
500.87162107665915
500.81386321696243
500.7639626561464
500.72201747972537
500.6881071607011
500.6622920836347
500.64461311711466
500.6350912369928
500.6337272026197
500.6405012881569
500.6553730708888
500.6782812783203
500.7091436956491
500.74785713499267
500.79429746751305
500.848319719348
500.9097582320639
500.97842688815126
501.05411940184445
501.1366096753036
501.2256522199902
501.3209826428259
501.4223181964921
501.52935839295975
501.64178567906066
501.7592661726511
501.88145045766936
502.00797443611407
502.13846023475935
502.2725171642575
502.40974272803174
502.5497236780355
502.6920371141705
502.83625162399085
502.98192845918425
503.12862274515896
503.2758847198778
503.42326099793314
503.57029585575094
503.7165325337231
503.86151455097485
504.0047870283683
504.1458980152133
504.28439981505323
504.4198503058705
504.5518142501164
504.67986459002043
504.80358372367124
504.92256475742244
505.0364127302991
505.14474580613603
505.247196429209
505.34341243921637
505.4330581415776
505.515815329102
505.59138425124314
505.65948452733585
505.7198560003621
505.7722595278824
505.8164777069893
505.8523155305145
505.8796009720538
505.8981854976108
505.9079445018838
505.9087776675508
505.900609246352
505.8833882612353
505.8570886291557
505.8217092044037
505.77727374264344
505.7238307861465
505.6614534709718
505.5902392571379
505.5103095831082
505.4218094461434
505.324906910277
505.2197925439092
505.106678789332
504.98579926682294
504.8574080162181
504.72177867913086
504.5792036252677
504.4299930265058
504.2744738825093
504.112989001828
503.94589594264176
503.77356591747315
503.5963826662385
503.4147413020288
503.2290471340553
503.0397144722568
502.84716541810155
502.65182864613405
502.45413818078015
502.2545321728198
502.05345167989634
501.8513394554364
501.6486387502262
501.4457921306829
501.24324031764843
501.04142104938455
500.84076797239146
500.64170956361073
500.44466808743067
500.2500585906991
500.05828793874326
499.8697538951334
499.6848442476838
499.503935982942
499.3273945111791
499.15557294363504
498.9888114234871
498.8274365117358
498.67176062893344
498.5220815534092
498.3786819763997
498.2418291142291
498.1117743774461
497.9887530965756
497.87298430389507
497.76467057038656
497.6639978967949
497.5711356575242
497.4862365959194
497.40943686927454
497.340856141716
497.28059772286474
497.228748750044
497.18538041176913
497.1505482101937
497.1242922601233
497.1066376220938
497.09759466687785
497.0971594687626
497.1053142248631
497.1220276976921
497.1472556782162
497.1809414666246
497.2230163680059
497.27340020015856
497.3320018108334
497.39871960179596
497.47344205718105
497.5560482736951
497.6464084903242
497.7443846152619
497.84983074785265
497.96259369349457
498.0825134695947
498.20942380081834
498.34315260204437
498.4835224475863
498.6303510253556
498.7834515747723
498.9426333073876
499.10770180927034
499.27845942435545
499.4547056181476
499.63623732133595
499.82284925299257
500.01433422320946
500.21048341520344
500.41108664705916
500.6159326133805
500.8248091072339
501.03750322289557
501.25380153998407
501.4734902896447
501.69635550360164
501.92218314700693
502.1507592360765
502.3818699415322
502.61530167888503
502.850841186642
503.08827559361197
503.3273924765167
503.5679799091965
503.80982650471196
504.05272145163156
504.2964545457768
504.54081621868147
504.785597564016
505.03059036323265
505.27558711158144
505.52038104555754
505.76476617282674
506.0085373056465
506.25149009876617
506.49342109274266
506.73412776355326
506.97340857928856
507.2110630646026
507.44689187351224
507.68069687107794
507.91228122443573
508.1414495035359
508.36800779180777
508.591763806811
508.8125270307922
509.0301088509748
509.2443227094225
509.45498426226027
509.66191154790084
509.8649251638454
510.0638484516324
510.25850768941876
510.44873229162044
510.6343550150623
510.8152121711392
510.9911438434162
511.1619941099334
511.3276112693434
511.4878480699855
511.6425619410336
511.7916152248342
511.9348754094318
512.0722153602023
512.2035135494904
512.3286542831555
512.4475279229223
512.5600311034694
512.6660669432246
512.7655452478261
512.8583827052598
512.9445030717455
513.0238373475518
513.0963239419835
513.161908826779
513.2205456770772
513.2721959991296
513.3168292440428
513.3544229068661
513.3849626104444
513.4084421735462
513.4248636628386
513.4342374282387
513.4365821212606
513.4319246960546
513.4203003929412
513.4017527043447
513.3763333231291
513.3441020733791
513.305126823742
513.2594833835371
513.2072553819322
513.1485341304774
513.0834184693267
513.0120145975396
512.934435887956
512.8508026872352
512.761242101729
512.6658877699155
512.5648796221376
512.4583636284029
512.3464915349922
512.2294205906015
512.1073132628179
511.98033694577845
511.8486636598875
511.71246974444796
511.5719355441052
511.42724509004614
511.2785857768934
511.12614803623137
510.9701250076767
510.810712208359
510.64810720168384
510.4825092662852
510.3141190660076
510.143138321762
509.9697694861474
509.79421542172975
509.6166790838138
509.437363208481
509.25647000661155
509.0742008645977
508.8907560524455
508.70633443988993
508.5211332210412
508.3353476480741
508.14917077441135
507.9627932077607
507.7764028733031
507.59018478728217
507.4043208412559
507.2189895972652
507.034366094092
506.8506216646907
506.6679237648677
506.48643581327207
506.3063170427038
506.1277223626979
505.9508022333463
505.77570255029303
505.6025645407601
505.43152467043865
505.26271456107867
505.0962609185373
504.93228547101944
504.77090491720384
504.61223088388476
504.4563698927355
504.30342333583815
504.1534874596084
504.00665335670124
503.86300696549864
503.722629076831
503.5855953475607
503.45197632068573
503.32183745164036
503.19523914041184
503.07223676903357
502.9528807440322
502.837216543462
502.7252847682276
502.6171211974218
502.51275684742154
502.4122180344964
502.3155264406654
502.2226991825175
502.13374888271903
502.0486837439729
501.9675076252735
501.89022012031916
501.81681663794706
501.74728848446836
501.68162294776295
501.6198033830291
501.5618093001165
501.5076164523608
501.4571969268359
501.4105192359611
501.36754841040374
501.32824609330305
501.292570635927
501.2604771948338
501.2319178305643
501.2068416078638
501.1851946974065
501.16692047897243
501.1519596460492
501.1402503118618
501.1317281168425
501.12632633754646
501.12397599700637
501.12460597653455
501.1281431289994
501.13451239359495
501.1436369121381
501.1554381469058
501.16983599996763
501.18674893396957
501.2060940944039
501.22778743338534
501.25174383486427
501.27787724119884
501.30610078102205
501.3363268982859
501.3684674822711
501.40243399832406
501.4381376191442
501.4754893565117
501.51440019333427
501.55478121581103
501.5965437455175
501.63959947126665
501.68386058057786
501.72923989049247
501.7756509774714
501.8230083061396
501.8712273566445
501.92022475042586
501.96991837421183
502.0202275020423
502.0710729150752
502.12237701888756
502.1740639579414
502.2260597269299
502.27829227883944
502.33069162959936
502.3831899591446
502.435721708666
502.4882236738005
502.54063509348794
502.59289773428895
502.64495597001456
502.69675685650134
502.7482502013987
502.7993886289208
502.8501276394599
502.9004256639164
502.9502441126153
502.9995474186897
503.04830307579454
503.09648167006003
503.1440569062732
503.19100562826884
503.23730783351704
503.282946681943
503.32790849897856
503.37218277280016
503.41576214569267
503.45864239943916
503.50082243465164
503.5423042440656
503.5830928799207
503.62319641554586
503.66262590119777
503.7013953141181
503.7395215028293
503.77702412570443
503.8139255837958
503.8502509479197
503.8860278800057
503.9212865487687
503.95605953981965
503.99038176032025
504.0242903382329
504.0578245162559
504.09102554055954
504.1239365443969
504.1566024266533
504.1890697254076
504.22138648660757
504.25360212796147
504.28576729811095
504.3179337311542
504.35015409661503
504.3824818449506
504.4149710486496
504.4476762390312
504.4806522389593
504.51395399176937
504.54763638669243
504.58175408100544
504.61636131910643
504.6515117487676
504.687258234905
504.72365267122234
504.7607457900748
504.798586970881
504.8372240473758
504.8767031139603
504.91706833144184
504.9583617325215
505.0006230274315
505.04388941016225
505.0881953657609
505.1335724792509
505.18004924680156
505.2276508897897
505.2763991723633
505.3263122230878
505.3774043613106
505.4296859289651
505.48316312854064
505.5378378678896
505.59370761250705
505.65076524592394
505.70899893886644
505.7683920279083
505.8289229043657
505.89056491415187
505.9532862692321
506.0170499712458
506.0818137478477
506.14753000230786
506.2141457769336
506.2816027308692
506.3498371328323
506.41877986933576
506.4883564688934
506.55848714264783
506.62908684180945
506.7000653322084
506.7713272861998
506.84277239213003
506.914295481549
506.9857866743022
507.05713154162163
507.128211287313
507.1989029471267
507.26907960638835
507.3386106358599
507.4073619456104
507.4751962565719
507.54197338944334
507.60755057060027
507.6717827546472
507.73452296316674
507.7956226390604
507.8549320157252
507.9123005002253
507.96757706954827
508.0206106789674
508.0712506814868
508.1193472572883
508.1647518520905
508.20731762334503
508.2468998931539
508.2833566067261
508.31654879517873
508.34634104142714
508.3726019478445
508.3952046043051
508.4140270551936
508.4289527638891
508.43987107318304
508.44667766012276
508.4492749838328
508.4475727248376
508.44148821432816
508.43094685183434
508.4158825097927
508.3962379234897
508.3719650648657
508.343025498735
508.3093907200593
508.27104247092433
508.2279730358424
508.18018551401417
508.12769406718076
508.0705241417517
508.008712663961
507.94230820690166
507.87137112836825
507.7959736785275
507.7162000764665
507.6321465546727
507.5439213705497
507.4516447841567
507.35544900145453
507.2554780824644
507.1518878138307
507.0448455453382
506.9345299900446
506.82113098785027
506.70484923240764
506.585895961284
506.4644926093691
506.3408704256927
506.21527005398787
506.08794107748076
505.95914152846495
505.8291373632875
505.698201903457
505.56661524374994
505.43466362828417
505.30263879561414
505.17083729408165
505.03955976882526
504.90911022193524
504.7797952473823
504.6519232425045
504.5258035978852
504.4017458674787
504.2800589209136
504.1610500800856
504.04502424235625
503.93228299274665
503.82312370752993
503.71783865175064
503.6167140733211
503.5200292964717
503.4280558174046
503.3410564049766
503.25928420926505
503.1829818809379
503.11238070440373
503.0476997477509
502.9891450324838
502.93690872608533
502.8911683604508
502.85208607925654
502.8198079173012
502.7944631148299
502.77616346978925
502.7650027308899
502.7610560342702
502.76437938645756
502.77500919620087
502.79296185763263
502.81823338710655
502.85079911593914
502.8906134411797
502.93760963639903
502.99169972428655
503.05277441260137
503.12070309479077
503.19533391643614
503.27649390854117
503.36398918851063
503.4576052294473
503.557107198142
503.66224036186554
503.772730563809
503.88828476671273
504.00859166395685
504.13332235704263
504.2621310980483
504.39465609540315
504.5305203811381
504.6693327375755
504.81068868114374
504.95417150070637
505.09935334752004
505.24579637375115
505.3930539162875
505.54067172233704
505.6881892130547
505.83514078120777
505.9810571186989
506.125466569622
506.26789650443493
506.40787471071195
506.544930795814
506.67859759673377
506.8084125922525
506.9339193124424
507.05466874049694
507.1702207018815
507.28014523581675
507.3840239441136
507.4814513124208
507.57203599905085
507.655402086682
507.73119029233504
507.7990591310908
507.85868602911404
507.9097683816772
507.9520245520522
507.9851948073057
508.00904218720524
508.0233533027354
508.02793906112373
508.02263531460136
508.0073034303456
507.9818307792349
507.9461311413023
507.90014502619516
507.8438399074549
507.77721036991306
507.7002781698794
507.61309220813735
507.51572841611096
507.40828955589274
507.2909049351202
507.1637300379684
507.0269460737488
506.88075944491777
506.7254011366182
506.56112603016584
506.3882121431832
506.2069597994483
506.0176907318836
505.8207471223675
505.6164905822882
505.4053010780434
505.187575805862
504.96372802044283
504.73418582206824
504.4993909070386
504.25979728634815
504.01586997758994
503.76808367513075
503.51692140356425
503.2628731594196
503.00643454610946
502.7481054070914
502.48838846218985
502.22778795196336
501.966808294925
501.7059527623107
501.4457221749676
501.1866136267441
500.9291192385709
500.67372494724424
500.42090933274574
500.1711424877164
499.92488493247095
499.6825865786797
499.4446857445897
499.2116082243527
498.983766413772
498.7615584945127
498.5453676785074
498.33556151398244
498.1324912542433
497.936491290091
497.7478786464549
497.56695254348585
497.39399402199246
497.22926563282726
497.0730111896252
496.9254555840898
496.78680466277825
496.6572451640258
496.5369447134143
496.4260518760118
496.32469626338815
496.2329886931969
496.15102139900665
496.07886828790384
496.01658524322204
495.96421046963303
495.92176487775646
495.8892525053945
495.8666609724421
495.853961966428
495.8511117556019
495.85805172653824
495.87470894324804
495.90099672474116
495.93681523788223
495.98205210239075
496.03658300501263
496.1002723200286
496.1729737333634
496.2545308676092
496.34477790535436
496.4435402083327
496.55063493002217
496.66587161945284
496.7890528141133
496.9199746199807
497.05842727688685
497.2041957076071
497.35706004928073
497.516796165992
497.68317614152375
497.85596875143915
498.0349399137377
498.219853117448
498.4104698286687
498.60654987373624
498.80785179934344
499.0141332095991
499.225151080199
499.44066205002196
499.66042269052167
499.88418975333224
500.11172039663774
500.3427723909738
500.5771043051988
500.8144756734222
501.05464714375313
501.2973806098604
501.542439326437
501.78958800975744
502.03859292460584
502.28922195887037
502.5412446870686
502.7944324240437
503.04855827005525
503.3033971485069
503.5587258375424
503.8143229966703
504.0699691895167
504.3254469038269
504.5805405698293
504.8350365780046
505.0887232972431
505.3413910942783
505.59283235521974
505.8428415099814
506.0912150603326
506.3377516121899
506.5822519127235
506.824518892823
507.06435771537235
507.30157582967314
507.535983032284
507.76739153447994
507.9956160364551
508.2204738083366
508.44178477797533
508.6593716253952
508.8730598837753
509.0826780468274
509.28805768237936
509.4890335518853
509.68544373553146
509.87712976258683
510.06393674657454
510.245713524746
510.4223128013288
510.59359129403725
510.75940988338925
510.919633764364
511.0741325998293
511.2227806750631
511.3654570526193
511.50204572675364
511.63243577663354
511.75652151756645
511.87420264950543
511.985384402144
512.0899776759786
512.1878991787953
512.2790715570984
512.36342352201
512.4408899691686
512.51141209213
512.5749374887816
512.6314202602676
512.6808211019866
512.7231073862616
512.7582532363039
512.78623959112
512.80705426105
512.8206919736095
512.8271544093396
512.826450227448
512.8185950811013
512.8036116222986
512.7815294963292
512.7523853258508
512.716222684636
512.6730920610795
512.6230508115738
512.5661631038248
512.502499850214
512.4321386313346
512.3551636098498
512.2716654348624
512.1817411370392
512.0854940147216
511.9830335112565
511.87447508377727
511.7599400636722
511.63955550905916
511.51345404965434
511.3817737244283
511.2446578123651
511.1022546566328
510.9547174824958
510.8022042092659
510.64487725652594
510.48290334488394
510.3164532915669
510.14570180118864
509.97082725206354
509.7920114784594
509.60943954915615
509.423299542657
509.2337823193809
509.04108129121806
508.84539218883896
508.64691282710373
508.4458428688949
508.24238358769713
508.03673762918095
507.82910877202653
507.61970168823524
507.40872170316993
507.1963745555882
506.9828661579536
506.76840235727934
506.55318869674977
506.3374301783749
506.1213310269159
505.905094455294
505.6889224317506
505.4730154491194
505.25757229653215
505.042789833787
504.8288627686097
504.6159834370506
504.40434158729533
504.1941241671724
503.98551511565336
503.77869515868963
503.5738416097078
503.3711281750517
503.17072476468127
502.9727973084585
502.777507578346
502.5850130167508
502.3954665711524
502.209016535193
502.02580639645316
501.84597469118506
501.6696548662887
501.4969751487872
501.3280584230016
501.163022115584
501.0019780885721
500.84503254064066
500.6922859167467
500.54383282639725
500.3997619707632
500.2601560788079
500.1250918525857
499.9946399219104
499.8688648086193
499.7478249006057
499.63157243569583
499.5201534953767
499.41360800835656
499.3119697639116
499.2152664349786
499.12351961095476
499.0367448401309
498.95495168159863
498.87814376642126
498.80631886784295
498.73946898036746
498.6775804075516
498.62063385828213
498.5686045512718
498.52146232748476
498.47917177015853
498.44169233211795
498.4089784700639
498.38097978544755
498.3576411715228
498.33890296622474
498.324701110522
498.3149673118322
498.3096292120653
498.30861055985366
498.31183138651096
498.319208185278
498.33065409342225
498.34607907674956
498.36539011609875
498.3884913953631
498.41528449054954
498.44566855937995
498.4795405309466
498.51679529496175
498.5573258901751
498.60102369154026
498.6477785957447
498.6974792047383
498.7500130068652
498.8052665552095
498.8631256427827
498.9234754742104
498.98620083363676
499.05118624860523
499.11831614972584
499.1874750259719
499.2585475754759
499.3314188517097
499.4059744049306
499.48210041877235
499.5596838418704
499.6386125144047
499.71877528938796
499.80006214853165
499.8823643126376
499.9655743465505
500.04958625870455
500.1342955953088
500.21959952922214
500.30539694357606
500.39158851019226
500.47807676284964
500.5647661655111
500.6515631756995
500.7383763032136
500.8251161643372
500.9116955316712
500.99802937969315
501.08403492614514
501.1696316693699
501.2547414217176
501.3392883391323
501.4231989470469
501.50640216278526
501.5888293146608
501.6704141579225
501.75109288769374
501.8308041490366
501.90948904423055
501.9870911373576
502.0635564562961
502.13883349226984
502.21287319712553
502.28562897838185
502.35705669198956
502.4271146327956
502.49576352279814
502.56296649729717
502.6286890889752
502.692899209962
502.7555671319833
502.81666546469415
502.876169132292
502.93405534851615
502.990303590092
503.0448955686258
503.09781520093446
503.1490485777612
503.19858393083484
503.24641159826194
503.29252398825275
503.33691554120645
503.3795826901703
503.4205238197009
503.4597392232141
503.4972310589479
503.5330033046603
503.56706171122283
503.599413755228
503.6300685906383
503.65903699950104
503.68633134178805
503.7119655044113
503.735954849499
503.75831616208836
503.77906759738096
503.7982286276714
503.8158199891045
503.8318636284337
503.84638264987024
503.85940126210426
503.87094472561324
503.8810393003781
503.88971219410433
503.8969915109909
503.9029062011101
503.907486010515
503.91076143220346
503.91276365803685
503.9135245316698
503.91307650258665
503.91145258139017
503.90868629646405
503.90481165206626
503.89986308788247
503.89387544011504
503.88688390418304
503.87892399909987
503.8700315335983
503.8602425740324
503.84959341402646
503.83812054583035
503.8258606333378
503.8128504867155
503.79912703860555
503.7847273218472
503.76968844861625
503.7540475908686
503.73784196197045
503.72110879941545
503.70388534852475
503.6862088470492
503.66811651059896
503.64964551874385
503.6308330016094
503.61171602682424
503.5923315867418
503.572716585856
503.5529078283204
503.5329420054435
503.51285568302575
503.49268528843913
503.4724670973709
503.4522372201337
503.4320315874712
503.4118859357607
503.39183579151006
503.37191645511194
503.35216298384097
503.3326101739806
503.3132925419115
503.29424430404634
503.27549935556516
503.2570912479274
503.2390531651461
503.2214178988015
503.20421782177755
503.1874848606979
503.17125046707025
503.1555455871954
503.14040063095644
503.12584543960634
503.1119092526781
503.0986206741581
503.08600763810534
503.0740973739058
503.0629163712893
503.05249034520887
503.0428442006965
503.03400199784744
503.0259869171293
503.0188212252166
503.0125262415469
503.00712230576124
503.00262874615373
502.9990638492602
502.9964448306887
502.994787807273
502.9941077706063
502.99441856204476
502.9957328493025
502.9980621047924
503.0014165859498
503.0058053177855
503.0112360778304
503.017715383564
503.02524848242774
503.03383934451693
503.04349065801927
503.05420382744546
503.06597897470203
503.0788149430782
503.0927093041549
503.1076583675466
503.1236571933763
503.140699607458
503.1587782191925
503.1778844421675
503.1980085174218
503.2191395393127
503.24126548392
503.26437323989825
503.28844864169156
503.3134765049955
503.33944066437226
503.36632401290836
503.39410854378804
503.422775393676
503.45230488779305
503.4826765865454
503.51386933355275
503.5458613048929
503.5786300593751
503.6121525897411
503.64640537475213
503.6813644320768
503.71700537183574
503.7533034506664
503.7902336261957
503.8277706117996
503.86588893150883
503.9045629749133
503.943767051924
503.9834754472609
504.02366247457843
504.06430253016725
504.1053701461829
504.14684004340216
504.1886871834991
504.2308868207897
504.27341455336455
504.31624637355725
504.3593587177579
504.4027285156076
504.44633323857255
504.49015094788666
504.53416034181413
504.5783408021378
504.62267243982944
504.66713613995233
504.71171360586555
504.7563874027939
504.80114100085126
504.8459588175296
504.8908262595266
504.93572976375856
504.9806568374651
505.02559609735
505.07053730772606
505.1154714176764
505.1603905972061
505.2052882723084
505.25015915886024
505.29499929527725
505.3398060738641
505.3845782707514
505.4293160742725
505.4740211115752
505.51869647328937
505.56334673608006
505.607977982912
505.6525978208468
505.69721539616864
505.7418414066431
505.78648811068456
505.8311693331232
505.87590046722937
505.9206984726943
505.96558186931844
506.0105707261851
506.055686646096
506.1009527449952
506.1463936260881
506.19203534839335
506.237905389456
506.28403260195563
506.33044716394636
506.37718052247016
506.42426533032864
506.47173537584683
506.51962550548876
506.5679715391276
506.61681017776993
506.6661789036389
506.71611587259457
506.7666597988524
506.81784983197883
506.86972542620424
506.9223262021208
506.9756918008502
507.0298617308117
507.0848752071825
507.14077098415726
507.19758718024946
507.2553610969832
507.31412903139477
507.37392608280214
507.4347859543254
507.49674074965924
507.5598207656748
507.6240542815394
507.6894673451074
507.7560835573371
507.8239238554945
507.8930062959172
507.9633458371627
508.03495412442766
508.1078392761769
508.18200567394666
508.2574537562612
508.33417981756463
508.4121758130718
508.4914291705407
508.57192261001444
508.6536339725202
508.7365360586663
508.8205964781695
508.9057775114101
508.9920359841163
509.0793231561815
509.1675846255333
509.2567602479108
509.34678407340726
509.43758430063485
509.52908324935464
509.62119735242175
509.71383716790365
509.80690741221855
509.90030701512734
509.9939291973324
510.08766157127474
510.1813862655812
510.274980073501
510.36831462560747
510.46125658702357
510.5536678793485
510.64540592727536
510.7363239297017
510.8262711550373
510.9150932604054
511.00263263433646
511.0887287624162
511.1732186152929
511.2559370584774
511.3367172832646
511.4153912579322
511.49179019823674
511.5657450561605
511.63708702576736
511.7056480649437
511.77126143164566
511.8337622331445
511.8929879866752
511.94877918981575
512.0009798988069
512.0494383129668
512.0940073632597
512.1345453029907
512.1709162985752
512.2029910183579
512.2306472174009
512.2537703160972
512.2722539703923
512.2860006313289
512.2949220915699
512.2989400165573
512.2979864580103
512.2920043474875
512.2809479677537
512.2647833997368
512.2434889429242
512.217055507055
512.185486972944
512.1488005203074
512.1070269205119
512.0602107922098
512.0084108179285
511.9516999197722
511.890165392525
511.8239089925882
511.7530469813255
511.67771012150774
511.5980436256041
511.51420705478205
511.4263741676343
511.33473271783964
511.23948420016114
511.14084354434993
511.03903875669323
510.93431050915814
510.826911676286
510.71710682014424
510.60517162382206
510.491392274199
510.37606479496776
510.25949433110424
510.14199438617
510.0238860140164
509.90549696663686
509.787160800114
509.66921594084545
509.55200471441816
509.4358723396887
509.32116589085035
509.20823323047483
509.0974219166945
508.98907808786385
508.8835453282088
508.7811635180904
508.6822676726526
508.58718677274794
508.49624259211816
508.4097485249157
508.32800841777305
508.2513154107322
508.1799507914107
508.114182866841
508.0542658574309
508.0004388174701
507.95292458656394
507.9119287763702
507.8776387969827
507.8502229272457
507.829829433208
507.8165857388422
507.81059765303024
507.81194865665475
507.8206992534398
507.83688638798924
507.8605229342741
507.8915972576344
507.9300728531794
507.97588806324654
508.02895587625216
508.08916380896494
508.1563738739515
508.23042263365465
508.3111213422033
508.39825617574564
508.4915885517805
508.5908555375817
508.69577034752007
508.8060229287748
508.9212806345124
509.04118898318984
509.1653725022766
509.2934356543081
509.4249638427919
509.55952449518935
509.6966682198727
509.8359300335632
509.9768306553719
510.1188778633071
510.26156790889803
510.40438698532625
510.5468127441528
510.6883158554402
510.8283616057721
510.96641152846564
511.10192506018234
511.2343612181307
511.36318029193694
511.4878455440677
511.6078249125679
511.72259270984904
511.8316313112418
511.93443282695785
512.030500751134
512.1193515817246
512.2005164051677
512.2735424399127
512.3379945330653
512.3934566045106
512.4395330330382
512.4758499791984
512.5020566397832
512.5178264290103
512.5228580817138
512.5168766741335
512.4996345582414
512.4709122059949
512.4305189603634
512.3782936903333
512.3141053474781
512.2378534220275
512.1494682967949
512.0489114979232
511.9361758419759
511.81128547936635
511.67429583446125
511.52529344310085
511.36439568869133
511.19175043836543
511.00753558102474
510.81195846945735
510.60525526910726
510.38769021640604
510.15955478992777
509.92116679799074
509.67286938669884
509.4150299727887
509.1480391059843
508.87230926577945
508.5882735977486
508.29638459471306
507.99711272829944
507.6909450365753
507.3783836735934
507.0599444267296
506.7361552076926
506.4075545230977
506.0746899305285
505.738116486024
505.3983951889152
505.056091429902
504.7117734481503
504.36601080295685
504.01937286533536
503.67242733476814
503.32573878613005
502.9798672515378
502.63536684172146
502.29278441133164
501.95265827235846
501.61551695954097
501.28187805136514
500.9522470499105
500.62711632245487
500.3069641074061
499.99225358679564
499.6834320272355
499.38092999089656
499.0851606177574
498.7965189800338
498.5153815093678
498.24210549697807
497.9770286666612
497.7204688202824
497.4727235550568
497.2340700515072
497.00476493069374
496.7850441791023
496.5751231393198
496.3751965643827
496.1854387334809
496.0060036264857
495.8370251545436
495.67861744378513
495.5308751690871
495.3938739347117
495.2676706985479
495.1523042366179
495.0477956444336
494.95414887165106
494.8713512864451
494.7993742660566
494.73817380998315
494.68769117229226
494.6478535095523
494.61857454090966
494.59975521693025
494.5912843939363
494.5930395106789
494.6048872642802
494.6266842824706
494.6582777893459
494.6995062620598
494.7502000760113
494.81018213624196
494.87926849293
494.9572689390467
495.0439875884562
495.139223432934
495.24277087671436
495.3544202473097
495.47395828150974
495.6011685857096
495.73583206996545
495.87772735537624
496.02663115452964
496.182318624887
496.3445636951313
496.5131393646812
496.687817976697
496.8683714650565
497.05457157593804
497.24619006475297
497.4429988693321
497.64477026041067
497.85127697056197
498.0622923027936
498.2775902200276
498.4969454167347
498.72013337408873
498.94693040005274
499.17711365584444
499.4104611702753
499.64675184347107
499.8857654414571
500.12728258313194
500.3710847211916
500.6169541185664
500.86467382183775
501.11402763298327
501.3648000807686
501.6167763930837
501.86974247151863
502.1234848694782
502.37779077505746
502.6324479997071
502.8872449735411
503.141970748074
503.3964150071411
503.65036808665633
503.90362100378564
504.1559654960996
504.4071940712024
504.65710006720025
504.9054777242248
505.1521222671235
505.39682999933814
505.6393984079073
505.8796262794891
506.1173138272371
506.35226282825363
506.5842767712871
506.81316101433345
507.03872295180145
507.2607721908665
507.4791207365659
507.6935831850785
507.90397692457384
508.1101223429697
508.3118430418379
508.50896605566425
508.7013220756626
508.8887456772451
509.07107555016216
509.2481547302668
509.41983083185926
509.58595627962956
509.74638853924216
509.90099034564406
510.0496299281846
510.19218123165774
510.3285241324336
510.4585446488864
510.5821351453417
510.6991945287555
510.809628437327
510.9133494202331
511.01027710771035
511.1003383707881
511.18346747004216
511.2596061927596
511.32870397795017
511.3907180287258
511.44561341161176
511.49336314237155
511.53394825798205
511.5673578744645
511.5935892303416
511.6126477155387
511.6245468855666
511.62930846085186
511.6269623111585
511.6175464251576
511.6011068652329
511.57769770762036
511.54738096806847
511.5102265132714
511.46631195833055
511.4157225504936
511.3585510394508
511.29489753452384
511.2248693491529
511.14858083315227
511.0661531932378
510.97771430231865
510.8833984980482
510.78334637112886
510.67770454384424
510.56662543933004
510.45026704212944
510.3287926506175
510.20237062192206
510.0711741099871
509.9353807973879
509.7951726215383
509.6507354959703
509.50225902731904
509.34993622861924
509.19396322955964
509.0345389843558
508.87186497786263
508.7061449305793
508.5375845031623
508.3663910010437
508.19277307973607
508.0169404513795
507.8391035930007
507.65947345692683
507.47826118385444
507.2956778191092
507.11193403255334
506.92723984252325
506.7418043441595
506.5558354424902
506.36953959064584
506.1831215336032
505.9967840578311
505.810727747149
505.62515074504387
505.4402485236835
505.2562136598896
505.07323561830765
504.8915005419384
504.71119105015464
504.53248604434526
504.35556052131557
504.1805853945266
504.0077273232338
503.83714854958816
503.669006743797
503.5034548574654
503.340640985244
503.1807082348649
503.02379460556597
502.8700328748795
502.71955049376584
502.57246949008936
502.4289063804264
502.2889720901847
502.1527718820633
502.0204052928686
501.89196607864864
501.7675421681059
501.64721562422204
501.5310626139532
501.4191533858298
501.3115522553703
501.20831759831685
501.1095018516842
501.0151515225366
500.9253072043906
500.84000360112674
500.7592695582766
500.6831281016132
500.61159648298815
500.54468623329444
500.48240322236956
500.42474772561764
500.3717144971584
500.32329284936526
500.2794667386716
500.2402148575342
500.20551073239886
500.17532282746066
500.1496146540053
500.1283448850965
500.11146747534644
500.0989317854759
500.0906827113658
500.08666081735754
500.0868024735524
500.0910399968732
500.09930179570586
500.1115125179483
500.1275932022681
500.14746143234646
500.1710314938439
500.198214533783
500.22891872200654
500.2630494143663
500.30050931738134
500.3411986541413
500.3850153311801
500.4318551060059
500.4816117549782
500.5341772412247
500.58944188226
500.64729451693836
500.70762267140566
500.7703127238071
500.835250067529
500.90231927272185
500.971404245875
501.0423883873006
501.11515474640913
501.18958617461936
501.26556547566605
501.3429755530917
501.4216995547541
501.50162101419517
501.58262398871676
501.6645931939903
501.74741413504023
501.8309732335005
501.91515795108995
501.99985690926843
502.08496000506443
502.1703585230514
502.255945243433
502.3416145462054
502.42726251138
502.51278701526167
502.59808782275
502.6830666756396
502.76762737694526
502.8516758713224
502.9351203216686
503.01787118198234
503.0998412665514
503.18094581554135
503.2611025570217
503.34023176541757
503.4182563164003
503.4951017382909
503.57069626005546
503.64497085595957
503.7178592869645
503.7892981389197
503.8592268575985
503.92758778060613
503.9943261661529
504.0593902186298
504.1227311109037
504.1843030033037
504.2440630593342
504.30197145816874
504.35799140394937
504.4120891319579
504.46423391172675
504.5143980471083
504.5625568732567
504.60868875044065
504.6527750545752
504.69480016438774
504.73475144513844
504.77261922882724
504.80839679084676
504.8420803230336
504.87366890300524
504.9031644596632
504.9305717347975
504.9558982407478
504.97915421411324
505.00035256553014
505.01950882547993
505.0366410860713
505.05176993880957
505.06491840840994
505.07611188263184
505.0853780380801
505.09274676199806
505.0982500701449
505.10192202082754
505.10379862517834
505.10391775377894
505.1023190397395
505.09904377834994
505.09413482348896
505.08763648104576
505.0795943996148
505.07005545869555
505.059067654621
505.0466799844975
505.03294232849555
505.01790533080816
505.00162027958424
504.98413898618315
504.9655136641077
504.9457968079275
504.9250410725015
504.9032991528496
504.88062366504835
504.85706702852974
504.8326813502329
504.80751831107295
504.78162905516183
504.75506408221884
504.7278731436048
504.70010514234986
504.67180803747067
504.6430287528549
504.6138130910322
504.5842056521639
504.55424975857886
504.5239873851778
504.49345909603517
504.4627039874771
504.43175963780567
504.4006620638059
504.36944568419193
504.33814329013575
504.306786023014
504.2754033595149
504.2440231041562
504.2126713891621
504.181372681608
504.1501497977343
504.11902392437264
504.08801464740617
504.05713998707455
504.0264164398391
503.99585902646277
503.96548134593485
503.9352956348692
503.905312832046
503.875542647836
503.84599363828323
503.8166732835698
503.78758807048007
503.75874357839143
503.73014456831004
503.7017950743762
503.673698497175
503.6458576982089
503.61827509492446
503.59095275571303
503.56389249435193
503.53709596338
503.5105647459425
503.4843004456415
503.45830477387545
503.4325796341443
503.4071272028425
503.38195000610915
503.3570509922828
503.3324335995395
503.30810181837285
503.2840602486132
503.260314150673
503.2368694907108
503.21373297945667
503.1909121044864
503.1684151557192
503.1462512439315
503.1244303121417
503.1029631398245
503.08186133996315
503.0611373489595
503.0408044094382
503.0208765460435
503.0013685343891
502.98229586336714
502.9636746910681
502.9455217945935
502.92785451405456
502.9106906910591
502.8940486020021
502.8779468865383
502.8624044716541
502.84744049177425
502.8330742053479
502.81932490835754
502.806211845226
502.7937541176172
502.78197059161323
502.77087980375063
502.7604998664283
502.7508483731811
502.7419423042862
502.73379793321106
502.72643073447614
502.71985529354765
502.714085219353
502.7091330599534
502.7050102218621
502.70172689342434
502.69929197261575
502.69771299966175
502.6969960948773
502.6971459021084
502.6981655381239
502.7000565482959
502.7028188688756
502.7064507960744
502.7109489620306
502.7163083177101
502.72252212280205
502.7295819426448
502.737477652155
502.7461974467591
502.75572786035445
502.76605379028234
502.7771585292625
502.78902380419254
502.8016298216504
502.8149553199305
502.8289776274139
502.8436727270065
502.85901532633585
502.8749789333752
502.8915359371209
502.9086576929065
502.9263146119013
502.94447625435924
502.9631114262251
502.9821882787193
503.0016744104423
503.0215369715152
503.04174276933816
503.0622583755805
503.08305023394064
503.1040847681428
503.1253284896869
503.1467481049042
503.16831062087164
503.18998344977075
503.2117345113161
503.23353233286116
503.2553461467468
503.27714598445544
503.2989027671794
503.32058839244723
503.34217581647397
503.36363913190223
503.38495364063795
503.4060959215435
503.4270438927816
503.4477768686327
503.46827561064583
503.4885223730231
503.50850094210284
503.5281966698102
503.5475965009596
503.5666889942847
503.5854643371126
503.60391435368723
503.6220325071432
503.63981389514095
503.6572552392632
503.67435486833756
503.6911126958775
503.7075301918242
503.7236103487624
503.73935764281475
503.7547779894498
503.7698786944198
503.7846684000384
503.7991570270648
503.8133557124714
503.8272767433369
503.84093348711315
503.8543403184572
503.86751254279227
503.8804663168621
503.8932185666681
503.90578690320825
503.9181895364345
503.930445187786
503.94257300159705
503.954592455694
503.9665232715244
503.9783853241786
503.99019855265976
504.00198287074244
504.013758078684
504.0255437759901
504.03735927540913
504.0492235183639
504.0611549921066
504.0731716489088
504.0852908275751
504.09752917756924
504.1099025860261
504.1224261078772
504.13511389928726
504.1479791545596
504.16103404658514
504.1742896709478
504.1877559938377
504.20144180391173
504.21535466819887
504.2295008921276
504.2438854837497
504.2585121222049
504.27338313045755
504.288499452312
504.303860633704
504.31946480832016
504.3353086875881
504.35138755502044
504.367695264838
504.3842242448623
504.40096550368395
504.41790864208036
504.43504186858064
504.45235201904075
504.4698245801169
504.4874437165467
504.5051923021383
504.523051954344
504.54100307223064
504.5590248776731
504.57709545963917
504.5951918213959
504.61328993043116
504.63136477094355
504.6493903987549
504.667339998469
504.6851859427073
504.7028998532988
504.7204526643318
504.7378146869677
504.754955675893
504.77184489724027
504.7884511978329
504.8047430755821
504.82068875082894
504.83625623846416
504.8514134207094
504.86612812041346
504.8803681747149
504.89410150889694
504.90729621025
504.9199206017447
504.93194331533977
504.9433333647767
504.9540602177349
504.9640938672091
504.9734049019068
504.98196457548187
504.98974487450477
504.99671858507776
505.0028593579682
505.00814177215165
505.01254139671903
505.01603485112093
505.01859986370164
505.0202153284664
505.02086136002725
505.02051934661245
505.019172000977
505.016803409082
505.0133990764262
505.00894597192234
505.0034325692199
504.99684888534796
504.98918651653804
504.9804386711552
504.97060019970553
504.9596676218812
504.9476391505687
504.93451471273164
504.92029596708403
504.9049863184493
504.88859092875003
504.87111672463203
504.8525724017514
504.83296842569064
504.8123170294022
504.7906322070965
504.76792970455773
504.74422700595187
504.7195433171715
504.6938995457377
504.667318277292
504.6398237486581
504.6114418173979
504.5821999278275
504.552127073566
504.5212537567706
504.4896119441769
504.45723502004785
504.42415773611816
504.3904161586058
504.3560476123571
504.32109062225686
504.2855848520715
504.2495710408873
504.2130909373122
504.17618723160217
504.1389034858956
504.1012840627732
504.06337405239015
504.02521919844105
503.9868658232078
503.9483607519046
503.9097512365436
503.8710848795559
503.8324095574029
503.7937733444449
503.75522443733246
503.71681108020533
503.6785814910044
503.64058378916627
503.60286592494845
503.5654756106461
503.52846025397
503.4918668938479
503.4557421389484
503.4201321092621
503.38508238107
503.3506379356479
503.31684311204907
503.2837415641785
503.2513762222051
503.21978925833656
503.18902205701613
503.15911518962236
503.13010839373555
503.1020405570467
503.0749497059727
503.04887299897575
503.02384672454
502.99990630373327
502.9770862972996
502.9554204172349
502.93494154275925
502.9156817405254
502.89767228880453
502.8809437053359
502.8655257784877
502.85144760136154
502.83873760846706
502.82742361459265
502.8175328554901
502.80909203001886
502.8021273433991
502.79666455114716
502.7927290031507
502.7903456873048
502.7895392721732
502.7903341481445
502.79275446652355
502.79682417600196
502.8025670559873
502.81000674628916
502.8191667726071
502.83007056721056
502.84274148425163
502.8572028092799
502.8734777625412
502.89158949555497
502.91156108042503
502.9334154913785
502.9571755781178
502.9828640306316
503.01050333515553
503.0401157210279
503.0717230982335
503.10534698549344
503.14100842889167
503.17872791107914
503.2185252510743
503.26041949474023
503.3044287960855
503.3505702895896
503.39885995382696
503.4493124667335
503.5019410529278
503.55675732356025
503.6137711092025
503.6729902863631
503.73442059830495
503.79806547094626
503.8639258246866
503.93199988305605
504.00228297917033
504.07476736102126
504.149441996635
504.2262923801205
504.3053003396324
504.3864438483245
504.46969683942126
504.5550290265895
504.6424057308164
504.7317877150314
504.8231310277151
504.91638685669017
505.01150139431695
505.1084157153147
505.20706566833417
505.3073817824069
505.4092891894365
505.5127075638979
505.61755108085873
505.72372839336134
505.8311426301611
505.93969141478425
506.0492669067724
506.1597558658926
506.2710397400457
506.38299477752395
506.49549216416875
506.6083981858659
506.72157441668
506.83487793282245
506.9481615525286
507.06127410176333
507.17406070557814
507.28636310482005
507.3980199977556
507.50886740609144
507.6187390648253
507.7274668352465
507.83488114018513
507.9408114204301
508.0450866111607
508.14753563718165
508.24798792565065
508.3462739348704
508.44222569756613
508.535677376924
508.62646583356997
508.7144312016127
508.79941747179464
508.8812730797463
508.9598514972749
509.0350118245433
509.1066193808285
509.1745462914558
509.2386720685144
509.29888418294337
509.35507862554783
509.407160454573
509.4550443275543
509.49865501506787
509.53792789391304
509.57280941724525
509.6032575592002
509.62924223160815
509.6507456704442
509.66776278971435
509.6803015005724
509.68838299355025
509.69204198186986
509.69132690392723
509.6863000831501
509.6770378435731
509.66363057954914
509.6461827781016
509.6248129925989
509.5996537665881
509.57085150676323
509.53856630423985
509.5029717035188
509.46425441870963
509.4226139967555
509.3782624275791
509.33142370123164
509.28233331229774
509.23123771202575
509.17839370888754
509.1240678184513
509.068535563709
509.01208072730896
508.95499455739014
508.8975749288279
508.84012546187734
508.7829546004508
508.72637465247357
508.67070079491026
508.6162500462565
508.5633402094948
508.512288788704
508.4634118826712
508.4170230589946
508.3734322123013
508.3329444103652
508.29585873210505
508.2624671015818
508.23305312218673
508.2078909153048
508.1872439678175
508.17136399285386
508.16048980819886
508.1548462367561
508.15464303347574
508.1600738431654
508.17131519359725
508.18852552829907
508.21184428331907
508.2413910121851
508.2772645631983
508.3195423130719
508.3682794607563
508.42350838513124
508.48523807010025
508.55345360043236
508.6281157314203
508.709160535126
508.79649912577804
508.8900174667248
508.98957626113344
509.09501092832346
509.20613166724905
509.3227236083226
509.4445470544461
509.5713378117609
509.7028076102952
509.8386446143394
509.97851402198864
510.1220587529344
510.26890022320623
510.41863920521786
510.5708567711438
510.7251153172992
510.8809596668505
511.03791824785895
511.19550434329796
511.35321740930897
511.51054445763896
511.6669614978861
511.8219350348849
511.9749236163158
512.125379425407
512.2727499133466
512.4164794657395
512.5560110972317
512.6907881683129
512.8202561182587
512.943864208086
513.0610672672594
513.1713274378221
513.2741159095617
513.368914639829
513.4552180516554
513.532534703842
513.6003889267965
513.6583224180328
513.7058957913767
513.7426900740896
513.7683081462417
513.7823761168116
513.7845446311885
513.7744901049742
513.751915879287
513.7165532929805
513.6681626674642
513.6065342002555
513.5314887638565
513.4428786069135
513.3405879549446
513.2245335083217
513.0946648356343
512.9509646610368
512.7934490446612
512.622167455677
512.4372027380476
512.2386709694783
512.0267212145296
511.80153517336134
511.56332672788517
511.3123413873782
511.04885563597287
510.7731761848465
510.4856391323091
510.18660903533527
509.8764778964649
509.5556640703475
509.22461109448125
508.8837864490129
508.53368025075287
508.1748038867507
507.80768859294596
507.43288398357237
507.0509565371349
506.66248804492204
506.2680740281031
505.86832212954914
505.46385048656896
505.05528609070524
504.6432631406947
504.22842139463336
503.8114045272141
503.39285849768675
502.973429934083
502.5537645391797
502.13450552355295
501.7162920709334
501.29975784086474
500.8855295134481
500.47422538071936
500.0664539888702
499.6628128351636
499.26388712306345
498.8702485787504
498.482454331887
498.1010458631675
497.7265480208988
497.35946810855324
497.00029504480455
496.6494985971733
496.3075286900676
495.97481478767645
495.65176535182826
495.33876737458246
495.0361859850293
494.7443641294923
494.46362232407074
494.1942584781758
493.93654778741364
493.69074269389876
493.4570729118652
493.2357455162358
493.0269450915456
492.83083393840724
492.64755233459744
492.47721884772284
492.3199306962355
492.1757641554424
492.0447750051125
491.9269990152385
491.82245246648097
491.7311327018117
491.65301870582863
491.5880717081953
491.53623580770585
491.4974386135562
491.4715919004395
491.4585922741563
491.458321844564
491.47064890283895
491.4954286001509
491.532503624983
491.58170487643093
491.6428521309529
491.7157547002023
491.8002120777495
491.89601457269146
492.00294392834246
492.12077392438545
492.24927096099924
492.3881946236634
492.53729822752115
492.69632934037196
492.8650302835713
493.043138610283
493.2303875606957
493.4265064939967
493.63122129706727
493.8442547699838
494.06532698852254
494.29415564394225
494.53045636046096
494.77394299104037
495.02432789218904
495.28132217857024
495.54463595832084
495.81397855005525
496.08905868255306
496.3695846781487
496.6552646209028
496.94580651075677
497.2409184049317
497.54030854781456
497.8436854905692
498.15075820167806
498.4612361695836
498.7748294985756
499.0912489990993
499.4102062736498
499.73141379941376
500.0545850087762
500.3794343687011
500.70567745988706
501.0330310565848
501.3612132079607
501.6899433218325
502.01894225149914
502.3479323862586
502.67663774615124
503.00478408142277
503.33209897713334
503.6583119632544
503.983154630517
504.30636075218166
504.6276664118258
504.9468101371853
505.2635330399952
505.57757896170335
505.88869462486707
506.1966297900039
506.501137417637
506.80197383521687
507.0988989085849
507.3916762176481
507.68007323597305
507.9638615140089
508.24281686552274
508.5167195566884
508.78535449729367
509.048511433613
509.3059851424336
509.5575756256539
509.80308830484637
510.04233421517955
510.2751301980506
510.50129909178315
510.72066991970036
510.93307807481085
511.1383655003484
511.3363808655233
511.52697973595355
511.71002473827633
511.8853857184605
512.0529398933755
512.2125719951712
512.3641744080037
512.5076472966581
512.6428987266577
512.769844775457
512.8884096343198
512.9985257005495
513.1001336597377
513.1931825577276
513.2776298620195
513.3534415124041
513.4205919606339
513.4790641989784
513.5288497774868
513.5699488098335
513.6023699676501
513.6261304633197
513.6412560212954
513.6477808380532
513.6457475307927
513.6352070750171
513.6162187311267
513.5888499601521
513.5531763287203
513.5092814033525
513.4572566341442
513.3972012279279
513.3292220111301
513.2534332826036
513.1699566567698
513.0789208973895
512.9804617422529
512.8747217190783
512.7618499529004
512.6420019653186
512.5153394660379
512.382030137146
512.2422474105487
512.0961702389602
511.9439828608493
511.7858745597315
511.6220394181756
