# OpenSignals Text File Format. Version 1
# {"98:D3:41:FD:4F:50": {"position": 0, "device": "bitalino_rev", "device name": "98:D3:41:FD:4F:50", "device connection": "BTH98:D3:41:FD:4F:50", "sampling rate": 1000, "resolution": [4, 1, 1, 1, 1, 10, 10], "firmware version": 1282, "comments": "", "keywords": "", "mode": 0, "sync interval": 2, "date": "2025-7-2", "time": "12:22:44.503", "channels": [1, 2], "sensor": ["EMGBITREV", "ECGBIT"], "label": ["A1", "A2"], "column": ["nSeq", "I1", "I2", "O1", "O2", "A1", "A2"], "special": [{}, {}], "digital IO": [0, 0, 1, 1]}}
# EndOfHeader
0	0	0	0	0	505	586	
1	0	0	0	0	507	584	
2	0	0	0	0	511	585	
3	0	0	0	0	510	587	
4	0	0	0	0	503	587	
5	0	0	0	0	510	587	
6	0	0	0	0	512	589	
7	0	0	0	0	504	591	
8	0	0	0	0	507	593	
9	0	0	0	0	505	596	
10	0	0	0	0	511	603	
11	0	0	0	0	507	608	
12	0	0	0	0	507	608	
13	0	0	0	0	504	604	
14	0	0	0	0	514	603	
15	0	0	0	0	520	597	
0	0	0	0	0	519	591	
1	0	0	0	0	513	584	
2	0	0	0	0	509	582	
3	0	0	0	0	515	582	
4	0	0	0	0	516	585	
5	0	0	0	0	520	592	
6	0	0	0	0	515	595	
7	0	0	0	0	510	596	
8	0	0	0	0	502	595	
9	0	0	0	0	505	596	
10	0	0	0	0	510	601	
11	0	0	0	0	510	611	
12	0	0	0	0	511	615	
13	0	0	0	0	503	615	
14	0	0	0	0	504	614	
15	0	0	0	0	503	608	
0	0	0	0	0	505	601	
1	0	0	0	0	508	593	
2	0	0	0	0	504	589	
3	0	0	0	0	504	589	
4	0	0	0	0	507	590	
5	0	0	0	0	505	592	
6	0	0	0	0	508	593	
7	0	0	0	0	509	595	
8	0	0	0	0	511	595	
9	0	0	0	0	518	598	
10	0	0	0	0	514	603	
11	0	0	0	0	513	609	
12	0	0	0	0	513	617	
13	0	0	0	0	514	617	
14	0	0	0	0	518	614	
15	0	0	0	0	517	611	
0	0	0	0	0	509	606	
1	0	0	0	0	510	600	
2	0	0	0	0	512	595	
3	0	0	0	0	510	595	
4	0	0	0	0	511	595	
5	0	0	0	0	508	596	
6	0	0	0	0	507	599	
7	0	0	0	0	509	600	
8	0	0	0	0	512	601	
9	0	0	0	0	511	602	
10	0	0	0	0	513	605	
11	0	0	0	0	514	611	
12	0	0	0	0	512	615	
13	0	0	0	0	507	617	
14	0	0	0	0	504	615	
15	0	0	0	0	503	612	
0	0	0	0	0	502	611	
1	0	0	0	0	509	605	
2	0	0	0	0	512	598	
3	0	0	0	0	508	590	
4	0	0	0	0	504	588	
5	0	0	0	0	507	591	
6	0	0	0	0	516	596	
7	0	0	0	0	510	600	
8	0	0	0	0	505	604	
9	0	0	0	0	505	607	
10	0	0	0	0	505	610	
11	0	0	0	0	508	610	
12	0	0	0	0	506	614	
13	0	0	0	0	504	625	
14	0	0	0	0	510	628	
15	0	0	0	0	504	626	
0	0	0	0	0	505	623	
1	0	0	0	0	504	616	
2	0	0	0	0	508	606	
3	0	0	0	0	514	596	
4	0	0	0	0	518	590	
5	0	0	0	0	516	588	
6	0	0	0	0	512	585	
7	0	0	0	0	512	583	
8	0	0	0	0	515	582	
9	0	0	0	0	512	582	
10	0	0	0	0	514	579	
11	0	0	0	0	515	578	
12	0	0	0	0	514	581	
13	0	0	0	0	511	585	
14	0	0	0	0	513	590	
15	0	0	0	0	509	589	
0	0	0	0	0	504	588	
1	0	0	0	0	508	585	
2	0	0	0	0	504	579	
3	0	0	0	0	504	570	
4	0	0	0	0	507	562	
5	0	0	0	0	506	560	
6	0	0	0	0	510	558	
7	0	0	0	0	509	555	
8	0	0	0	0	506	552	
9	0	0	0	0	508	549	
10	0	0	0	0	508	545	
11	0	0	0	0	513	540	
12	0	0	0	0	511	535	
13	0	0	0	0	510	536	
14	0	0	0	0	509	539	
15	0	0	0	0	509	542	
0	0	0	0	0	512	540	
1	0	0	0	0	505	538	
2	0	0	0	0	508	536	
3	0	0	0	0	501	529	
4	0	0	0	0	509	522	
5	0	0	0	0	510	517	
6	0	0	0	0	507	515	
7	0	0	0	0	505	515	
8	0	0	0	0	508	514	
9	0	0	0	0	504	514	
10	0	0	0	0	505	513	
11	0	0	0	0	504	510	
12	0	0	0	0	506	510	
13	0	0	0	0	512	509	
14	0	0	0	0	516	513	
15	0	0	0	0	514	522	
0	0	0	0	0	516	527	
1	0	0	0	0	509	526	
2	0	0	0	0	504	524	
3	0	0	0	0	501	520	
4	0	0	0	0	510	514	
5	0	0	0	0	513	507	
6	0	0	0	0	510	503	
7	0	0	0	0	512	504	
8	0	0	0	0	511	505	
9	0	0	0	0	512	504	
10	0	0	0	0	514	500	
11	0	0	0	0	508	499	
12	0	0	0	0	510	499	
13	0	0	0	0	508	498	
14	0	0	0	0	512	500	
15	0	0	0	0	513	506	
0	0	0	0	0	510	513	
1	0	0	0	0	513	514	
2	0	0	0	0	511	512	
3	0	0	0	0	508	509	
4	0	0	0	0	507	502	
5	0	0	0	0	506	496	
6	0	0	0	0	506	490	
7	0	0	0	0	505	488	
8	0	0	0	0	511	487	
9	0	0	0	0	510	486	
10	0	0	0	0	510	486	
11	0	0	0	0	511	487	
12	0	0	0	0	511	488	
13	0	0	0	0	509	488	
14	0	0	0	0	509	491	
15	0	0	0	0	510	497	
0	0	0	0	0	510	504	
1	0	0	0	0	513	509	
2	0	0	0	0	513	510	
3	0	0	0	0	511	508	
4	0	0	0	0	503	506	
5	0	0	0	0	505	500	
6	0	0	0	0	509	494	
7	0	0	0	0	512	487	
8	0	0	0	0	510	484	
9	0	0	0	0	510	484	
10	0	0	0	0	508	484	
11	0	0	0	0	511	483	
12	0	0	0	0	508	485	
13	0	0	0	0	509	487	
14	0	0	0	0	506	486	
15	0	0	0	0	505	489	
0	0	0	0	0	511	496	
1	0	0	0	0	509	502	
2	0	0	0	0	511	507	
3	0	0	0	0	514	508	
4	0	0	0	0	511	506	
5	0	0	0	0	510	502	
6	0	0	0	0	508	499	
7	0	0	0	0	508	495	
8	0	0	0	0	508	489	
9	0	0	0	0	511	487	
10	0	0	0	0	513	486	
11	0	0	0	0	511	487	
12	0	0	0	0	512	489	
13	0	0	0	0	509	491	
14	0	0	0	0	508	492	
15	0	0	0	0	512	492	
0	0	0	0	0	515	495	
1	0	0	0	0	515	502	
2	0	0	0	0	511	508	
3	0	0	0	0	511	510	
4	0	0	0	0	510	509	
5	0	0	0	0	504	508	
6	0	0	0	0	504	501	
7	0	0	0	0	504	492	
8	0	0	0	0	507	483	
9	0	0	0	0	506	484	
10	0	0	0	0	508	486	
11	0	0	0	0	508	485	
12	0	0	0	0	510	484	
13	0	0	0	0	511	484	
14	0	0	0	0	516	484	
15	0	0	0	0	509	483	
0	0	0	0	0	510	484	
1	0	0	0	0	518	488	
2	0	0	0	0	513	495	
3	0	0	0	0	504	503	
4	0	0	0	0	509	505	
5	0	0	0	0	509	504	
6	0	0	0	0	503	503	
7	0	0	0	0	500	497	
8	0	0	0	0	509	492	
9	0	0	0	0	512	487	
10	0	0	0	0	509	486	
11	0	0	0	0	512	486	
12	0	0	0	0	518	487	
13	0	0	0	0	519	487	
14	0	0	0	0	517	486	
15	0	0	0	0	514	485	
0	0	0	0	0	513	485	
1	0	0	0	0	514	485	
2	0	0	0	0	521	492	
3	0	0	0	0	508	500	
4	0	0	0	0	506	502	
5	0	0	0	0	503	500	
6	0	0	0	0	502	499	
7	0	0	0	0	499	497	
8	0	0	0	0	503	491	
9	0	0	0	0	504	487	
10	0	0	0	0	504	483	
11	0	0	0	0	504	485	
12	0	0	0	0	505	487	
13	0	0	0	0	509	486	
14	0	0	0	0	513	484	
15	0	0	0	0	508	480	
0	0	0	0	0	511	480	
1	0	0	0	0	513	479	
2	0	0	0	0	515	479	
3	0	0	0	0	516	482	
4	0	0	0	0	508	490	
5	0	0	0	0	508	492	
6	0	0	0	0	504	495	
7	0	0	0	0	502	495	
8	0	0	0	0	499	489	
9	0	0	0	0	504	484	
10	0	0	0	0	516	481	
11	0	0	0	0	517	478	
12	0	0	0	0	507	476	
13	0	0	0	0	510	477	
14	0	0	0	0	511	479	
15	0	0	0	0	511	481	
0	0	0	0	0	511	483	
1	0	0	0	0	503	483	
2	0	0	0	0	506	485	
3	0	0	0	0	510	490	
4	0	0	0	0	511	497	
5	0	0	0	0	513	505	
6	0	0	0	0	509	508	
7	0	0	0	0	510	509	
8	0	0	0	0	507	507	
9	0	0	0	0	499	502	
10	0	0	0	0	505	497	
11	0	0	0	0	510	494	
12	0	0	0	0	508	492	
13	0	0	0	0	507	492	
14	0	0	0	0	507	494	
15	0	0	0	0	510	495	
0	0	0	0	0	510	495	
1	0	0	0	0	511	495	
2	0	0	0	0	518	497	
3	0	0	0	0	515	501	
4	0	0	0	0	516	506	
5	0	0	0	0	510	512	
6	0	0	0	0	510	515	
7	0	0	0	0	507	516	
8	0	0	0	0	507	514	
9	0	0	0	0	506	509	
10	0	0	0	0	505	500	
11	0	0	0	0	512	494	
12	0	0	0	0	515	487	
13	0	0	0	0	512	483	
14	0	0	0	0	507	483	
15	0	0	0	0	509	484	
0	0	0	0	0	514	485	
1	0	0	0	0	510	488	
2	0	0	0	0	507	489	
3	0	0	0	0	511	491	
4	0	0	0	0	510	493	
5	0	0	0	0	511	497	
6	0	0	0	0	509	502	
7	0	0	0	0	509	505	
8	0	0	0	0	504	507	
9	0	0	0	0	508	508	
10	0	0	0	0	509	503	
11	0	0	0	0	509	497	
12	0	0	0	0	510	492	
13	0	0	0	0	510	489	
14	0	0	0	0	512	489	
15	0	0	0	0	512	488	
0	0	0	0	0	515	489	
1	0	0	0	0	513	487	
2	0	0	0	0	510	487	
3	0	0	0	0	512	486	
4	0	0	0	0	510	488	
5	0	0	0	0	513	492	
6	0	0	0	0	511	499	
7	0	0	0	0	508	507	
8	0	0	0	0	508	509	
9	0	0	0	0	506	511	
10	0	0	0	0	503	510	
11	0	0	0	0	506	507	
12	0	0	0	0	509	501	
13	0	0	0	0	510	496	
14	0	0	0	0	512	497	
15	0	0	0	0	510	497	
0	0	0	0	0	507	497	
1	0	0	0	0	513	497	
2	0	0	0	0	513	497	
3	0	0	0	0	510	498	
4	0	0	0	0	511	499	
5	0	0	0	0	517	500	
6	0	0	0	0	515	505	
7	0	0	0	0	511	512	
8	0	0	0	0	521	512	
9	0	0	0	0	523	511	
10	0	0	0	0	519	510	
11	0	0	0	0	512	506	
12	0	0	0	0	514	500	
13	0	0	0	0	513	496	
14	0	0	0	0	514	494	
15	0	0	0	0	512	496	
0	0	0	0	0	508	500	
1	0	0	0	0	515	505	
2	0	0	0	0	515	510	
3	0	0	0	0	514	515	
4	0	0	0	0	514	517	
5	0	0	0	0	512	521	
6	0	0	0	0	512	527	
7	0	0	0	0	510	534	
8	0	0	0	0	500	543	
9	0	0	0	0	496	545	
10	0	0	0	0	500	546	
11	0	0	0	0	491	548	
12	0	0	0	0	491	547	
13	0	0	0	0	494	543	
14	0	0	0	0	494	543	
15	0	0	0	0	494	544	
0	0	0	0	0	485	551	
1	0	0	0	0	486	560	
2	0	0	0	0	484	569	
3	0	0	0	0	482	576	
4	0	0	0	0	483	580	
5	0	0	0	0	490	582	
6	0	0	0	0	489	584	
7	0	0	0	0	489	591	
8	0	0	0	0	495	600	
9	0	0	0	0	502	599	
10	0	0	0	0	507	595	
11	0	0	0	0	512	590	
12	0	0	0	0	514	581	
13	0	0	0	0	516	567	
14	0	0	0	0	522	553	
15	0	0	0	0	535	537	
0	0	0	0	0	527	526	
1	0	0	0	0	529	516	
2	0	0	0	0	532	505	
3	0	0	0	0	534	496	
4	0	0	0	0	533	489	
5	0	0	0	0	532	482	
6	0	0	0	0	531	476	
7	0	0	0	0	532	476	
8	0	0	0	0	522	478	
9	0	0	0	0	515	486	
10	0	0	0	0	510	490	
11	0	0	0	0	510	494	
12	0	0	0	0	511	497	
13	0	0	0	0	504	496	
14	0	0	0	0	502	493	
15	0	0	0	0	509	489	
0	0	0	0	0	511	489	
1	0	0	0	0	511	494	
2	0	0	0	0	510	499	
3	0	0	0	0	513	504	
4	0	0	0	0	515	508	
5	0	0	0	0	515	513	
6	0	0	0	0	515	517	
7	0	0	0	0	515	522	
8	0	0	0	0	519	528	
9	0	0	0	0	519	538	
10	0	0	0	0	518	548	
11	0	0	0	0	517	553	
12	0	0	0	0	512	558	
13	0	0	0	0	510	560	
14	0	0	0	0	504	558	
15	0	0	0	0	507	552	
0	0	0	0	0	516	547	
1	0	0	0	0	518	544	
2	0	0	0	0	511	544	
3	0	0	0	0	512	544	
4	0	0	0	0	511	547	
5	0	0	0	0	512	549	
6	0	0	0	0	513	550	
7	0	0	0	0	506	552	
8	0	0	0	0	511	554	
9	0	0	0	0	508	558	
10	0	0	0	0	503	567	
11	0	0	0	0	509	574	
12	0	0	0	0	503	575	
13	0	0	0	0	507	575	
14	0	0	0	0	504	571	
15	0	0	0	0	505	567	
0	0	0	0	0	507	562	
1	0	0	0	0	506	556	
2	0	0	0	0	508	553	
3	0	0	0	0	502	553	
4	0	0	0	0	505	555	
5	0	0	0	0	499	556	
6	0	0	0	0	512	556	
7	0	0	0	0	509	559	
8	0	0	0	0	504	560	
9	0	0	0	0	507	563	
10	0	0	0	0	507	569	
11	0	0	0	0	508	579	
12	0	0	0	0	511	585	
13	0	0	0	0	510	584	
14	0	0	0	0	509	583	
15	0	0	0	0	506	578	
0	0	0	0	0	504	572	
1	0	0	0	0	507	568	
2	0	0	0	0	508	561	
3	0	0	0	0	507	562	
4	0	0	0	0	505	562	
5	0	0	0	0	506	563	
6	0	0	0	0	511	564	
7	0	0	0	0	508	565	
8	0	0	0	0	509	566	
9	0	0	0	0	511	568	
10	0	0	0	0	512	572	
11	0	0	0	0	512	579	
12	0	0	0	0	510	588	
13	0	0	0	0	510	590	
14	0	0	0	0	512	591	
15	0	0	0	0	504	591	
0	0	0	0	0	506	585	
1	0	0	0	0	511	577	
2	0	0	0	0	510	571	
3	0	0	0	0	513	566	
4	0	0	0	0	507	566	
5	0	0	0	0	507	565	
6	0	0	0	0	511	566	
7	0	0	0	0	511	566	
8	0	0	0	0	511	567	
9	0	0	0	0	509	568	
10	0	0	0	0	508	568	
11	0	0	0	0	507	572	
12	0	0	0	0	511	581	
13	0	0	0	0	512	585	
14	0	0	0	0	509	586	
15	0	0	0	0	512	587	
0	0	0	0	0	508	584	
1	0	0	0	0	504	579	
2	0	0	0	0	507	575	
3	0	0	0	0	512	571	
4	0	0	0	0	507	568	
5	0	0	0	0	506	567	
6	0	0	0	0	511	568	
7	0	0	0	0	513	568	
8	0	0	0	0	513	568	
9	0	0	0	0	511	568	
10	0	0	0	0	508	569	
11	0	0	0	0	514	571	
12	0	0	0	0	512	576	
13	0	0	0	0	512	586	
14	0	0	0	0	511	589	
15	0	0	0	0	509	591	
0	0	0	0	0	506	592	
1	0	0	0	0	506	587	
2	0	0	0	0	512	579	
3	0	0	0	0	512	574	
4	0	0	0	0	512	569	
5	0	0	0	0	506	569	
6	0	0	0	0	512	571	
7	0	0	0	0	506	571	
8	0	0	0	0	508	571	
9	0	0	0	0	509	571	
10	0	0	0	0	510	573	
11	0	0	0	0	510	576	
12	0	0	0	0	513	580	
13	0	0	0	0	512	587	
14	0	0	0	0	511	593	
15	0	0	0	0	510	597	
0	0	0	0	0	511	598	
1	0	0	0	0	510	597	
2	0	0	0	0	508	590	
3	0	0	0	0	509	585	
4	0	0	0	0	511	579	
5	0	0	0	0	510	577	
6	0	0	0	0	510	577	
7	0	0	0	0	508	579	
8	0	0	0	0	508	581	
9	0	0	0	0	504	581	
10	0	0	0	0	506	583	
11	0	0	0	0	508	584	
12	0	0	0	0	511	584	
13	0	0	0	0	511	589	
14	0	0	0	0	502	599	
15	0	0	0	0	507	603	
0	0	0	0	0	512	604	
1	0	0	0	0	512	604	
2	0	0	0	0	508	600	
3	0	0	0	0	511	593	
4	0	0	0	0	512	586	
5	0	0	0	0	515	580	
6	0	0	0	0	512	578	
7	0	0	0	0	510	576	
8	0	0	0	0	508	574	
9	0	0	0	0	509	574	
10	0	0	0	0	509	575	
11	0	0	0	0	510	574	
12	0	0	0	0	509	574	
13	0	0	0	0	510	577	
14	0	0	0	0	510	580	
15	0	0	0	0	508	587	
0	0	0	0	0	509	588	
1	0	0	0	0	509	588	
2	0	0	0	0	508	587	
3	0	0	0	0	508	582	
4	0	0	0	0	510	572	
5	0	0	0	0	513	567	
6	0	0	0	0	508	563	
7	0	0	0	0	508	563	
8	0	0	0	0	510	560	
9	0	0	0	0	512	560	
10	0	0	0	0	510	560	
11	0	0	0	0	509	558	
12	0	0	0	0	506	557	
13	0	0	0	0	508	557	
14	0	0	0	0	514	559	
15	0	0	0	0	510	563	
0	0	0	0	0	510	567	
1	0	0	0	0	512	566	
2	0	0	0	0	510	562	
3	0	0	0	0	505	558	
4	0	0	0	0	507	551	
5	0	0	0	0	504	543	
6	0	0	0	0	506	537	
7	0	0	0	0	508	534	
8	0	0	0	0	510	533	
9	0	0	0	0	509	531	
10	0	0	0	0	508	530	
11	0	0	0	0	505	527	
12	0	0	0	0	511	524	
13	0	0	0	0	512	524	
14	0	0	0	0	508	523	
15	0	0	0	0	507	526	
0	0	0	0	0	508	530	
1	0	0	0	0	511	531	
2	0	0	0	0	510	529	
3	0	0	0	0	510	527	
4	0	0	0	0	506	522	
5	0	0	0	0	506	517	
6	0	0	0	0	509	510	
7	0	0	0	0	504	507	
8	0	0	0	0	511	504	
9	0	0	0	0	511	504	
10	0	0	0	0	514	503	
11	0	0	0	0	510	502	
12	0	0	0	0	509	501	
13	0	0	0	0	510	499	
14	0	0	0	0	510	497	
15	0	0	0	0	510	498	
0	0	0	0	0	511	500	
1	0	0	0	0	505	505	
2	0	0	0	0	509	504	
3	0	0	0	0	511	506	
4	0	0	0	0	509	506	
5	0	0	0	0	509	502	
6	0	0	0	0	508	495	
7	0	0	0	0	509	492	
8	0	0	0	0	506	492	
9	0	0	0	0	508	493	
10	0	0	0	0	511	494	
11	0	0	0	0	511	493	
12	0	0	0	0	515	491	
13	0	0	0	0	511	492	
14	0	0	0	0	510	493	
15	0	0	0	0	513	492	
0	0	0	0	0	512	495	
1	0	0	0	0	510	500	
2	0	0	0	0	509	505	
3	0	0	0	0	512	504	
4	0	0	0	0	511	502	
5	0	0	0	0	510	497	
6	0	0	0	0	509	492	
7	0	0	0	0	511	485	
8	0	0	0	0	505	482	
9	0	0	0	0	508	483	
10	0	0	0	0	508	486	
11	0	0	0	0	510	489	
12	0	0	0	0	512	490	
13	0	0	0	0	509	491	
14	0	0	0	0	511	491	
15	0	0	0	0	511	491	
0	0	0	0	0	510	492	
1	0	0	0	0	509	497	
2	0	0	0	0	505	505	
3	0	0	0	0	508	506	
4	0	0	0	0	507	505	
5	0	0	0	0	508	505	
6	0	0	0	0	504	500	
7	0	0	0	0	513	497	
8	0	0	0	0	512	490	
9	0	0	0	0	508	488	
10	0	0	0	0	508	489	
11	0	0	0	0	509	491	
12	0	0	0	0	509	491	
13	0	0	0	0	507	493	
14	0	0	0	0	505	495	
15	0	0	0	0	508	496	
0	0	0	0	0	509	496	
1	0	0	0	0	517	499	
2	0	0	0	0	516	501	
3	0	0	0	0	516	504	
4	0	0	0	0	509	505	
5	0	0	0	0	510	503	
6	0	0	0	0	511	501	
7	0	0	0	0	504	497	
8	0	0	0	0	509	494	
9	0	0	0	0	512	490	
10	0	0	0	0	511	489	
11	0	0	0	0	510	489	
12	0	0	0	0	505	492	
13	0	0	0	0	509	495	
14	0	0	0	0	511	494	
15	0	0	0	0	512	495	
0	0	0	0	0	511	494	
1	0	0	0	0	511	494	
2	0	0	0	0	513	497	
3	0	0	0	0	509	503	
4	0	0	0	0	512	507	
5	0	0	0	0	510	508	
6	0	0	0	0	514	507	
7	0	0	0	0	508	504	
8	0	0	0	0	503	498	
9	0	0	0	0	507	492	
10	0	0	0	0	508	487	
11	0	0	0	0	505	488	
12	0	0	0	0	506	489	
13	0	0	0	0	511	490	
14	0	0	0	0	510	492	
15	0	0	0	0	508	493	
0	0	0	0	0	510	495	
1	0	0	0	0	514	496	
2	0	0	0	0	511	497	
3	0	0	0	0	507	500	
4	0	0	0	0	512	508	
5	0	0	0	0	514	509	
6	0	0	0	0	508	509	
7	0	0	0	0	508	507	
8	0	0	0	0	505	504	
9	0	0	0	0	511	500	
10	0	0	0	0	515	495	
11	0	0	0	0	512	493	
12	0	0	0	0	513	493	
13	0	0	0	0	516	494	
14	0	0	0	0	519	493	
15	0	0	0	0	518	493	
0	0	0	0	0	515	493	
1	0	0	0	0	512	494	
2	0	0	0	0	511	493	
3	0	0	0	0	510	496	
4	0	0	0	0	508	501	
5	0	0	0	0	507	507	
6	0	0	0	0	506	507	
7	0	0	0	0	507	504	
8	0	0	0	0	505	501	
9	0	0	0	0	499	496	
10	0	0	0	0	500	491	
11	0	0	0	0	502	485	
12	0	0	0	0	504	485	
13	0	0	0	0	503	487	
14	0	0	0	0	505	489	
15	0	0	0	0	508	488	
0	0	0	0	0	509	487	
1	0	0	0	0	511	489	
2	0	0	0	0	511	489	
3	0	0	0	0	512	489	
4	0	0	0	0	513	491	
5	0	0	0	0	508	497	
6	0	0	0	0	509	498	
7	0	0	0	0	510	498	
8	0	0	0	0	513	497	
9	0	0	0	0	507	494	
10	0	0	0	0	509	490	
11	0	0	0	0	511	485	
12	0	0	0	0	508	484	
13	0	0	0	0	506	486	
14	0	0	0	0	508	485	
15	0	0	0	0	508	485	
0	0	0	0	0	509	485	
1	0	0	0	0	509	485	
2	0	0	0	0	509	485	
3	0	0	0	0	508	488	
4	0	0	0	0	509	492	
5	0	0	0	0	506	497	
6	0	0	0	0	507	503	
7	0	0	0	0	508	502	
8	0	0	0	0	508	500	
9	0	0	0	0	508	498	
10	0	0	0	0	505	494	
11	0	0	0	0	505	489	
12	0	0	0	0	507	483	
13	0	0	0	0	507	482	
14	0	0	0	0	515	483	
15	0	0	0	0	513	483	
0	0	0	0	0	511	485	
1	0	0	0	0	510	484	
2	0	0	0	0	508	486	
3	0	0	0	0	512	487	
4	0	0	0	0	513	487	
5	0	0	0	0	513	488	
6	0	0	0	0	508	495	
7	0	0	0	0	510	498	
8	0	0	0	0	509	497	
9	0	0	0	0	507	495	
10	0	0	0	0	512	492	
11	0	0	0	0	508	485	
12	0	0	0	0	504	476	
13	0	0	0	0	511	472	
14	0	0	0	0	508	472	
15	0	0	0	0	511	471	
0	0	0	0	0	510	470	
1	0	0	0	0	510	471	
2	0	0	0	0	509	473	
3	0	0	0	0	512	472	
4	0	0	0	0	512	472	
5	0	0	0	0	513	471	
6	0	0	0	0	510	474	
7	0	0	0	0	512	479	
8	0	0	0	0	514	478	
9	0	0	0	0	513	476	
10	0	0	0	0	512	473	
11	0	0	0	0	506	468	
12	0	0	0	0	509	464	
13	0	0	0	0	515	459	
14	0	0	0	0	509	457	
15	0	0	0	0	508	457	
0	0	0	0	0	509	457	
1	0	0	0	0	510	459	
2	0	0	0	0	509	460	
3	0	0	0	0	508	460	
4	0	0	0	0	508	461	
5	0	0	0	0	508	463	
6	0	0	0	0	509	463	
7	0	0	0	0	508	467	
8	0	0	0	0	516	472	
9	0	0	0	0	510	475	
10	0	0	0	0	509	474	
11	0	0	0	0	508	474	
12	0	0	0	0	508	470	
13	0	0	0	0	510	463	
14	0	0	0	0	508	460	
15	0	0	0	0	504	461	
0	0	0	0	0	506	462	
1	0	0	0	0	511	465	
2	0	0	0	0	510	466	
3	0	0	0	0	515	467	
4	0	0	0	0	511	466	
5	0	0	0	0	515	466	
6	0	0	0	0	514	466	
7	0	0	0	0	518	467	
8	0	0	0	0	519	470	
9	0	0	0	0	520	470	
10	0	0	0	0	519	465	
11	0	0	0	0	516	462	
12	0	0	0	0	515	459	
13	0	0	0	0	509	452	
14	0	0	0	0	507	442	
15	0	0	0	0	507	442	
0	0	0	0	0	508	444	
1	0	0	0	0	509	448	
2	0	0	0	0	512	454	
3	0	0	0	0	513	459	
4	0	0	0	0	515	462	
5	0	0	0	0	514	465	
6	0	0	0	0	512	470	
7	0	0	0	0	508	474	
8	0	0	0	0	510	480	
9	0	0	0	0	508	487	
10	0	0	0	0	505	492	
11	0	0	0	0	500	493	
12	0	0	0	0	496	495	
13	0	0	0	0	487	496	
14	0	0	0	0	493	495	
15	0	0	0	0	497	492	
0	0	0	0	0	493	493	
1	0	0	0	0	491	499	
2	0	0	0	0	490	507	
3	0	0	0	0	487	515	
4	0	0	0	0	486	525	
5	0	0	0	0	489	529	
6	0	0	0	0	492	531	
7	0	0	0	0	487	533	
8	0	0	0	0	492	535	
9	0	0	0	0	495	536	
10	0	0	0	0	499	538	
11	0	0	0	0	505	536	
12	0	0	0	0	508	531	
13	0	0	0	0	513	524	
14	0	0	0	0	515	513	
15	0	0	0	0	520	502	
0	0	0	0	0	524	488	
1	0	0	0	0	522	476	
2	0	0	0	0	526	465	
3	0	0	0	0	526	453	
4	0	0	0	0	534	442	
5	0	0	0	0	534	433	
6	0	0	0	0	534	426	
7	0	0	0	0	529	421	
8	0	0	0	0	528	414	
9	0	0	0	0	531	412	
10	0	0	0	0	522	414	
11	0	0	0	0	515	416	
12	0	0	0	0	508	416	
13	0	0	0	0	507	417	
14	0	0	0	0	501	419	
15	0	0	0	0	498	420	
0	0	0	0	0	502	420	
1	0	0	0	0	505	423	
2	0	0	0	0	506	429	
3	0	0	0	0	508	435	
4	0	0	0	0	513	441	
5	0	0	0	0	513	446	
6	0	0	0	0	517	451	
7	0	0	0	0	517	455	
8	0	0	0	0	515	461	
9	0	0	0	0	513	468	
10	0	0	0	0	516	474	
11	0	0	0	0	516	482	
12	0	0	0	0	515	486	
13	0	0	0	0	514	487	
14	0	0	0	0	515	487	
15	0	0	0	0	511	486	
0	0	0	0	0	512	484	
1	0	0	0	0	515	481	
2	0	0	0	0	511	481	
3	0	0	0	0	513	485	
4	0	0	0	0	514	486	
5	0	0	0	0	517	487	
6	0	0	0	0	517	488	
7	0	0	0	0	512	490	
8	0	0	0	0	511	492	
9	0	0	0	0	512	492	
10	0	0	0	0	509	492	
11	0	0	0	0	508	496	
12	0	0	0	0	512	502	
13	0	0	0	0	505	504	
14	0	0	0	0	505	503	
15	0	0	0	0	503	500	
0	0	0	0	0	500	497	
1	0	0	0	0	501	492	
2	0	0	0	0	505	487	
3	0	0	0	0	504	487	
4	0	0	0	0	503	488	
5	0	0	0	0	506	491	
6	0	0	0	0	505	494	
7	0	0	0	0	509	495	
8	0	0	0	0	505	497	
9	0	0	0	0	505	497	
10	0	0	0	0	508	499	
11	0	0	0	0	512	502	
12	0	0	0	0	509	507	
13	0	0	0	0	513	510	
14	0	0	0	0	510	511	
15	0	0	0	0	507	513	
0	0	0	0	0	504	511	
1	0	0	0	0	505	507	
2	0	0	0	0	507	501	
3	0	0	0	0	507	499	
4	0	0	0	0	509	501	
5	0	0	0	0	508	501	
6	0	0	0	0	509	502	
7	0	0	0	0	510	502	
8	0	0	0	0	508	500	
9	0	0	0	0	510	498	
10	0	0	0	0	512	499	
11	0	0	0	0	510	500	
12	0	0	0	0	511	504	
13	0	0	0	0	512	509	
14	0	0	0	0	512	511	
15	0	0	0	0	511	511	
0	0	0	0	0	507	510	
1	0	0	0	0	508	507	
2	0	0	0	0	506	501	
3	0	0	0	0	507	496	
4	0	0	0	0	510	496	
5	0	0	0	0	508	498	
6	0	0	0	0	511	498	
7	0	0	0	0	509	499	
8	0	0	0	0	511	500	
9	0	0	0	0	509	503	
10	0	0	0	0	510	504	
11	0	0	0	0	511	505	
12	0	0	0	0	511	508	
13	0	0	0	0	510	513	
14	0	0	0	0	515	517	
15	0	0	0	0	509	518	
0	0	0	0	0	507	518	
1	0	0	0	0	509	516	
2	0	0	0	0	506	512	
3	0	0	0	0	508	510	
4	0	0	0	0	506	507	
5	0	0	0	0	501	508	
6	0	0	0	0	511	509	
7	0	0	0	0	511	511	
8	0	0	0	0	511	513	
9	0	0	0	0	513	514	
10	0	0	0	0	513	515	
11	0	0	0	0	512	515	
12	0	0	0	0	513	516	
13	0	0	0	0	512	519	
14	0	0	0	0	509	524	
15	0	0	0	0	513	526	
0	0	0	0	0	512	525	
1	0	0	0	0	510	525	
2	0	0	0	0	505	524	
3	0	0	0	0	505	519	
4	0	0	0	0	507	514	
5	0	0	0	0	506	514	
6	0	0	0	0	509	516	
7	0	0	0	0	508	520	
8	0	0	0	0	511	522	
9	0	0	0	0	508	524	
10	0	0	0	0	511	527	
11	0	0	0	0	510	529	
12	0	0	0	0	510	530	
13	0	0	0	0	514	531	
14	0	0	0	0	515	536	
15	0	0	0	0	510	542	
0	0	0	0	0	510	543	
1	0	0	0	0	506	542	
2	0	0	0	0	511	540	
3	0	0	0	0	510	538	
4	0	0	0	0	506	534	
5	0	0	0	0	508	530	
6	0	0	0	0	505	530	
7	0	0	0	0	505	532	
8	0	0	0	0	507	534	
9	0	0	0	0	512	534	
10	0	0	0	0	511	535	
11	0	0	0	0	511	538	
12	0	0	0	0	510	540	
13	0	0	0	0	509	541	
14	0	0	0	0	513	543	
15	0	0	0	0	509	549	
0	0	0	0	0	513	554	
1	0	0	0	0	512	554	
2	0	0	0	0	511	553	
3	0	0	0	0	511	551	
4	0	0	0	0	508	546	
5	0	0	0	0	510	537	
6	0	0	0	0	504	536	
7	0	0	0	0	507	537	
8	0	0	0	0	512	537	
9	0	0	0	0	510	538	
10	0	0	0	0	509	539	
11	0	0	0	0	507	539	
12	0	0	0	0	511	538	
13	0	0	0	0	510	536	
14	0	0	0	0	509	536	
15	0	0	0	0	511	539	
0	0	0	0	0	509	543	
1	0	0	0	0	510	542	
2	0	0	0	0	511	540	
3	0	0	0	0	509	538	
4	0	0	0	0	506	533	
5	0	0	0	0	505	524	
6	0	0	0	0	512	517	
7	0	0	0	0	509	514	
8	0	0	0	0	509	514	
9	0	0	0	0	508	514	
10	0	0	0	0	504	515	
11	0	0	0	0	506	515	
12	0	0	0	0	507	514	
13	0	0	0	0	508	515	
14	0	0	0	0	508	515	
15	0	0	0	0	511	517	
0	0	0	0	0	513	518	
1	0	0	0	0	513	521	
2	0	0	0	0	514	520	
3	0	0	0	0	515	518	
4	0	0	0	0	508	513	
5	0	0	0	0	506	507	
6	0	0	0	0	507	499	
7	0	0	0	0	506	491	
8	0	0	0	0	510	487	
9	0	0	0	0	509	486	
10	0	0	0	0	513	484	
11	0	0	0	0	511	481	
12	0	0	0	0	508	480	
13	0	0	0	0	510	479	
14	0	0	0	0	511	479	
15	0	0	0	0	510	478	
0	0	0	0	0	510	478	
1	0	0	0	0	505	481	
2	0	0	0	0	511	481	
3	0	0	0	0	506	480	
4	0	0	0	0	507	479	
5	0	0	0	0	504	475	
6	0	0	0	0	503	469	
7	0	0	0	0	504	464	
8	0	0	0	0	508	459	
9	0	0	0	0	512	459	
10	0	0	0	0	508	460	
11	0	0	0	0	509	460	
12	0	0	0	0	509	461	
13	0	0	0	0	510	461	
14	0	0	0	0	508	461	
15	0	0	0	0	508	462	
0	0	0	0	0	510	463	
1	0	0	0	0	512	466	
2	0	0	0	0	509	470	
3	0	0	0	0	515	471	
4	0	0	0	0	513	470	
5	0	0	0	0	510	468	
6	0	0	0	0	504	465	
7	0	0	0	0	507	460	
8	0	0	0	0	510	455	
9	0	0	0	0	507	452	
10	0	0	0	0	508	452	
11	0	0	0	0	511	453	
12	0	0	0	0	506	454	
13	0	0	0	0	510	454	
14	0	0	0	0	511	455	
15	0	0	0	0	508	457	
0	0	0	0	0	509	457	
1	0	0	0	0	508	460	
2	0	0	0	0	512	464	
3	0	0	0	0	511	470	
4	0	0	0	0	515	469	
5	0	0	0	0	513	466	
6	0	0	0	0	510	464	
7	0	0	0	0	508	460	
8	0	0	0	0	506	455	
9	0	0	0	0	510	450	
10	0	0	0	0	506	449	
11	0	0	0	0	509	449	
12	0	0	0	0	509	450	
13	0	0	0	0	512	450	
14	0	0	0	0	513	449	
15	0	0	0	0	511	449	
0	0	0	0	0	512	451	
1	0	0	0	0	510	452	
2	0	0	0	0	511	455	
3	0	0	0	0	511	462	
4	0	0	0	0	513	465	
5	0	0	0	0	506	467	
6	0	0	0	0	506	466	
7	0	0	0	0	506	465	
8	0	0	0	0	506	462	
9	0	0	0	0	509	460	
10	0	0	0	0	509	457	
11	0	0	0	0	507	458	
12	0	0	0	0	508	458	
13	0	0	0	0	508	459	
14	0	0	0	0	511	459	
15	0	0	0	0	511	459	
0	0	0	0	0	510	459	
1	0	0	0	0	511	459	
2	0	0	0	0	509	460	
3	0	0	0	0	512	463	
4	0	0	0	0	510	468	
5	0	0	0	0	511	469	
6	0	0	0	0	509	469	
7	0	0	0	0	510	469	
8	0	0	0	0	505	466	
9	0	0	0	0	506	463	
10	0	0	0	0	511	459	
11	0	0	0	0	510	457	
12	0	0	0	0	508	459	
13	0	0	0	0	508	460	
14	0	0	0	0	511	461	
15	0	0	0	0	507	462	
0	0	0	0	0	507	463	
1	0	0	0	0	507	463	
2	0	0	0	0	512	464	
3	0	0	0	0	512	467	
4	0	0	0	0	511	471	
5	0	0	0	0	512	475	
6	0	0	0	0	511	477	
7	0	0	0	0	509	477	
8	0	0	0	0	510	476	
9	0	0	0	0	507	472	
10	0	0	0	0	508	468	
11	0	0	0	0	508	464	
12	0	0	0	0	505	464	
13	0	0	0	0	509	465	
14	0	0	0	0	506	466	
15	0	0	0	0	509	467	
0	0	0	0	0	510	468	
1	0	0	0	0	512	471	
2	0	0	0	0	511	472	
3	0	0	0	0	514	473	
4	0	0	0	0	515	474	
5	0	0	0	0	515	478	
6	0	0	0	0	519	479	
7	0	0	0	0	515	479	
8	0	0	0	0	518	478	
9	0	0	0	0	508	478	
10	0	0	0	0	508	474	
11	0	0	0	0	512	470	
12	0	0	0	0	509	466	
13	0	0	0	0	505	467	
14	0	0	0	0	504	469	
15	0	0	0	0	505	470	
0	0	0	0	0	511	469	
1	0	0	0	0	512	470	
2	0	0	0	0	507	472	
3	0	0	0	0	507	474	
4	0	0	0	0	508	475	
5	0	0	0	0	507	478	
6	0	0	0	0	504	483	
7	0	0	0	0	507	484	
8	0	0	0	0	508	484	
9	0	0	0	0	507	483	
10	0	0	0	0	507	481	
11	0	0	0	0	505	477	
12	0	0	0	0	511	471	
13	0	0	0	0	507	470	
14	0	0	0	0	505	471	
15	0	0	0	0	509	472	
0	0	0	0	0	512	474	
1	0	0	0	0	513	477	
2	0	0	0	0	512	480	
3	0	0	0	0	511	481	
4	0	0	0	0	515	482	
5	0	0	0	0	512	484	
6	0	0	0	0	511	487	
7	0	0	0	0	510	493	
8	0	0	0	0	512	493	
9	0	0	0	0	513	491	
10	0	0	0	0	511	489	
11	0	0	0	0	505	485	
12	0	0	0	0	507	480	
13	0	0	0	0	502	475	
14	0	0	0	0	504	473	
15	0	0	0	0	504	474	
0	0	0	0	0	503	476	
1	0	0	0	0	498	478	
2	0	0	0	0	501	479	
3	0	0	0	0	511	479	
4	0	0	0	0	514	479	
5	0	0	0	0	511	480	
6	0	0	0	0	510	483	
7	0	0	0	0	509	487	
8	0	0	0	0	512	491	
9	0	0	0	0	512	491	
10	0	0	0	0	511	489	
11	0	0	0	0	510	487	
12	0	0	0	0	505	486	
13	0	0	0	0	511	483	
14	0	0	0	0	506	480	
15	0	0	0	0	508	480	
0	0	0	0	0	506	482	
1	0	0	0	0	510	484	
2	0	0	0	0	511	485	
3	0	0	0	0	509	486	
4	0	0	0	0	513	486	
5	0	0	0	0	514	486	
6	0	0	0	0	511	485	
7	0	0	0	0	511	486	
8	0	0	0	0	508	491	
9	0	0	0	0	511	491	
10	0	0	0	0	510	490	
11	0	0	0	0	511	487	
12	0	0	0	0	510	483	
13	0	0	0	0	508	479	
14	0	0	0	0	511	472	
15	0	0	0	0	506	471	
0	0	0	0	0	508	471	
1	0	0	0	0	510	470	
2	0	0	0	0	511	471	
3	0	0	0	0	508	472	
4	0	0	0	0	512	472	
5	0	0	0	0	509	473	
6	0	0	0	0	512	475	
7	0	0	0	0	515	476	
8	0	0	0	0	516	477	
9	0	0	0	0	512	480	
10	0	0	0	0	510	481	
11	0	0	0	0	514	480	
12	0	0	0	0	513	480	
13	0	0	0	0	507	476	
14	0	0	0	0	510	472	
15	0	0	0	0	506	468	
0	0	0	0	0	508	468	
1	0	0	0	0	508	469	
2	0	0	0	0	511	470	
3	0	0	0	0	508	471	
4	0	0	0	0	513	472	
5	0	0	0	0	510	472	
6	0	0	0	0	507	473	
7	0	0	0	0	510	475	
8	0	0	0	0	510	476	
9	0	0	0	0	509	483	
10	0	0	0	0	508	485	
11	0	0	0	0	505	486	
12	0	0	0	0	512	484	
13	0	0	0	0	509	483	
14	0	0	0	0	508	478	
15	0	0	0	0	511	472	
0	0	0	0	0	510	467	
1	0	0	0	0	514	465	
2	0	0	0	0	511	465	
3	0	0	0	0	513	463	
4	0	0	0	0	514	461	
5	0	0	0	0	515	459	
6	0	0	0	0	519	455	
7	0	0	0	0	518	454	
8	0	0	0	0	515	454	
9	0	0	0	0	520	457	
10	0	0	0	0	518	463	
11	0	0	0	0	514	466	
12	0	0	0	0	513	468	
13	0	0	0	0	512	470	
14	0	0	0	0	509	470	
15	0	0	0	0	512	468	
0	0	0	0	0	511	464	
1	0	0	0	0	506	464	
2	0	0	0	0	505	466	
3	0	0	0	0	499	467	
4	0	0	0	0	499	470	
5	0	0	0	0	501	473	
6	0	0	0	0	494	476	
7	0	0	0	0	492	480	
8	0	0	0	0	495	483	
9	0	0	0	0	500	487	
10	0	0	0	0	497	492	
11	0	0	0	0	492	500	
12	0	0	0	0	490	506	
13	0	0	0	0	494	507	
14	0	0	0	0	494	507	
15	0	0	0	0	493	504	
0	0	0	0	0	492	499	
1	0	0	0	0	492	494	
2	0	0	0	0	491	493	
3	0	0	0	0	496	494	
4	0	0	0	0	499	494	
5	0	0	0	0	504	493	
6	0	0	0	0	508	489	
7	0	0	0	0	515	484	
8	0	0	0	0	518	480	
9	0	0	0	0	521	478	
10	0	0	0	0	524	473	
11	0	0	0	0	523	470	
12	0	0	0	0	529	462	
13	0	0	0	0	529	453	
14	0	0	0	0	529	443	
15	0	0	0	0	524	433	
0	0	0	0	0	527	424	
1	0	0	0	0	526	416	
2	0	0	0	0	520	413	
3	0	0	0	0	516	413	
4	0	0	0	0	519	414	
5	0	0	0	0	516	415	
6	0	0	0	0	512	416	
7	0	0	0	0	510	419	
8	0	0	0	0	503	425	
9	0	0	0	0	502	432	
10	0	0	0	0	506	439	
11	0	0	0	0	508	446	
12	0	0	0	0	505	457	
13	0	0	0	0	508	464	
14	0	0	0	0	505	470	
15	0	0	0	0	505	475	
0	0	0	0	0	506	477	
1	0	0	0	0	510	477	
2	0	0	0	0	512	475	
3	0	0	0	0	510	477	
4	0	0	0	0	518	481	
5	0	0	0	0	512	484	
6	0	0	0	0	512	486	
7	0	0	0	0	520	487	
8	0	0	0	0	520	487	
9	0	0	0	0	516	486	
10	0	0	0	0	514	487	
11	0	0	0	0	516	489	
12	0	0	0	0	517	494	
13	0	0	0	0	520	500	
14	0	0	0	0	516	500	
15	0	0	0	0	512	499	
0	0	0	0	0	510	499	
1	0	0	0	0	511	496	
2	0	0	0	0	511	491	
3	0	0	0	0	513	486	
4	0	0	0	0	510	486	
5	0	0	0	0	509	487	
6	0	0	0	0	508	487	
7	0	0	0	0	508	487	
8	0	0	0	0	507	486	
9	0	0	0	0	508	486	
10	0	0	0	0	506	489	
11	0	0	0	0	503	490	
12	0	0	0	0	511	492	
13	0	0	0	0	512	496	
14	0	0	0	0	512	498	
15	0	0	0	0	510	497	
0	0	0	0	0	507	497	
1	0	0	0	0	504	494	
2	0	0	0	0	502	490	
3	0	0	0	0	500	485	
4	0	0	0	0	503	487	
5	0	0	0	0	501	490	
6	0	0	0	0	501	494	
7	0	0	0	0	502	498	
8	0	0	0	0	503	501	
9	0	0	0	0	507	503	
10	0	0	0	0	507	505	
11	0	0	0	0	507	507	
12	0	0	0	0	505	509	
13	0	0	0	0	512	513	
14	0	0	0	0	516	516	
15	0	0	0	0	513	513	
0	0	0	0	0	515	511	
1	0	0	0	0	516	511	
2	0	0	0	0	510	508	
3	0	0	0	0	507	506	
4	0	0	0	0	511	501	
5	0	0	0	0	512	501	
6	0	0	0	0	510	502	
7	0	0	0	0	510	500	
8	0	0	0	0	511	499	
9	0	0	0	0	512	498	
10	0	0	0	0	508	497	
11	0	0	0	0	507	497	
12	0	0	0	0	509	497	
13	0	0	0	0	507	498	
14	0	0	0	0	509	501	
15	0	0	0	0	507	502	
0	0	0	0	0	508	501	
1	0	0	0	0	508	500	
2	0	0	0	0	504	500	
3	0	0	0	0	510	498	
4	0	0	0	0	509	496	
5	0	0	0	0	507	494	
6	0	0	0	0	506	496	
7	0	0	0	0	506	496	
8	0	0	0	0	511	496	
9	0	0	0	0	512	492	
10	0	0	0	0	507	492	
11	0	0	0	0	511	491	
12	0	0	0	0	508	490	
13	0	0	0	0	513	489	
14	0	0	0	0	509	492	
15	0	0	0	0	508	496	
0	0	0	0	0	509	496	
1	0	0	0	0	509	496	
2	0	0	0	0	514	494	
3	0	0	0	0	511	491	
4	0	0	0	0	509	486	
5	0	0	0	0	516	479	
6	0	0	0	0	513	478	
7	0	0	0	0	506	480	
8	0	0	0	0	504	482	
9	0	0	0	0	508	483	
10	0	0	0	0	511	484	
11	0	0	0	0	509	486	
12	0	0	0	0	512	488	
13	0	0	0	0	507	490	
14	0	0	0	0	508	493	
15	0	0	0	0	513	496	
0	0	0	0	0	514	500	
1	0	0	0	0	511	503	
2	0	0	0	0	509	505	
3	0	0	0	0	509	506	
4	0	0	0	0	506	504	
5	0	0	0	0	505	500	
6	0	0	0	0	507	499	
7	0	0	0	0	502	501	
8	0	0	0	0	507	504	
9	0	0	0	0	509	505	
10	0	0	0	0	511	507	
11	0	0	0	0	508	508	
12	0	0	0	0	512	510	
13	0	0	0	0	511	512	
14	0	0	0	0	513	515	
15	0	0	0	0	511	519	
0	0	0	0	0	507	526	
1	0	0	0	0	517	530	
2	0	0	0	0	510	531	
3	0	0	0	0	510	531	
4	0	0	0	0	507	531	
5	0	0	0	0	504	527	
6	0	0	0	0	506	525	
7	0	0	0	0	504	524	
8	0	0	0	0	502	527	
9	0	0	0	0	511	527	
10	0	0	0	0	511	528	
11	0	0	0	0	509	529	
12	0	0	0	0	510	529	
13	0	0	0	0	512	529	
14	0	0	0	0	512	528	
15	0	0	0	0	508	527	
0	0	0	0	0	512	529	
1	0	0	0	0	511	533	
2	0	0	0	0	515	534	
3	0	0	0	0	511	533	
4	0	0	0	0	510	531	
5	0	0	0	0	508	528	
6	0	0	0	0	508	523	
7	0	0	0	0	506	519	
8	0	0	0	0	509	515	
9	0	0	0	0	507	515	
10	0	0	0	0	504	515	
11	0	0	0	0	509	515	
12	0	0	0	0	509	514	
13	0	0	0	0	509	515	
14	0	0	0	0	514	515	
15	0	0	0	0	511	514	
0	0	0	0	0	513	515	
1	0	0	0	0	514	517	
2	0	0	0	0	516	520	
3	0	0	0	0	515	518	
4	0	0	0	0	510	516	
5	0	0	0	0	508	514	
6	0	0	0	0	503	510	
7	0	0	0	0	505	504	
8	0	0	0	0	512	499	
9	0	0	0	0	508	497	
10	0	0	0	0	508	496	
11	0	0	0	0	511	493	
12	0	0	0	0	512	489	
13	0	0	0	0	511	487	
14	0	0	0	0	511	486	
15	0	0	0	0	511	484	
0	0	0	0	0	508	484	
1	0	0	0	0	510	485	
2	0	0	0	0	510	488	
3	0	0	0	0	508	489	
4	0	0	0	0	506	487	
5	0	0	0	0	509	484	
6	0	0	0	0	505	480	
7	0	0	0	0	503	475	
8	0	0	0	0	508	468	
9	0	0	0	0	508	463	
10	0	0	0	0	509	462	
11	0	0	0	0	508	461	
12	0	0	0	0	509	461	
13	0	0	0	0	515	458	
14	0	0	0	0	510	458	
15	0	0	0	0	512	456	
0	0	0	0	0	509	455	
1	0	0	0	0	510	454	
2	0	0	0	0	506	456	
3	0	0	0	0	511	460	
4	0	0	0	0	513	458	
5	0	0	0	0	507	456	
6	0	0	0	0	509	455	
7	0	0	0	0	503	452	
8	0	0	0	0	509	447	
9	0	0	0	0	507	443	
10	0	0	0	0	506	441	
11	0	0	0	0	505	440	
12	0	0	0	0	502	439	
13	0	0	0	0	503	440	
14	0	0	0	0	512	441	
15	0	0	0	0	511	441	
0	0	0	0	0	510	442	
1	0	0	0	0	508	443	
2	0	0	0	0	505	444	
3	0	0	0	0	516	446	
4	0	0	0	0	516	449	
5	0	0	0	0	513	449	
6	0	0	0	0	515	449	
7	0	0	0	0	512	446	
8	0	0	0	0	507	442	
9	0	0	0	0	511	438	
10	0	0	0	0	513	433	
11	0	0	0	0	508	435	
12	0	0	0	0	501	438	
13	0	0	0	0	511	438	
14	0	0	0	0	509	437	
15	0	0	0	0	508	437	
0	0	0	0	0	512	437	
1	0	0	0	0	511	438	
2	0	0	0	0	511	439	
3	0	0	0	0	508	441	
4	0	0	0	0	510	447	
5	0	0	0	0	510	449	
6	0	0	0	0	508	448	
7	0	0	0	0	509	448	
8	0	0	0	0	509	446	
9	0	0	0	0	506	444	
10	0	0	0	0	510	439	
11	0	0	0	0	509	434	
12	0	0	0	0	503	434	
13	0	0	0	0	503	434	
14	0	0	0	0	509	434	
15	0	0	0	0	508	433	
0	0	0	0	0	508	433	
1	0	0	0	0	508	435	
2	0	0	0	0	512	436	
3	0	0	0	0	511	439	
4	0	0	0	0	511	443	
5	0	0	0	0	513	447	
6	0	0	0	0	512	447	
7	0	0	0	0	518	446	
8	0	0	0	0	517	444	
9	0	0	0	0	508	441	
10	0	0	0	0	512	439	
11	0	0	0	0	518	434	
12	0	0	0	0	507	432	
13	0	0	0	0	508	432	
14	0	0	0	0	508	432	
15	0	0	0	0	502	434	
0	0	0	0	0	500	435	
1	0	0	0	0	509	434	
2	0	0	0	0	508	434	
3	0	0	0	0	511	434	
4	0	0	0	0	512	435	
5	0	0	0	0	509	441	
6	0	0	0	0	515	445	
7	0	0	0	0	509	444	
8	0	0	0	0	508	443	
9	0	0	0	0	507	441	
10	0	0	0	0	504	438	
11	0	0	0	0	507	434	
12	0	0	0	0	511	429	
13	0	0	0	0	504	428	
14	0	0	0	0	508	427	
15	0	0	0	0	512	428	
0	0	0	0	0	509	428	
1	0	0	0	0	507	430	
2	0	0	0	0	513	429	
3	0	0	0	0	511	428	
4	0	0	0	0	515	430	
5	0	0	0	0	512	432	
6	0	0	0	0	513	436	
7	0	0	0	0	514	438	
8	0	0	0	0	507	439	
9	0	0	0	0	510	439	
10	0	0	0	0	505	438	
11	0	0	0	0	505	433	
12	0	0	0	0	507	428	
13	0	0	0	0	499	427	
14	0	0	0	0	513	430	
15	0	0	0	0	518	431	
0	0	0	0	0	517	432	
1	0	0	0	0	516	431	
2	0	0	0	0	519	430	
3	0	0	0	0	518	429	
4	0	0	0	0	510	428	
5	0	0	0	0	521	429	
6	0	0	0	0	515	432	
7	0	0	0	0	508	439	
8	0	0	0	0	509	441	
9	0	0	0	0	505	441	
10	0	0	0	0	505	440	
11	0	0	0	0	503	439	
12	0	0	0	0	503	435	
13	0	0	0	0	503	430	
14	0	0	0	0	504	428	
15	0	0	0	0	504	430	
0	0	0	0	0	502	430	
1	0	0	0	0	506	430	
2	0	0	0	0	511	432	
3	0	0	0	0	511	431	
4	0	0	0	0	506	430	
5	0	0	0	0	507	431	
6	0	0	0	0	512	435	
7	0	0	0	0	512	442	
8	0	0	0	0	514	445	
9	0	0	0	0	514	443	
10	0	0	0	0	509	442	
11	0	0	0	0	511	442	
12	0	0	0	0	508	439	
13	0	0	0	0	508	435	
14	0	0	0	0	509	432	
15	0	0	0	0	507	433	
0	0	0	0	0	507	434	
1	0	0	0	0	508	434	
2	0	0	0	0	511	435	
3	0	0	0	0	508	435	
4	0	0	0	0	511	434	
5	0	0	0	0	511	433	
6	0	0	0	0	510	431	
7	0	0	0	0	511	433	
8	0	0	0	0	510	439	
9	0	0	0	0	510	440	
10	0	0	0	0	510	439	
11	0	0	0	0	508	438	
12	0	0	0	0	500	438	
13	0	0	0	0	501	434	
14	0	0	0	0	512	428	
15	0	0	0	0	505	430	
0	0	0	0	0	504	432	
1	0	0	0	0	505	435	
2	0	0	0	0	510	434	
3	0	0	0	0	510	433	
4	0	0	0	0	510	433	
5	0	0	0	0	514	433	
6	0	0	0	0	514	432	
7	0	0	0	0	510	432	
8	0	0	0	0	510	435	
9	0	0	0	0	513	440	
10	0	0	0	0	513	440	
11	0	0	0	0	514	438	
12	0	0	0	0	510	436	
13	0	0	0	0	503	432	
14	0	0	0	0	506	429	
15	0	0	0	0	510	424	
0	0	0	0	0	510	423	
1	0	0	0	0	506	422	
2	0	0	0	0	512	419	
3	0	0	0	0	510	418	
4	0	0	0	0	512	420	
5	0	0	0	0	515	420	
6	0	0	0	0	508	420	
7	0	0	0	0	512	420	
8	0	0	0	0	518	420	
9	0	0	0	0	514	425	
10	0	0	0	0	515	426	
11	0	0	0	0	512	427	
12	0	0	0	0	510	423	
13	0	0	0	0	505	420	
14	0	0	0	0	504	415	
15	0	0	0	0	505	411	
0	0	0	0	0	507	407	
1	0	0	0	0	508	407	
2	0	0	0	0	509	406	
3	0	0	0	0	504	404	
4	0	0	0	0	512	403	
5	0	0	0	0	511	403	
6	0	0	0	0	510	403	
7	0	0	0	0	510	403	
8	0	0	0	0	512	406	
9	0	0	0	0	512	411	
10	0	0	0	0	508	415	
11	0	0	0	0	511	416	
12	0	0	0	0	514	416	
13	0	0	0	0	511	414	
14	0	0	0	0	509	414	
15	0	0	0	0	506	411	
0	0	0	0	0	514	408	
1	0	0	0	0	508	405	
2	0	0	0	0	504	404	
3	0	0	0	0	515	402	
4	0	0	0	0	511	401	
5	0	0	0	0	512	402	
6	0	0	0	0	511	404	
7	0	0	0	0	508	405	
8	0	0	0	0	512	404	
9	0	0	0	0	512	405	
10	0	0	0	0	515	407	
11	0	0	0	0	513	412	
12	0	0	0	0	511	411	
13	0	0	0	0	516	409	
14	0	0	0	0	515	406	
15	0	0	0	0	512	402	
0	0	0	0	0	510	398	
1	0	0	0	0	512	391	
2	0	0	0	0	509	391	
3	0	0	0	0	510	389	
4	0	0	0	0	511	389	
5	0	0	0	0	513	390	
6	0	0	0	0	510	392	
7	0	0	0	0	513	394	
8	0	0	0	0	508	396	
9	0	0	0	0	510	397	
10	0	0	0	0	516	398	
11	0	0	0	0	511	402	
12	0	0	0	0	508	407	
13	0	0	0	0	500	409	
14	0	0	0	0	500	409	
15	0	0	0	0	499	409	
0	0	0	0	0	497	407	
1	0	0	0	0	499	405	
2	0	0	0	0	495	403	
3	0	0	0	0	493	404	
4	0	0	0	0	495	409	
5	0	0	0	0	495	413	
6	0	0	0	0	497	415	
7	0	0	0	0	492	419	
8	0	0	0	0	493	420	
9	0	0	0	0	496	419	
10	0	0	0	0	497	417	
11	0	0	0	0	500	416	
12	0	0	0	0	497	418	
13	0	0	0	0	499	417	
14	0	0	0	0	500	415	
15	0	0	0	0	508	410	
0	0	0	0	0	509	404	
1	0	0	0	0	510	398	
2	0	0	0	0	512	391	
3	0	0	0	0	512	386	
4	0	0	0	0	519	380	
5	0	0	0	0	525	373	
6	0	0	0	0	529	365	
7	0	0	0	0	530	357	
8	0	0	0	0	531	350	
9	0	0	0	0	528	343	
10	0	0	0	0	526	338	
11	0	0	0	0	526	336	
12	0	0	0	0	527	337	
13	0	0	0	0	520	340	
14	0	0	0	0	520	337	
15	0	0	0	0	515	335	
0	0	0	0	0	522	334	
1	0	0	0	0	511	333	
2	0	0	0	0	502	332	
3	0	0	0	0	503	332	
4	0	0	0	0	502	338	
5	0	0	0	0	505	346	
6	0	0	0	0	504	352	
7	0	0	0	0	509	359	
8	0	0	0	0	510	363	
9	0	0	0	0	508	367	
10	0	0	0	0	507	370	
11	0	0	0	0	510	375	
12	0	0	0	0	518	380	
13	0	0	0	0	523	388	
14	0	0	0	0	513	389	
15	0	0	0	0	518	390	
0	0	0	0	0	520	390	
1	0	0	0	0	514	389	
2	0	0	0	0	507	388	
3	0	0	0	0	510	383	
4	0	0	0	0	514	380	
5	0	0	0	0	511	380	
6	0	0	0	0	513	382	
7	0	0	0	0	513	384	
8	0	0	0	0	513	386	
9	0	0	0	0	511	386	
10	0	0	0	0	516	387	
11	0	0	0	0	517	387	
12	0	0	0	0	511	388	
13	0	0	0	0	512	390	
14	0	0	0	0	515	393	
15	0	0	0	0	513	394	
0	0	0	0	0	511	391	
1	0	0	0	0	506	390	
2	0	0	0	0	505	387	
3	0	0	0	0	507	382	
4	0	0	0	0	510	377	
5	0	0	0	0	504	374	
6	0	0	0	0	505	374	
7	0	0	0	0	502	374	
8	0	0	0	0	504	373	
9	0	0	0	0	504	373	
10	0	0	0	0	506	373	
11	0	0	0	0	510	372	
12	0	0	0	0	505	373	
13	0	0	0	0	505	374	
14	0	0	0	0	510	377	
15	0	0	0	0	509	382	
0	0	0	0	0	507	383	
1	0	0	0	0	508	384	
2	0	0	0	0	511	382	
3	0	0	0	0	505	379	
4	0	0	0	0	509	376	
5	0	0	0	0	509	372	
6	0	0	0	0	508	372	
7	0	0	0	0	510	371	
8	0	0	0	0	506	371	
9	0	0	0	0	507	372	
10	0	0	0	0	508	373	
11	0	0	0	0	512	375	
12	0	0	0	0	510	376	
13	0	0	0	0	510	376	
14	0	0	0	0	512	378	
15	0	0	0	0	507	383	
0	0	0	0	0	510	386	
1	0	0	0	0	511	387	
2	0	0	0	0	510	385	
3	0	0	0	0	508	383	
4	0	0	0	0	506	380	
5	0	0	0	0	506	375	
6	0	0	0	0	508	372	
7	0	0	0	0	510	372	
8	0	0	0	0	510	374	
9	0	0	0	0	513	374	
10	0	0	0	0	510	376	
11	0	0	0	0	508	377	
12	0	0	0	0	508	379	
13	0	0	0	0	509	381	
14	0	0	0	0	513	382	
15	0	0	0	0	512	385	
0	0	0	0	0	510	390	
1	0	0	0	0	513	390	
2	0	0	0	0	507	389	
3	0	0	0	0	508	388	
4	0	0	0	0	507	386	
5	0	0	0	0	505	383	
6	0	0	0	0	508	379	
7	0	0	0	0	506	378	
8	0	0	0	0	509	379	
9	0	0	0	0	510	379	
10	0	0	0	0	511	380	
11	0	0	0	0	512	380	
12	0	0	0	0	509	382	
13	0	0	0	0	510	384	
14	0	0	0	0	508	385	
15	0	0	0	0	509	387	
0	0	0	0	0	510	391	
1	0	0	0	0	509	394	
2	0	0	0	0	510	393	
3	0	0	0	0	512	391	
4	0	0	0	0	511	388	
5	0	0	0	0	509	385	
6	0	0	0	0	508	380	
7	0	0	0	0	508	376	
8	0	0	0	0	507	376	
9	0	0	0	0	508	376	
10	0	0	0	0	510	377	
11	0	0	0	0	508	378	
12	0	0	0	0	509	379	
13	0	0	0	0	511	379	
14	0	0	0	0	510	380	
15	0	0	0	0	511	381	
0	0	0	0	0	515	383	
1	0	0	0	0	510	387	
2	0	0	0	0	512	391	
3	0	0	0	0	515	391	
4	0	0	0	0	511	390	
5	0	0	0	0	506	390	
6	0	0	0	0	506	385	
7	0	0	0	0	508	378	
8	0	0	0	0	511	377	
9	0	0	0	0	506	376	
10	0	0	0	0	507	377	
11	0	0	0	0	508	379	
12	0	0	0	0	511	380	
13	0	0	0	0	512	381	
14	0	0	0	0	510	382	
15	0	0	0	0	506	383	
0	0	0	0	0	513	385	
1	0	0	0	0	514	389	
2	0	0	0	0	514	395	
3	0	0	0	0	515	396	
4	0	0	0	0	512	397	
5	0	0	0	0	511	396	
6	0	0	0	0	504	394	
7	0	0	0	0	505	390	
8	0	0	0	0	507	385	
9	0	0	0	0	508	384	
10	0	0	0	0	506	385	
11	0	0	0	0	509	386	
12	0	0	0	0	512	387	
13	0	0	0	0	511	388	
14	0	0	0	0	511	389	
15	0	0	0	0	510	389	
0	0	0	0	0	508	391	
1	0	0	0	0	510	392	
2	0	0	0	0	508	396	
3	0	0	0	0	512	401	
4	0	0	0	0	512	401	
5	0	0	0	0	512	400	
6	0	0	0	0	508	399	
7	0	0	0	0	503	396	
8	0	0	0	0	504	392	
9	0	0	0	0	510	389	
10	0	0	0	0	510	389	
11	0	0	0	0	506	389	
12	0	0	0	0	508	390	
13	0	0	0	0	509	391	
14	0	0	0	0	510	392	
15	0	0	0	0	508	392	
0	0	0	0	0	510	392	
1	0	0	0	0	512	392	
2	0	0	0	0	512	393	
3	0	0	0	0	511	397	
4	0	0	0	0	515	398	
5	0	0	0	0	512	398	
6	0	0	0	0	510	398	
7	0	0	0	0	507	396	
8	0	0	0	0	511	391	
9	0	0	0	0	507	383	
10	0	0	0	0	504	380	
11	0	0	0	0	508	381	
12	0	0	0	0	509	382	
13	0	0	0	0	508	381	
14	0	0	0	0	510	380	
15	0	0	0	0	512	379	
0	0	0	0	0	512	378	
1	0	0	0	0	511	377	
2	0	0	0	0	510	377	
3	0	0	0	0	515	379	
4	0	0	0	0	512	384	
5	0	0	0	0	511	384	
6	0	0	0	0	511	383	
7	0	0	0	0	508	382	
8	0	0	0	0	507	380	
9	0	0	0	0	504	376	
10	0	0	0	0	510	371	
11	0	0	0	0	507	371	
12	0	0	0	0	507	371	
13	0	0	0	0	510	371	
14	0	0	0	0	510	371	
15	0	0	0	0	506	371	
0	0	0	0	0	508	372	
1	0	0	0	0	509	371	
2	0	0	0	0	505	372	
3	0	0	0	0	510	373	
4	0	0	0	0	512	376	
5	0	0	0	0	512	381	
6	0	0	0	0	512	381	
7	0	0	0	0	510	381	
8	0	0	0	0	511	380	
9	0	0	0	0	508	377	
10	0	0	0	0	508	375	
11	0	0	0	0	508	372	
12	0	0	0	0	503	374	
13	0	0	0	0	509	376	
14	0	0	0	0	510	377	
15	0	0	0	0	510	379	
0	0	0	0	0	508	379	
1	0	0	0	0	510	379	
2	0	0	0	0	509	380	
3	0	0	0	0	509	380	
4	0	0	0	0	513	382	
5	0	0	0	0	513	385	
6	0	0	0	0	515	387	
7	0	0	0	0	511	387	
8	0	0	0	0	511	386	
9	0	0	0	0	506	385	
10	0	0	0	0	507	383	
11	0	0	0	0	512	380	
12	0	0	0	0	506	377	
13	0	0	0	0	504	379	
14	0	0	0	0	507	381	
15	0	0	0	0	508	382	
0	0	0	0	0	508	383	
1	0	0	0	0	508	384	
2	0	0	0	0	508	387	
3	0	0	0	0	513	387	
4	0	0	0	0	514	389	
5	0	0	0	0	512	393	
6	0	0	0	0	513	398	
7	0	0	0	0	512	400	
8	0	0	0	0	512	399	
9	0	0	0	0	515	399	
10	0	0	0	0	504	398	
11	0	0	0	0	506	395	
12	0	0	0	0	512	392	
13	0	0	0	0	508	393	
14	0	0	0	0	507	396	
15	0	0	0	0	510	399	
0	0	0	0	0	508	401	
1	0	0	0	0	510	403	
2	0	0	0	0	511	404	
3	0	0	0	0	510	406	
4	0	0	0	0	508	408	
5	0	0	0	0	509	412	
6	0	0	0	0	509	417	
7	0	0	0	0	514	422	
8	0	0	0	0	512	423	
9	0	0	0	0	508	424	
10	0	0	0	0	511	424	
11	0	0	0	0	508	422	
12	0	0	0	0	507	419	
13	0	0	0	0	509	417	
14	0	0	0	0	506	418	
15	0	0	0	0	506	420	
0	0	0	0	0	507	423	
1	0	0	0	0	508	425	
2	0	0	0	0	511	426	
3	0	0	0	0	511	429	
4	0	0	0	0	512	432	
5	0	0	0	0	509	434	
6	0	0	0	0	511	438	
7	0	0	0	0	511	444	
8	0	0	0	0	510	447	
9	0	0	0	0	512	448	
10	0	0	0	0	510	447	
11	0	0	0	0	506	446	
12	0	0	0	0	508	444	
13	0	0	0	0	511	443	
14	0	0	0	0	509	442	
15	0	0	0	0	508	444	
0	0	0	0	0	510	447	
1	0	0	0	0	510	449	
2	0	0	0	0	508	452	
3	0	0	0	0	508	454	
4	0	0	0	0	511	455	
5	0	0	0	0	510	457	
6	0	0	0	0	511	460	
7	0	0	0	0	511	465	
8	0	0	0	0	516	471	
9	0	0	0	0	516	473	
10	0	0	0	0	515	474	
11	0	0	0	0	517	473	
12	0	0	0	0	511	472	
13	0	0	0	0	513	469	
14	0	0	0	0	512	466	
15	0	0	0	0	510	466	
0	0	0	0	0	508	467	
1	0	0	0	0	509	469	
2	0	0	0	0	507	471	
3	0	0	0	0	507	472	
4	0	0	0	0	507	475	
5	0	0	0	0	505	476	
6	0	0	0	0	510	478	
7	0	0	0	0	510	481	
8	0	0	0	0	505	487	
9	0	0	0	0	509	492	
10	0	0	0	0	506	494	
11	0	0	0	0	507	496	
12	0	0	0	0	505	497	
13	0	0	0	0	504	496	
14	0	0	0	0	506	495	
15	0	0	0	0	505	494	
0	0	0	0	0	510	494	
1	0	0	0	0	511	494	
2	0	0	0	0	512	495	
3	0	0	0	0	514	495	
4	0	0	0	0	513	494	
5	0	0	0	0	513	495	
6	0	0	0	0	512	496	
7	0	0	0	0	512	498	
8	0	0	0	0	512	503	
9	0	0	0	0	512	510	
10	0	0	0	0	511	512	
11	0	0	0	0	508	513	
12	0	0	0	0	510	513	
13	0	0	0	0	506	513	
14	0	0	0	0	504	511	
15	0	0	0	0	507	507	
0	0	0	0	0	505	506	
1	0	0	0	0	505	507	
2	0	0	0	0	505	508	
3	0	0	0	0	503	511	
4	0	0	0	0	508	512	
5	0	0	0	0	508	514	
6	0	0	0	0	509	515	
7	0	0	0	0	508	517	
8	0	0	0	0	510	519	
9	0	0	0	0	512	523	
10	0	0	0	0	516	529	
11	0	0	0	0	510	531	
12	0	0	0	0	508	531	
13	0	0	0	0	508	531	
14	0	0	0	0	507	529	
15	0	0	0	0	508	527	
0	0	0	0	0	511	523	
1	0	0	0	0	508	522	
2	0	0	0	0	511	523	
3	0	0	0	0	508	525	
4	0	0	0	0	508	527	
5	0	0	0	0	509	528	
6	0	0	0	0	510	529	
7	0	0	0	0	509	531	
8	0	0	0	0	511	532	
9	0	0	0	0	514	532	
10	0	0	0	0	512	537	
11	0	0	0	0	515	539	
12	0	0	0	0	512	538	
13	0	0	0	0	512	537	
14	0	0	0	0	509	536	
15	0	0	0	0	505	532	
0	0	0	0	0	508	529	
1	0	0	0	0	510	526	
2	0	0	0	0	508	528	
3	0	0	0	0	509	529	
4	0	0	0	0	511	529	
5	0	0	0	0	510	531	
6	0	0	0	0	510	531	
7	0	0	0	0	510	532	
8	0	0	0	0	507	533	
9	0	0	0	0	510	534	
10	0	0	0	0	513	537	
11	0	0	0	0	512	543	
12	0	0	0	0	512	545	
13	0	0	0	0	511	546	
14	0	0	0	0	510	545	
15	0	0	0	0	505	544	
0	0	0	0	0	505	542	
1	0	0	0	0	507	537	
2	0	0	0	0	509	536	
3	0	0	0	0	509	538	
4	0	0	0	0	510	540	
5	0	0	0	0	509	542	
6	0	0	0	0	508	543	
7	0	0	0	0	510	544	
8	0	0	0	0	511	545	
9	0	0	0	0	510	545	
10	0	0	0	0	513	547	
11	0	0	0	0	513	551	
12	0	0	0	0	515	556	
13	0	0	0	0	513	556	
14	0	0	0	0	510	555	
15	0	0	0	0	513	553	
0	0	0	0	0	509	550	
1	0	0	0	0	510	547	
2	0	0	0	0	512	543	
3	0	0	0	0	512	542	
4	0	0	0	0	512	542	
5	0	0	0	0	512	541	
6	0	0	0	0	515	540	
7	0	0	0	0	518	539	
8	0	0	0	0	515	539	
9	0	0	0	0	513	539	
10	0	0	0	0	514	538	
11	0	0	0	0	518	540	
12	0	0	0	0	512	545	
13	0	0	0	0	512	549	
14	0	0	0	0	509	551	
15	0	0	0	0	511	552	
0	0	0	0	0	510	553	
1	0	0	0	0	508	552	
2	0	0	0	0	508	552	
3	0	0	0	0	511	551	
4	0	0	0	0	504	553	
5	0	0	0	0	506	556	
6	0	0	0	0	506	558	
7	0	0	0	0	502	561	
8	0	0	0	0	500	563	
9	0	0	0	0	497	564	
10	0	0	0	0	493	568	
11	0	0	0	0	498	572	
12	0	0	0	0	498	577	
13	0	0	0	0	500	584	
14	0	0	0	0	494	589	
15	0	0	0	0	489	593	
0	0	0	0	0	489	597	
1	0	0	0	0	487	599	
2	0	0	0	0	487	598	
3	0	0	0	0	490	595	
4	0	0	0	0	486	591	
5	0	0	0	0	487	592	
6	0	0	0	0	492	593	
7	0	0	0	0	498	593	
8	0	0	0	0	506	593	
9	0	0	0	0	509	593	
10	0	0	0	0	512	590	
11	0	0	0	0	519	587	
12	0	0	0	0	527	585	
13	0	0	0	0	529	584	
14	0	0	0	0	534	582	
15	0	0	0	0	529	575	
0	0	0	0	0	532	567	
1	0	0	0	0	530	558	
2	0	0	0	0	531	549	
3	0	0	0	0	532	539	
4	0	0	0	0	529	528	
5	0	0	0	0	524	524	
6	0	0	0	0	521	523	
7	0	0	0	0	518	521	
8	0	0	0	0	518	521	
9	0	0	0	0	513	523	
10	0	0	0	0	510	526	
11	0	0	0	0	509	529	
12	0	0	0	0	510	533	
13	0	0	0	0	510	539	
14	0	0	0	0	510	548	
15	0	0	0	0	510	555	
0	0	0	0	0	510	558	
1	0	0	0	0	508	560	
2	0	0	0	0	504	563	
3	0	0	0	0	505	563	
4	0	0	0	0	509	563	
5	0	0	0	0	511	561	
6	0	0	0	0	511	564	
7	0	0	0	0	510	568	
8	0	0	0	0	510	572	
9	0	0	0	0	509	576	
10	0	0	0	0	512	578	
11	0	0	0	0	518	579	
12	0	0	0	0	516	582	
13	0	0	0	0	514	586	
14	0	0	0	0	515	592	
15	0	0	0	0	518	599	
0	0	0	0	0	519	603	
1	0	0	0	0	517	604	
2	0	0	0	0	515	603	
3	0	0	0	0	507	602	
4	0	0	0	0	508	600	
5	0	0	0	0	514	596	
6	0	0	0	0	509	595	
7	0	0	0	0	508	596	
8	0	0	0	0	507	597	
9	0	0	0	0	508	596	
10	0	0	0	0	509	597	
11	0	0	0	0	508	597	
12	0	0	0	0	504	597	
13	0	0	0	0	507	598	
14	0	0	0	0	507	599	
15	0	0	0	0	508	604	
0	0	0	0	0	510	607	
1	0	0	0	0	503	608	
2	0	0	0	0	506	608	
3	0	0	0	0	505	608	
4	0	0	0	0	503	606	
5	0	0	0	0	505	603	
6	0	0	0	0	506	600	
7	0	0	0	0	504	601	
8	0	0	0	0	505	604	
9	0	0	0	0	505	605	
10	0	0	0	0	508	606	
11	0	0	0	0	507	606	
12	0	0	0	0	504	606	
13	0	0	0	0	507	606	
14	0	0	0	0	509	608	
15	0	0	0	0	512	608	
0	0	0	0	0	513	611	
1	0	0	0	0	512	613	
2	0	0	0	0	510	612	
3	0	0	0	0	511	612	
4	0	0	0	0	505	610	
5	0	0	0	0	505	607	
6	0	0	0	0	506	604	
7	0	0	0	0	506	602	
8	0	0	0	0	507	604	
9	0	0	0	0	506	606	
10	0	0	0	0	509	607	
11	0	0	0	0	510	607	
12	0	0	0	0	512	608	
13	0	0	0	0	509	609	
14	0	0	0	0	511	610	
15	0	0	0	0	511	611	
0	0	0	0	0	512	615	
1	0	0	0	0	513	619	
2	0	0	0	0	513	620	
3	0	0	0	0	511	621	
4	0	0	0	0	511	622	
5	0	0	0	0	506	621	
6	0	0	0	0	505	619	
7	0	0	0	0	512	615	
8	0	0	0	0	506	614	
9	0	0	0	0	505	617	
10	0	0	0	0	508	620	
11	0	0	0	0	510	620	
12	0	0	0	0	511	622	
13	0	0	0	0	513	623	
14	0	0	0	0	512	624	
15	0	0	0	0	510	624	
0	0	0	0	0	511	625	
1	0	0	0	0	509	633	
2	0	0	0	0	511	636	
3	0	0	0	0	510	637	
4	0	0	0	0	511	637	
5	0	0	0	0	508	638	
6	0	0	0	0	507	637	
7	0	0	0	0	507	635	
8	0	0	0	0	511	632	
9	0	0	0	0	510	632	
10	0	0	0	0	509	632	
11	0	0	0	0	510	633	
12	0	0	0	0	514	635	
13	0	0	0	0	511	636	
14	0	0	0	0	510	636	
15	0	0	0	0	506	636	
0	0	0	0	0	507	637	
1	0	0	0	0	512	639	
2	0	0	0	0	508	643	
3	0	0	0	0	512	646	
4	0	0	0	0	510	646	
5	0	0	0	0	511	645	
6	0	0	0	0	507	645	
7	0	0	0	0	510	642	
8	0	0	0	0	509	639	
9	0	0	0	0	510	637	
10	0	0	0	0	509	639	
11	0	0	0	0	510	639	
12	0	0	0	0	509	641	
13	0	0	0	0	507	642	
14	0	0	0	0	510	643	
15	0	0	0	0	511	645	
0	0	0	0	0	509	647	
1	0	0	0	0	511	648	
2	0	0	0	0	512	652	
3	0	0	0	0	516	657	
4	0	0	0	0	510	657	
5	0	0	0	0	510	657	
6	0	0	0	0	508	657	
7	0	0	0	0	504	655	
8	0	0	0	0	503	654	
9	0	0	0	0	506	651	
10	0	0	0	0	504	651	
11	0	0	0	0	503	653	
12	0	0	0	0	505	656	
13	0	0	0	0	508	659	
14	0	0	0	0	510	663	
15	0	0	0	0	511	664	
0	0	0	0	0	512	664	
1	0	0	0	0	514	664	
2	0	0	0	0	516	666	
3	0	0	0	0	517	671	
4	0	0	0	0	518	671	
5	0	0	0	0	515	672	
6	0	0	0	0	513	670	
7	0	0	0	0	513	669	
8	0	0	0	0	510	665	
9	0	0	0	0	512	662	
10	0	0	0	0	512	656	
11	0	0	0	0	506	655	
12	0	0	0	0	505	654	
13	0	0	0	0	508	654	
14	0	0	0	0	504	654	
15	0	0	0	0	507	653	
0	0	0	0	0	506	654	
1	0	0	0	0	505	655	
2	0	0	0	0	511	655	
3	0	0	0	0	508	656	
4	0	0	0	0	509	661	
5	0	0	0	0	512	662	
6	0	0	0	0	510	660	
7	0	0	0	0	509	659	
8	0	0	0	0	505	656	
9	0	0	0	0	510	652	
10	0	0	0	0	511	647	
11	0	0	0	0	511	645	
12	0	0	0	0	509	645	
13	0	0	0	0	510	645	
14	0	0	0	0	512	643	
15	0	0	0	0	511	642	
0	0	0	0	0	508	641	
1	0	0	0	0	511	641	
2	0	0	0	0	510	640	
3	0	0	0	0	509	640	
4	0	0	0	0	507	642	
5	0	0	0	0	507	646	
6	0	0	0	0	504	646	
7	0	0	0	0	508	641	
8	0	0	0	0	508	637	
9	0	0	0	0	504	632	
10	0	0	0	0	506	627	
11	0	0	0	0	510	620	
12	0	0	0	0	506	617	
13	0	0	0	0	506	615	
14	0	0	0	0	508	612	
15	0	0	0	0	507	612	
0	0	0	0	0	508	611	
1	0	0	0	0	507	611	
2	0	0	0	0	508	612	
3	0	0	0	0	509	612	
4	0	0	0	0	508	614	
5	0	0	0	0	514	619	
6	0	0	0	0	516	621	
7	0	0	0	0	515	620	
8	0	0	0	0	510	620	
9	0	0	0	0	509	617	
10	0	0	0	0	507	613	
11	0	0	0	0	510	609	
12	0	0	0	0	510	605	
13	0	0	0	0	507	605	
14	0	0	0	0	508	605	
15	0	0	0	0	507	606	
0	0	0	0	0	510	606	
1	0	0	0	0	508	608	
2	0	0	0	0	507	609	
3	0	0	0	0	508	610	
4	0	0	0	0	508	614	
5	0	0	0	0	511	619	
6	0	0	0	0	509	626	
7	0	0	0	0	508	631	
8	0	0	0	0	511	633	
9	0	0	0	0	512	632	
10	0	0	0	0	509	631	
11	0	0	0	0	510	628	
12	0	0	0	0	509	626	
13	0	0	0	0	507	624	
14	0	0	0	0	509	625	
15	0	0	0	0	511	625	
0	0	0	0	0	510	627	
1	0	0	0	0	510	628	
2	0	0	0	0	514	628	
3	0	0	0	0	512	627	
4	0	0	0	0	512	627	
5	0	0	0	0	512	627	
6	0	0	0	0	512	628	
7	0	0	0	0	513	631	
8	0	0	0	0	512	629	
9	0	0	0	0	508	627	
10	0	0	0	0	508	625	
11	0	0	0	0	504	622	
12	0	0	0	0	508	617	
13	0	0	0	0	510	615	
14	0	0	0	0	507	617	
15	0	0	0	0	505	617	
0	0	0	0	0	508	617	
1	0	0	0	0	505	618	
2	0	0	0	0	506	619	
3	0	0	0	0	505	621	
4	0	0	0	0	507	623	
5	0	0	0	0	510	625	
6	0	0	0	0	512	630	
7	0	0	0	0	509	639	
8	0	0	0	0	512	645	
9	0	0	0	0	511	647	
10	0	0	0	0	514	648	
11	0	0	0	0	509	648	
12	0	0	0	0	508	646	
13	0	0	0	0	510	644	
14	0	0	0	0	507	641	
15	0	0	0	0	508	642	
0	0	0	0	0	509	643	
1	0	0	0	0	509	642	
2	0	0	0	0	513	642	
3	0	0	0	0	515	640	
4	0	0	0	0	513	638	
5	0	0	0	0	511	636	
6	0	0	0	0	514	633	
7	0	0	0	0	512	631	
8	0	0	0	0	507	633	
9	0	0	0	0	509	632	
10	0	0	0	0	505	628	
11	0	0	0	0	505	624	
12	0	0	0	0	508	620	
13	0	0	0	0	506	614	
14	0	0	0	0	509	608	
15	0	0	0	0	509	604	
0	0	0	0	0	503	603	
1	0	0	0	0	509	602	
2	0	0	0	0	512	602	
3	0	0	0	0	515	603	
4	0	0	0	0	512	603	
5	0	0	0	0	513	603	
6	0	0	0	0	508	603	
7	0	0	0	0	516	605	
8	0	0	0	0	519	607	
9	0	0	0	0	516	611	
10	0	0	0	0	512	611	
11	0	0	0	0	510	611	
12	0	0	0	0	509	610	
13	0	0	0	0	505	608	
14	0	0	0	0	506	607	
15	0	0	0	0	510	604	
0	0	0	0	0	504	605	
1	0	0	0	0	508	606	
2	0	0	0	0	512	608	
3	0	0	0	0	510	608	
4	0	0	0	0	514	608	
5	0	0	0	0	514	610	
6	0	0	0	0	512	609	
7	0	0	0	0	509	611	
8	0	0	0	0	513	613	
9	0	0	0	0	510	619	
10	0	0	0	0	513	622	
11	0	0	0	0	508	623	
12	0	0	0	0	508	624	
13	0	0	0	0	506	624	
14	0	0	0	0	505	621	
15	0	0	0	0	505	617	
0	0	0	0	0	504	614	
1	0	0	0	0	505	614	
2	0	0	0	0	506	613	
3	0	0	0	0	506	614	
4	0	0	0	0	506	615	
5	0	0	0	0	508	616	
6	0	0	0	0	508	616	
7	0	0	0	0	506	616	
8	0	0	0	0	506	617	
9	0	0	0	0	508	620	
10	0	0	0	0	513	625	
11	0	0	0	0	513	625	
12	0	0	0	0	512	624	
13	0	0	0	0	509	622	
14	0	0	0	0	509	620	
15	0	0	0	0	503	617	
0	0	0	0	0	508	615	
1	0	0	0	0	506	613	
2	0	0	0	0	507	615	
3	0	0	0	0	511	616	
4	0	0	0	0	507	617	
5	0	0	0	0	507	620	
6	0	0	0	0	508	621	
7	0	0	0	0	506	623	
8	0	0	0	0	510	622	
9	0	0	0	0	509	622	
10	0	0	0	0	509	624	
11	0	0	0	0	512	627	
12	0	0	0	0	511	627	
13	0	0	0	0	508	627	
14	0	0	0	0	508	626	
15	0	0	0	0	503	624	
0	0	0	0	0	506	620	
1	0	0	0	0	508	615	
2	0	0	0	0	504	614	
3	0	0	0	0	506	614	
4	0	0	0	0	509	614	
5	0	0	0	0	506	613	
6	0	0	0	0	508	614	
7	0	0	0	0	509	615	
8	0	0	0	0	510	616	
9	0	0	0	0	510	618	
10	0	0	0	0	511	619	
11	0	0	0	0	511	624	
12	0	0	0	0	516	626	
13	0	0	0	0	510	625	
14	0	0	0	0	506	622	
15	0	0	0	0	512	620	
0	0	0	0	0	511	616	
1	0	0	0	0	510	612	
2	0	0	0	0	511	608	
3	0	0	0	0	508	607	
4	0	0	0	0	511	606	
5	0	0	0	0	512	606	
6	0	0	0	0	513	606	
7	0	0	0	0	513	605	
8	0	0	0	0	513	604	
9	0	0	0	0	513	604	
10	0	0	0	0	513	604	
11	0	0	0	0	513	605	
12	0	0	0	0	516	609	
13	0	0	0	0	513	608	
14	0	0	0	0	508	606	
15	0	0	0	0	509	603	
0	0	0	0	0	507	599	
1	0	0	0	0	507	593	
2	0	0	0	0	515	588	
3	0	0	0	0	510	584	
4	0	0	0	0	505	584	
5	0	0	0	0	507	585	
6	0	0	0	0	505	585	
7	0	0	0	0	508	585	
8	0	0	0	0	508	585	
9	0	0	0	0	509	586	
10	0	0	0	0	508	587	
11	0	0	0	0	512	588	
12	0	0	0	0	512	591	
13	0	0	0	0	512	596	
14	0	0	0	0	509	596	
15	0	0	0	0	509	596	
0	0	0	0	0	512	596	
1	0	0	0	0	508	592	
2	0	0	0	0	508	588	
3	0	0	0	0	507	583	
4	0	0	0	0	507	582	
5	0	0	0	0	508	583	
6	0	0	0	0	509	584	
7	0	0	0	0	508	585	
8	0	0	0	0	509	585	
9	0	0	0	0	511	584	
10	0	0	0	0	512	583	
11	0	0	0	0	519	584	
12	0	0	0	0	524	585	
13	0	0	0	0	517	587	
14	0	0	0	0	522	588	
15	0	0	0	0	520	585	
0	0	0	0	0	516	580	
1	0	0	0	0	511	577	
2	0	0	0	0	510	572	
3	0	0	0	0	511	567	
4	0	0	0	0	508	562	
5	0	0	0	0	514	563	
6	0	0	0	0	513	566	
7	0	0	0	0	512	569	
8	0	0	0	0	512	572	
9	0	0	0	0	515	574	
10	0	0	0	0	512	576	
11	0	0	0	0	510	579	
12	0	0	0	0	510	583	
13	0	0	0	0	511	585	
14	0	0	0	0	506	590	
15	0	0	0	0	501	592	
0	0	0	0	0	494	594	
1	0	0	0	0	495	593	
2	0	0	0	0	487	593	
3	0	0	0	0	488	593	
4	0	0	0	0	492	591	
5	0	0	0	0	489	591	
6	0	0	0	0	485	595	
7	0	0	0	0	484	601	
8	0	0	0	0	486	607	
9	0	0	0	0	482	615	
10	0	0	0	0	481	620	
11	0	0	0	0	484	621	
12	0	0	0	0	484	623	
13	0	0	0	0	492	624	
14	0	0	0	0	496	627	
15	0	0	0	0	500	630	
0	0	0	0	0	509	628	
1	0	0	0	0	505	623	
2	0	0	0	0	511	616	
3	0	0	0	0	515	608	
4	0	0	0	0	524	598	
5	0	0	0	0	527	588	
6	0	0	0	0	527	579	
7	0	0	0	0	528	571	
8	0	0	0	0	527	562	
9	0	0	0	0	536	555	
10	0	0	0	0	534	548	
11	0	0	0	0	536	540	
12	0	0	0	0	537	533	
13	0	0	0	0	534	525	
14	0	0	0	0	529	523	
15	0	0	0	0	516	527	
0	0	0	0	0	518	527	
1	0	0	0	0	515	529	
2	0	0	0	0	514	531	
3	0	0	0	0	506	533	
4	0	0	0	0	506	534	
5	0	0	0	0	512	535	
6	0	0	0	0	516	534	
7	0	0	0	0	512	538	
8	0	0	0	0	516	543	
9	0	0	0	0	517	547	
10	0	0	0	0	519	552	
11	0	0	0	0	519	556	
12	0	0	0	0	515	560	
13	0	0	0	0	516	563	
14	0	0	0	0	518	566	
15	0	0	0	0	518	570	
0	0	0	0	0	515	575	
1	0	0	0	0	512	578	
2	0	0	0	0	511	578	
3	0	0	0	0	511	577	
4	0	0	0	0	512	576	
5	0	0	0	0	513	575	
6	0	0	0	0	515	573	
7	0	0	0	0	510	573	
8	0	0	0	0	509	575	
9	0	0	0	0	511	576	
10	0	0	0	0	509	576	
11	0	0	0	0	506	575	
12	0	0	0	0	506	575	
13	0	0	0	0	507	575	
14	0	0	0	0	505	574	
15	0	0	0	0	508	575	
0	0	0	0	0	507	579	
1	0	0	0	0	510	581	
2	0	0	0	0	506	580	
3	0	0	0	0	507	579	
4	0	0	0	0	505	577	
5	0	0	0	0	504	573	
6	0	0	0	0	503	569	
7	0	0	0	0	502	564	
8	0	0	0	0	501	562	
9	0	0	0	0	501	560	
10	0	0	0	0	500	560	
11	0	0	0	0	506	562	
12	0	0	0	0	508	563	
13	0	0	0	0	508	566	
14	0	0	0	0	509	565	
15	0	0	0	0	509	566	
0	0	0	0	0	511	568	
1	0	0	0	0	510	572	
2	0	0	0	0	514	572	
3	0	0	0	0	511	572	
4	0	0	0	0	509	571	
5	0	0	0	0	505	569	
6	0	0	0	0	507	565	
7	0	0	0	0	510	561	
8	0	0	0	0	510	558	
9	0	0	0	0	506	560	
10	0	0	0	0	506	560	
11	0	0	0	0	510	559	
12	0	0	0	0	509	558	
13	0	0	0	0	509	559	
14	0	0	0	0	504	559	
15	0	0	0	0	509	558	
0	0	0	0	0	511	559	
1	0	0	0	0	508	562	
2	0	0	0	0	512	567	
3	0	0	0	0	513	569	
4	0	0	0	0	509	569	
5	0	0	0	0	511	568	
6	0	0	0	0	504	566	
7	0	0	0	0	507	562	
8	0	0	0	0	510	559	
9	0	0	0	0	507	558	
10	0	0	0	0	506	558	
11	0	0	0	0	506	559	
12	0	0	0	0	508	560	
13	0	0	0	0	506	562	
14	0	0	0	0	514	563	
15	0	0	0	0	512	564	
0	0	0	0	0	508	564	
1	0	0	0	0	512	567	
2	0	0	0	0	511	572	
3	0	0	0	0	512	575	
4	0	0	0	0	507	576	
5	0	0	0	0	513	574	
6	0	0	0	0	512	574	
7	0	0	0	0	510	571	
8	0	0	0	0	507	567	
9	0	0	0	0	508	563	
10	0	0	0	0	508	563	
11	0	0	0	0	507	564	
12	0	0	0	0	511	565	
13	0	0	0	0	512	565	
14	0	0	0	0	512	564	
15	0	0	0	0	513	564	
0	0	0	0	0	512	564	
1	0	0	0	0	508	565	
2	0	0	0	0	515	568	
3	0	0	0	0	512	573	
4	0	0	0	0	513	574	
5	0	0	0	0	511	573	
6	0	0	0	0	510	573	
7	0	0	0	0	509	573	
8	0	0	0	0	507	569	
9	0	0	0	0	505	565	
10	0	0	0	0	503	563	
11	0	0	0	0	505	563	
12	0	0	0	0	508	565	
13	0	0	0	0	503	567	
14	0	0	0	0	512	567	
15	0	0	0	0	513	569	
0	0	0	0	0	510	569	
1	0	0	0	0	512	571	
2	0	0	0	0	511	571	
3	0	0	0	0	510	573	
4	0	0	0	0	511	579	
5	0	0	0	0	509	581	
6	0	0	0	0	512	581	
7	0	0	0	0	510	582	
8	0	0	0	0	508	580	
9	0	0	0	0	509	577	
10	0	0	0	0	510	575	
11	0	0	0	0	509	573	
12	0	0	0	0	508	574	
13	0	0	0	0	510	575	
14	0	0	0	0	510	576	
15	0	0	0	0	509	577	
0	0	0	0	0	510	579	
1	0	0	0	0	508	582	
2	0	0	0	0	507	583	
3	0	0	0	0	512	584	
4	0	0	0	0	512	591	
5	0	0	0	0	514	593	
6	0	0	0	0	512	593	
7	0	0	0	0	511	594	
8	0	0	0	0	506	592	
9	0	0	0	0	505	588	
10	0	0	0	0	505	582	
11	0	0	0	0	507	577	
12	0	0	0	0	505	579	
13	0	0	0	0	507	579	
14	0	0	0	0	510	579	
15	0	0	0	0	511	578	
0	0	0	0	0	508	577	
1	0	0	0	0	511	576	
2	0	0	0	0	511	574	
3	0	0	0	0	509	574	
4	0	0	0	0	511	575	
5	0	0	0	0	509	577	
6	0	0	0	0	511	578	
7	0	0	0	0	509	577	
8	0	0	0	0	511	576	
9	0	0	0	0	511	571	
10	0	0	0	0	510	566	
11	0	0	0	0	510	559	
12	0	0	0	0	510	556	
13	0	0	0	0	503	556	
14	0	0	0	0	504	558	
15	0	0	0	0	507	558	
0	0	0	0	0	512	557	
1	0	0	0	0	511	556	
2	0	0	0	0	507	554	
3	0	0	0	0	514	552	
4	0	0	0	0	513	551	
5	0	0	0	0	510	551	
6	0	0	0	0	511	555	
7	0	0	0	0	510	555	
8	0	0	0	0	511	553	
9	0	0	0	0	511	552	
10	0	0	0	0	508	549	
11	0	0	0	0	507	541	
12	0	0	0	0	511	535	
13	0	0	0	0	510	530	
14	0	0	0	0	504	528	
15	0	0	0	0	504	527	
0	0	0	0	0	505	526	
1	0	0	0	0	510	526	
2	0	0	0	0	508	524	
3	0	0	0	0	507	522	
4	0	0	0	0	507	520	
5	0	0	0	0	509	520	
6	0	0	0	0	510	523	
7	0	0	0	0	515	524	
8	0	0	0	0	513	522	
9	0	0	0	0	508	520	
10	0	0	0	0	510	517	
11	0	0	0	0	508	512	
12	0	0	0	0	510	507	
13	0	0	0	0	507	504	
14	0	0	0	0	503	502	
15	0	0	0	0	505	500	
0	0	0	0	0	510	500	
1	0	0	0	0	511	499	
2	0	0	0	0	508	500	
3	0	0	0	0	510	499	
4	0	0	0	0	508	499	
5	0	0	0	0	509	499	
6	0	0	0	0	508	503	
7	0	0	0	0	507	509	
8	0	0	0	0	512	511	
9	0	0	0	0	512	510	
10	0	0	0	0	507	510	
11	0	0	0	0	509	508	
12	0	0	0	0	506	504	
13	0	0	0	0	512	499	
14	0	0	0	0	511	497	
15	0	0	0	0	506	497	
0	0	0	0	0	507	498	
1	0	0	0	0	511	499	
2	0	0	0	0	511	499	
3	0	0	0	0	512	499	
4	0	0	0	0	511	500	
5	0	0	0	0	509	501	
6	0	0	0	0	505	502	
7	0	0	0	0	515	507	
8	0	0	0	0	510	510	
9	0	0	0	0	510	510	
10	0	0	0	0	511	510	
11	0	0	0	0	511	509	
12	0	0	0	0	507	506	
13	0	0	0	0	508	504	
14	0	0	0	0	509	500	
15	0	0	0	0	506	498	
0	0	0	0	0	508	501	
1	0	0	0	0	511	499	
2	0	0	0	0	512	499	
3	0	0	0	0	513	499	
4	0	0	0	0	510	500	
5	0	0	0	0	509	499	
6	0	0	0	0	513	499	
7	0	0	0	0	512	500	
8	0	0	0	0	509	504	
9	0	0	0	0	514	506	
10	0	0	0	0	514	505	
11	0	0	0	0	511	503	
12	0	0	0	0	508	502	
13	0	0	0	0	507	500	
14	0	0	0	0	507	496	
15	0	0	0	0	509	492	
0	0	0	0	0	506	493	
1	0	0	0	0	508	494	
2	0	0	0	0	508	495	
3	0	0	0	0	508	497	
4	0	0	0	0	512	497	
5	0	0	0	0	510	498	
6	0	0	0	0	509	499	
7	0	0	0	0	510	502	
8	0	0	0	0	510	506	
9	0	0	0	0	510	512	
10	0	0	0	0	512	514	
11	0	0	0	0	512	515	
12	0	0	0	0	510	514	
13	0	0	0	0	507	512	
14	0	0	0	0	507	510	
15	0	0	0	0	510	506	
0	0	0	0	0	505	504	
1	0	0	0	0	507	504	
2	0	0	0	0	511	503	
3	0	0	0	0	511	503	
4	0	0	0	0	512	504	
5	0	0	0	0	508	504	
6	0	0	0	0	503	503	
7	0	0	0	0	516	505	
8	0	0	0	0	518	508	
9	0	0	0	0	511	511	
10	0	0	0	0	513	514	
11	0	0	0	0	508	513	
12	0	0	0	0	509	512	
13	0	0	0	0	510	511	
14	0	0	0	0	505	509	
15	0	0	0	0	507	505	
0	0	0	0	0	512	501	
1	0	0	0	0	508	503	
2	0	0	0	0	509	505	
3	0	0	0	0	508	506	
4	0	0	0	0	506	506	
5	0	0	0	0	508	507	
6	0	0	0	0	505	508	
7	0	0	0	0	509	509	
8	0	0	0	0	513	509	
9	0	0	0	0	515	512	
10	0	0	0	0	511	518	
11	0	0	0	0	515	519	
12	0	0	0	0	513	519	
13	0	0	0	0	511	517	
14	0	0	0	0	505	516	
15	0	0	0	0	504	513	
0	0	0	0	0	504	511	
1	0	0	0	0	506	509	
2	0	0	0	0	505	510	
3	0	0	0	0	509	510	
4	0	0	0	0	511	512	
5	0	0	0	0	514	513	
6	0	0	0	0	515	513	
7	0	0	0	0	515	512	
8	0	0	0	0	517	513	
9	0	0	0	0	516	514	
10	0	0	0	0	519	518	
11	0	0	0	0	512	523	
12	0	0	0	0	513	523	
13	0	0	0	0	508	523	
14	0	0	0	0	508	524	
15	0	0	0	0	502	523	
0	0	0	0	0	507	519	
1	0	0	0	0	503	516	
2	0	0	0	0	502	514	
3	0	0	0	0	499	514	
4	0	0	0	0	504	516	
5	0	0	0	0	507	517	
6	0	0	0	0	508	517	
7	0	0	0	0	509	518	
8	0	0	0	0	509	518	
9	0	0	0	0	509	516	
10	0	0	0	0	508	518	
11	0	0	0	0	508	521	
12	0	0	0	0	513	525	
13	0	0	0	0	516	525	
14	0	0	0	0	513	521	
15	0	0	0	0	508	520	
0	0	0	0	0	508	516	
1	0	0	0	0	508	512	
2	0	0	0	0	509	508	
3	0	0	0	0	509	508	
4	0	0	0	0	508	512	
5	0	0	0	0	509	516	
6	0	0	0	0	509	518	
7	0	0	0	0	510	521	
8	0	0	0	0	511	522	
9	0	0	0	0	508	523	
10	0	0	0	0	511	524	
11	0	0	0	0	506	526	
12	0	0	0	0	507	530	
13	0	0	0	0	511	532	
14	0	0	0	0	508	532	
15	0	0	0	0	505	530	
0	0	0	0	0	504	529	
1	0	0	0	0	507	527	
2	0	0	0	0	508	525	
3	0	0	0	0	511	521	
4	0	0	0	0	505	521	
5	0	0	0	0	504	522	
6	0	0	0	0	509	522	
7	0	0	0	0	509	523	
8	0	0	0	0	511	524	
9	0	0	0	0	511	525	
10	0	0	0	0	509	526	
11	0	0	0	0	507	527	
12	0	0	0	0	511	529	
13	0	0	0	0	512	533	
14	0	0	0	0	508	534	
15	0	0	0	0	511	533	
0	0	0	0	0	513	532	
1	0	0	0	0	510	528	
2	0	0	0	0	509	524	
3	0	0	0	0	515	519	
4	0	0	0	0	512	514	
5	0	0	0	0	504	513	
6	0	0	0	0	503	510	
7	0	0	0	0	513	509	
8	0	0	0	0	511	508	
9	0	0	0	0	508	509	
10	0	0	0	0	511	508	
11	0	0	0	0	510	508	
12	0	0	0	0	509	510	
13	0	0	0	0	515	513	
14	0	0	0	0	515	516	
15	0	0	0	0	512	516	
0	0	0	0	0	510	513	
1	0	0	0	0	508	510	
2	0	0	0	0	504	507	
3	0	0	0	0	509	503	
4	0	0	0	0	511	499	
5	0	0	0	0	510	498	
6	0	0	0	0	507	499	
7	0	0	0	0	507	499	
8	0	0	0	0	514	497	
9	0	0	0	0	511	497	
10	0	0	0	0	511	498	
11	0	0	0	0	507	499	
12	0	0	0	0	510	500	
13	0	0	0	0	512	503	
14	0	0	0	0	514	508	
15	0	0	0	0	516	510	
0	0	0	0	0	513	509	
1	0	0	0	0	510	507	
2	0	0	0	0	507	505	
3	0	0	0	0	506	502	
4	0	0	0	0	508	498	
5	0	0	0	0	507	496	
6	0	0	0	0	503	496	
7	0	0	0	0	508	497	
8	0	0	0	0	508	499	
9	0	0	0	0	511	500	
10	0	0	0	0	514	499	
11	0	0	0	0	515	499	
12	0	0	0	0	513	499	
13	0	0	0	0	513	499	
14	0	0	0	0	514	498	
15	0	0	0	0	519	499	
0	0	0	0	0	519	498	
1	0	0	0	0	520	496	
2	0	0	0	0	516	493	
3	0	0	0	0	513	489	
4	0	0	0	0	512	484	
5	0	0	0	0	515	478	
6	0	0	0	0	510	474	
7	0	0	0	0	507	476	
8	0	0	0	0	506	476	
9	0	0	0	0	507	478	
10	0	0	0	0	508	482	
11	0	0	0	0	509	487	
12	0	0	0	0	516	491	
13	0	0	0	0	521	494	
14	0	0	0	0	516	497	
15	0	0	0	0	514	505	
0	0	0	0	0	514	508	
1	0	0	0	0	508	511	
2	0	0	0	0	500	511	
3	0	0	0	0	499	510	
4	0	0	0	0	492	509	
5	0	0	0	0	492	510	
6	0	0	0	0	490	511	
7	0	0	0	0	488	513	
8	0	0	0	0	493	519	
9	0	0	0	0	495	524	
10	0	0	0	0	491	529	
11	0	0	0	0	486	537	
12	0	0	0	0	483	546	
13	0	0	0	0	485	553	
14	0	0	0	0	490	558	
15	0	0	0	0	489	561	
0	0	0	0	0	489	567	
1	0	0	0	0	494	569	
2	0	0	0	0	498	568	
3	0	0	0	0	500	564	
4	0	0	0	0	502	558	
5	0	0	0	0	510	548	
6	0	0	0	0	513	539	
7	0	0	0	0	521	529	
8	0	0	0	0	524	520	
9	0	0	0	0	530	510	
10	0	0	0	0	530	498	
11	0	0	0	0	530	487	
12	0	0	0	0	531	474	
13	0	0	0	0	532	463	
14	0	0	0	0	533	455	
15	0	0	0	0	533	449	
0	0	0	0	0	531	446	
1	0	0	0	0	529	446	
2	0	0	0	0	524	445	
3	0	0	0	0	514	445	
4	0	0	0	0	509	446	
5	0	0	0	0	501	446	
6	0	0	0	0	498	445	
7	0	0	0	0	507	445	
8	0	0	0	0	504	447	
9	0	0	0	0	509	451	
10	0	0	0	0	509	457	
11	0	0	0	0	511	463	
12	0	0	0	0	511	468	
13	0	0	0	0	512	472	
14	0	0	0	0	519	476	
15	0	0	0	0	517	482	
0	0	0	0	0	517	488	
1	0	0	0	0	516	496	
2	0	0	0	0	519	502	
3	0	0	0	0	516	504	
4	0	0	0	0	516	506	
5	0	0	0	0	514	507	
6	0	0	0	0	511	506	
7	0	0	0	0	516	504	
8	0	0	0	0	517	502	
9	0	0	0	0	516	503	
10	0	0	0	0	515	505	
11	0	0	0	0	514	507	
12	0	0	0	0	517	508	
13	0	0	0	0	515	510	
14	0	0	0	0	515	510	
15	0	0	0	0	511	511	
0	0	0	0	0	509	512	
1	0	0	0	0	513	513	
2	0	0	0	0	513	514	
3	0	0	0	0	512	513	
4	0	0	0	0	511	514	
5	0	0	0	0	504	515	
6	0	0	0	0	499	514	
7	0	0	0	0	501	512	
8	0	0	0	0	503	508	
9	0	0	0	0	502	508	
10	0	0	0	0	499	509	
11	0	0	0	0	500	509	
12	0	0	0	0	505	510	
13	0	0	0	0	509	510	
14	0	0	0	0	504	510	
15	0	0	0	0	506	511	
0	0	0	0	0	504	512	
1	0	0	0	0	507	515	
2	0	0	0	0	508	517	
3	0	0	0	0	506	522	
4	0	0	0	0	508	523	
5	0	0	0	0	506	524	
6	0	0	0	0	506	524	
7	0	0	0	0	504	522	
8	0	0	0	0	505	519	
9	0	0	0	0	509	514	
10	0	0	0	0	509	513	
11	0	0	0	0	510	515	
12	0	0	0	0	510	516	
13	0	0	0	0	513	516	
14	0	0	0	0	510	516	
15	0	0	0	0	512	517	
0	0	0	0	0	513	518	
1	0	0	0	0	509	518	
2	0	0	0	0	512	519	
3	0	0	0	0	511	523	
4	0	0	0	0	510	525	
5	0	0	0	0	508	524	
6	0	0	0	0	506	523	
7	0	0	0	0	512	522	
8	0	0	0	0	509	519	
9	0	0	0	0	508	515	
10	0	0	0	0	511	511	
11	0	0	0	0	508	510	
12	0	0	0	0	506	511	
13	0	0	0	0	507	512	
14	0	0	0	0	510	513	
15	0	0	0	0	510	514	
0	0	0	0	0	511	515	
1	0	0	0	0	506	519	
2	0	0	0	0	509	521	
3	0	0	0	0	508	525	
4	0	0	0	0	508	530	
5	0	0	0	0	511	531	
6	0	0	0	0	510	530	
7	0	0	0	0	510	528	
8	0	0	0	0	511	526	
9	0	0	0	0	511	524	
10	0	0	0	0	509	521	
11	0	0	0	0	511	518	
12	0	0	0	0	505	519	
13	0	0	0	0	508	520	
14	0	0	0	0	508	521	
15	0	0	0	0	510	521	
0	0	0	0	0	509	523	
1	0	0	0	0	508	524	
2	0	0	0	0	509	524	
3	0	0	0	0	513	524	
4	0	0	0	0	513	528	
5	0	0	0	0	514	534	
6	0	0	0	0	510	536	
7	0	0	0	0	511	536	
8	0	0	0	0	507	537	
9	0	0	0	0	508	535	
10	0	0	0	0	506	531	
11	0	0	0	0	506	528	
12	0	0	0	0	507	529	
13	0	0	0	0	509	531	
14	0	0	0	0	510	533	
15	0	0	0	0	512	534	
0	0	0	0	0	509	536	
1	0	0	0	0	511	537	
2	0	0	0	0	507	540	
3	0	0	0	0	511	542	
4	0	0	0	0	513	544	
5	0	0	0	0	510	549	
6	0	0	0	0	511	552	
7	0	0	0	0	508	555	
8	0	0	0	0	511	553	
9	0	0	0	0	508	552	
10	0	0	0	0	507	550	
11	0	0	0	0	509	546	
12	0	0	0	0	508	543	
13	0	0	0	0	508	543	
14	0	0	0	0	509	544	
15	0	0	0	0	508	545	
0	0	0	0	0	511	545	
1	0	0	0	0	508	548	
2	0	0	0	0	512	551	
3	0	0	0	0	511	553	
4	0	0	0	0	510	555	
5	0	0	0	0	512	556	
6	0	0	0	0	512	561	
7	0	0	0	0	516	563	
8	0	0	0	0	511	564	
9	0	0	0	0	509	562	
10	0	0	0	0	506	559	
11	0	0	0	0	508	554	
12	0	0	0	0	515	550	
13	0	0	0	0	511	547	
14	0	0	0	0	506	548	
15	0	0	0	0	506	550	
0	0	0	0	0	504	551	
1	0	0	0	0	507	552	
2	0	0	0	0	509	553	
3	0	0	0	0	509	553	
4	0	0	0	0	509	552	
5	0	0	0	0	514	552	
6	0	0	0	0	518	556	
7	0	0	0	0	512	558	
8	0	0	0	0	511	558	
9	0	0	0	0	511	557	
10	0	0	0	0	509	555	
11	0	0	0	0	507	551	
12	0	0	0	0	508	547	
13	0	0	0	0	511	543	
14	0	0	0	0	508	540	
15	0	0	0	0	508	538	
0	0	0	0	0	511	536	
1	0	0	0	0	511	534	
2	0	0	0	0	509	532	
3	0	0	0	0	510	532	
4	0	0	0	0	510	533	
5	0	0	0	0	509	534	
6	0	0	0	0	512	534	
7	0	0	0	0	510	535	
8	0	0	0	0	510	534	
9	0	0	0	0	509	532	
10	0	0	0	0	507	531	
11	0	0	0	0	502	528	
12	0	0	0	0	504	524	
13	0	0	0	0	507	519	
14	0	0	0	0	508	513	
15	0	0	0	0	507	512	
0	0	0	0	0	508	511	
1	0	0	0	0	511	510	
2	0	0	0	0	511	508	
3	0	0	0	0	512	507	
4	0	0	0	0	510	504	
5	0	0	0	0	508	502	
6	0	0	0	0	511	500	
7	0	0	0	0	511	499	
8	0	0	0	0	509	503	
9	0	0	0	0	511	503	
10	0	0	0	0	510	502	
11	0	0	0	0	507	498	
12	0	0	0	0	507	494	
13	0	0	0	0	506	489	
14	0	0	0	0	509	484	
15	0	0	0	0	508	481	
0	0	0	0	0	504	481	
1	0	0	0	0	504	481	
2	0	0	0	0	510	481	
3	0	0	0	0	508	480	
4	0	0	0	0	508	481	
5	0	0	0	0	506	481	
6	0	0	0	0	506	481	
7	0	0	0	0	514	481	
8	0	0	0	0	515	484	
9	0	0	0	0	512	488	
10	0	0	0	0	511	488	
11	0	0	0	0	514	486	
12	0	0	0	0	510	483	
13	0	0	0	0	509	480	
14	0	0	0	0	508	476	
15	0	0	0	0	504	472	
0	0	0	0	0	504	471	
1	0	0	0	0	503	473	
2	0	0	0	0	509	472	
3	0	0	0	0	511	472	
4	0	0	0	0	510	472	
5	0	0	0	0	513	472	
6	0	0	0	0	511	472	
7	0	0	0	0	508	472	
8	0	0	0	0	513	473	
9	0	0	0	0	512	479	
10	0	0	0	0	513	480	
11	0	0	0	0	510	479	
12	0	0	0	0	509	477	
13	0	0	0	0	507	475	
14	0	0	0	0	510	471	
15	0	0	0	0	508	468	
0	0	0	0	0	511	466	
1	0	0	0	0	507	467	
2	0	0	0	0	508	467	
3	0	0	0	0	511	467	
4	0	0	0	0	511	467	
5	0	0	0	0	510	467	
6	0	0	0	0	508	469	
7	0	0	0	0	510	470	
8	0	0	0	0	513	471	
9	0	0	0	0	512	474	
10	0	0	0	0	511	480	
11	0	0	0	0	512	482	
12	0	0	0	0	513	480	
13	0	0	0	0	512	477	
14	0	0	0	0	508	474	
15	0	0	0	0	504	471	
0	0	0	0	0	510	468	
1	0	0	0	0	504	465	
2	0	0	0	0	504	465	
3	0	0	0	0	511	465	
4	0	0	0	0	510	465	
5	0	0	0	0	514	466	
6	0	0	0	0	511	467	
7	0	0	0	0	510	467	
8	0	0	0	0	510	467	
9	0	0	0	0	512	468	
10	0	0	0	0	513	471	
11	0	0	0	0	514	472	
12	0	0	0	0	512	473	
13	0	0	0	0	512	472	
14	0	0	0	0	511	472	
15	0	0	0	0	507	468	
0	0	0	0	0	508	466	
1	0	0	0	0	512	463	
2	0	0	0	0	504	462	
3	0	0	0	0	505	463	
4	0	0	0	0	509	464	
5	0	0	0	0	508	466	
6	0	0	0	0	511	466	
7	0	0	0	0	512	468	
8	0	0	0	0	510	469	
9	0	0	0	0	514	468	
10	0	0	0	0	514	468	
11	0	0	0	0	508	473	
12	0	0	0	0	512	476	
13	0	0	0	0	509	476	
14	0	0	0	0	510	474	
15	0	0	0	0	508	474	
0	0	0	0	0	507	471	
1	0	0	0	0	508	469	
2	0	0	0	0	504	466	
3	0	0	0	0	505	465	
4	0	0	0	0	508	464	
5	0	0	0	0	507	465	
6	0	0	0	0	508	467	
7	0	0	0	0	508	468	
8	0	0	0	0	510	468	
9	0	0	0	0	508	470	
10	0	0	0	0	511	471	
11	0	0	0	0	510	473	
12	0	0	0	0	513	479	
13	0	0	0	0	517	480	
14	0	0	0	0	514	478	
15	0	0	0	0	509	476	
0	0	0	0	0	507	473	
1	0	0	0	0	508	470	
2	0	0	0	0	510	464	
3	0	0	0	0	512	463	
4	0	0	0	0	509	463	
5	0	0	0	0	510	464	
6	0	0	0	0	509	465	
7	0	0	0	0	513	466	
8	0	0	0	0	511	466	
9	0	0	0	0	507	467	
10	0	0	0	0	509	467	
11	0	0	0	0	508	470	
12	0	0	0	0	505	476	
13	0	0	0	0	512	480	
14	0	0	0	0	508	482	
15	0	0	0	0	509	483	
0	0	0	0	0	512	483	
1	0	0	0	0	513	481	
2	0	0	0	0	513	477	
3	0	0	0	0	518	473	
4	0	0	0	0	512	472	
5	0	0	0	0	511	473	
6	0	0	0	0	513	474	
7	0	0	0	0	511	475	
8	0	0	0	0	509	474	
9	0	0	0	0	515	475	
10	0	0	0	0	508	475	
11	0	0	0	0	504	475	
12	0	0	0	0	505	478	
13	0	0	0	0	507	483	
14	0	0	0	0	511	484	
15	0	0	0	0	510	484	
0	0	0	0	0	505	483	
1	0	0	0	0	504	482	
2	0	0	0	0	505	480	
3	0	0	0	0	505	477	
4	0	0	0	0	510	473	
5	0	0	0	0	508	473	
6	0	0	0	0	503	475	
7	0	0	0	0	509	475	
8	0	0	0	0	512	476	
9	0	0	0	0	513	478	
10	0	0	0	0	512	477	
11	0	0	0	0	512	477	
12	0	0	0	0	509	478	
13	0	0	0	0	510	481	
14	0	0	0	0	515	486	
15	0	0	0	0	510	488	
0	0	0	0	0	511	489	
1	0	0	0	0	511	488	
2	0	0	0	0	509	486	
3	0	0	0	0	505	481	
4	0	0	0	0	511	478	
5	0	0	0	0	505	476	
6	0	0	0	0	503	478	
7	0	0	0	0	508	479	
8	0	0	0	0	510	478	
9	0	0	0	0	505	480	
10	0	0	0	0	509	481	
11	0	0	0	0	508	482	
12	0	0	0	0	508	482	
13	0	0	0	0	506	485	
14	0	0	0	0	511	489	
15	0	0	0	0	513	492	
0	0	0	0	0	511	492	
1	0	0	0	0	511	492	
2	0	0	0	0	507	493	
3	0	0	0	0	504	489	
4	0	0	0	0	505	485	
5	0	0	0	0	512	482	
6	0	0	0	0	510	481	
7	0	0	0	0	510	482	
8	0	0	0	0	511	482	
9	0	0	0	0	512	481	
10	0	0	0	0	509	481	
11	0	0	0	0	510	481	
12	0	0	0	0	513	482	
13	0	0	0	0	511	482	
14	0	0	0	0	513	485	
15	0	0	0	0	511	489	
0	0	0	0	0	512	491	
1	0	0	0	0	512	489	
2	0	0	0	0	512	485	
3	0	0	0	0	505	483	
4	0	0	0	0	507	481	
5	0	0	0	0	503	475	
6	0	0	0	0	504	472	
7	0	0	0	0	507	473	
8	0	0	0	0	509	473	
9	0	0	0	0	511	474	
10	0	0	0	0	512	474	
11	0	0	0	0	512	474	
12	0	0	0	0	510	474	
13	0	0	0	0	507	475	
14	0	0	0	0	511	475	
15	0	0	0	0	511	477	
0	0	0	0	0	515	481	
1	0	0	0	0	512	480	
2	0	0	0	0	513	479	
3	0	0	0	0	513	475	
4	0	0	0	0	507	471	
5	0	0	0	0	505	465	
6	0	0	0	0	511	462	
7	0	0	0	0	511	462	
8	0	0	0	0	513	462	
9	0	0	0	0	512	462	
10	0	0	0	0	510	463	
11	0	0	0	0	508	464	
12	0	0	0	0	510	465	
13	0	0	0	0	511	466	
14	0	0	0	0	508	467	
15	0	0	0	0	510	470	
0	0	0	0	0	509	475	
1	0	0	0	0	511	479	
2	0	0	0	0	508	480	
3	0	0	0	0	508	480	
4	0	0	0	0	507	479	
5	0	0	0	0	505	476	
6	0	0	0	0	508	473	
7	0	0	0	0	506	469	
8	0	0	0	0	504	470	
9	0	0	0	0	510	470	
10	0	0	0	0	513	470	
11	0	0	0	0	512	470	
12	0	0	0	0	516	470	
13	0	0	0	0	516	469	
14	0	0	0	0	515	468	
15	0	0	0	0	514	467	
0	0	0	0	0	517	467	
1	0	0	0	0	515	469	
2	0	0	0	0	517	468	
3	0	0	0	0	516	467	
4	0	0	0	0	511	466	
5	0	0	0	0	505	465	
6	0	0	0	0	508	464	
7	0	0	0	0	508	464	
8	0	0	0	0	507	465	
9	0	0	0	0	511	467	
10	0	0	0	0	515	470	
11	0	0	0	0	510	471	
12	0	0	0	0	505	473	
13	0	0	0	0	503	475	
14	0	0	0	0	502	478	
15	0	0	0	0	501	481	
0	0	0	0	0	501	485	
1	0	0	0	0	499	490	
2	0	0	0	0	503	495	
3	0	0	0	0	503	496	
4	0	0	0	0	503	496	
5	0	0	0	0	499	499	
6	0	0	0	0	491	503	
7	0	0	0	0	493	504	
8	0	0	0	0	495	505	
9	0	0	0	0	490	505	
10	0	0	0	0	490	504	
11	0	0	0	0	494	504	
12	0	0	0	0	491	502	
13	0	0	0	0	496	500	
14	0	0	0	0	496	499	
15	0	0	0	0	499	498	
0	0	0	0	0	502	495	
1	0	0	0	0	510	493	
2	0	0	0	0	513	492	
3	0	0	0	0	521	490	
4	0	0	0	0	522	484	
5	0	0	0	0	526	475	
6	0	0	0	0	523	464	
7	0	0	0	0	523	451	
8	0	0	0	0	527	438	
9	0	0	0	0	524	425	
10	0	0	0	0	526	419	
11	0	0	0	0	526	415	
12	0	0	0	0	520	412	
13	0	0	0	0	519	412	
14	0	0	0	0	517	412	
15	0	0	0	0	521	413	
0	0	0	0	0	518	414	
1	0	0	0	0	514	416	
2	0	0	0	0	508	422	
3	0	0	0	0	502	430	
4	0	0	0	0	506	437	
5	0	0	0	0	506	443	
6	0	0	0	0	504	448	
7	0	0	0	0	505	451	
8	0	0	0	0	505	452	
9	0	0	0	0	510	452	
10	0	0	0	0	508	456	
11	0	0	0	0	512	461	
12	0	0	0	0	514	465	
13	0	0	0	0	515	468	
14	0	0	0	0	513	472	
15	0	0	0	0	511	476	
0	0	0	0	0	515	479	
1	0	0	0	0	515	481	
2	0	0	0	0	518	483	
3	0	0	0	0	518	486	
4	0	0	0	0	516	490	
5	0	0	0	0	514	490	
6	0	0	0	0	512	491	
7	0	0	0	0	513	492	
8	0	0	0	0	509	491	
9	0	0	0	0	512	489	
10	0	0	0	0	513	487	
11	0	0	0	0	514	486	
12	0	0	0	0	510	487	
13	0	0	0	0	514	488	
14	0	0	0	0	515	489	
15	0	0	0	0	515	488	
0	0	0	0	0	511	487	
1	0	0	0	0	510	487	
2	0	0	0	0	510	486	
3	0	0	0	0	508	487	
4	0	0	0	0	508	492	
5	0	0	0	0	505	494	
6	0	0	0	0	506	494	
7	0	0	0	0	507	494	
8	0	0	0	0	503	493	
9	0	0	0	0	502	488	
10	0	0	0	0	504	484	
11	0	0	0	0	506	481	
12	0	0	0	0	499	483	
13	0	0	0	0	504	485	
14	0	0	0	0	507	487	
15	0	0	0	0	506	487	
0	0	0	0	0	510	487	
1	0	0	0	0	512	486	
2	0	0	0	0	509	486	
3	0	0	0	0	512	486	
4	0	0	0	0	507	487	
5	0	0	0	0	509	492	
6	0	0	0	0	511	494	
7	0	0	0	0	509	493	
8	0	0	0	0	506	493	
9	0	0	0	0	504	492	
10	0	0	0	0	504	490	
11	0	0	0	0	507	484	
12	0	0	0	0	509	484	
13	0	0	0	0	507	486	
14	0	0	0	0	505	487	
15	0	0	0	0	508	488	
0	0	0	0	0	513	488	
1	0	0	0	0	510	488	
2	0	0	0	0	512	488	
3	0	0	0	0	511	488	
4	0	0	0	0	512	489	
5	0	0	0	0	511	496	
6	0	0	0	0	517	497	
7	0	0	0	0	512	496	
8	0	0	0	0	505	495	
9	0	0	0	0	508	495	
10	0	0	0	0	502	493	
11	0	0	0	0	503	491	
12	0	0	0	0	506	488	
13	0	0	0	0	502	488	
14	0	0	0	0	509	489	
15	0	0	0	0	511	491	
0	0	0	0	0	509	491	
1	0	0	0	0	511	492	
2	0	0	0	0	510	493	
3	0	0	0	0	508	494	
4	0	0	0	0	512	495	
5	0	0	0	0	512	497	
6	0	0	0	0	513	502	
7	0	0	0	0	515	504	
8	0	0	0	0	510	503	
9	0	0	0	0	512	502	
10	0	0	0	0	511	502	
11	0	0	0	0	505	499	
12	0	0	0	0	509	498	
13	0	0	0	0	509	496	
14	0	0	0	0	507	496	
15	0	0	0	0	509	497	
0	0	0	0	0	508	498	
1	0	0	0	0	511	499	
2	0	0	0	0	511	498	
3	0	0	0	0	510	498	
4	0	0	0	0	510	498	
5	0	0	0	0	512	499	
6	0	0	0	0	511	503	
7	0	0	0	0	510	507	
8	0	0	0	0	511	509	
9	0	0	0	0	512	509	
10	0	0	0	0	509	509	
11	0	0	0	0	509	507	
12	0	0	0	0	510	504	
13	0	0	0	0	511	499	
14	0	0	0	0	511	497	
15	0	0	0	0	505	498	
0	0	0	0	0	508	499	
1	0	0	0	0	512	500	
2	0	0	0	0	509	501	
3	0	0	0	0	506	502	
4	0	0	0	0	510	503	
5	0	0	0	0	509	504	
6	0	0	0	0	509	506	
7	0	0	0	0	512	512	
8	0	0	0	0	513	515	
9	0	0	0	0	510	515	
10	0	0	0	0	508	515	
11	0	0	0	0	511	514	
12	0	0	0	0	509	511	
13	0	0	0	0	506	508	
14	0	0	0	0	504	504	
15	0	0	0	0	510	504	
0	0	0	0	0	509	504	
1	0	0	0	0	509	506	
2	0	0	0	0	510	507	
3	0	0	0	0	510	507	
4	0	0	0	0	508	509	
5	0	0	0	0	506	510	
6	0	0	0	0	509	511	
7	0	0	0	0	511	513	
8	0	0	0	0	505	520	
9	0	0	0	0	513	522	
10	0	0	0	0	510	521	
11	0	0	0	0	511	520	
12	0	0	0	0	508	520	
13	0	0	0	0	507	516	
14	0	0	0	0	507	513	
15	0	0	0	0	510	510	
0	0	0	0	0	507	509	
1	0	0	0	0	508	511	
2	0	0	0	0	511	511	
3	0	0	0	0	516	510	
4	0	0	0	0	515	509	
5	0	0	0	0	512	509	
6	0	0	0	0	512	508	
7	0	0	0	0	510	506	
8	0	0	0	0	511	505	
9	0	0	0	0	513	508	
10	0	0	0	0	510	508	
11	0	0	0	0	510	508	
12	0	0	0	0	510	506	
13	0	0	0	0	506	502	
14	0	0	0	0	508	499	
15	0	0	0	0	513	494	
0	0	0	0	0	509	490	
1	0	0	0	0	508	489	
2	0	0	0	0	508	488	
3	0	0	0	0	507	488	
4	0	0	0	0	510	487	
5	0	0	0	0	508	486	
6	0	0	0	0	510	485	
7	0	0	0	0	512	484	
8	0	0	0	0	512	484	
9	0	0	0	0	511	489	
10	0	0	0	0	513	487	
11	0	0	0	0	510	485	
12	0	0	0	0	508	482	
13	0	0	0	0	508	479	
14	0	0	0	0	503	474	
15	0	0	0	0	509	468	
0	0	0	0	0	513	464	
1	0	0	0	0	505	463	
2	0	0	0	0	503	463	
3	0	0	0	0	505	461	
4	0	0	0	0	510	460	
5	0	0	0	0	510	458	
6	0	0	0	0	513	457	
7	0	0	0	0	511	456	
8	0	0	0	0	511	455	
9	0	0	0	0	512	455	
10	0	0	0	0	509	457	
11	0	0	0	0	511	455	
12	0	0	0	0	511	453	
13	0	0	0	0	508	451	
14	0	0	0	0	506	448	
15	0	0	0	0	500	444	
0	0	0	0	0	507	440	
1	0	0	0	0	510	435	
2	0	0	0	0	505	433	
3	0	0	0	0	508	433	
4	0	0	0	0	509	433	
5	0	0	0	0	509	434	
6	0	0	0	0	507	433	
7	0	0	0	0	513	432	
8	0	0	0	0	511	431	
9	0	0	0	0	508	432	
10	0	0	0	0	513	434	
11	0	0	0	0	513	439	
12	0	0	0	0	514	440	
13	0	0	0	0	507	439	
14	0	0	0	0	509	436	
15	0	0	0	0	506	434	
0	0	0	0	0	507	430	
1	0	0	0	0	510	426	
2	0	0	0	0	504	424	
3	0	0	0	0	508	424	
4	0	0	0	0	507	424	
5	0	0	0	0	508	425	
6	0	0	0	0	508	426	
7	0	0	0	0	505	428	
8	0	0	0	0	510	430	
9	0	0	0	0	510	432	
10	0	0	0	0	512	433	
11	0	0	0	0	512	437	
12	0	0	0	0	515	438	
13	0	0	0	0	513	437	
14	0	0	0	0	514	435	
15	0	0	0	0	511	435	
0	0	0	0	0	509	432	
1	0	0	0	0	508	429	
2	0	0	0	0	509	427	
3	0	0	0	0	508	426	
4	0	0	0	0	511	427	
5	0	0	0	0	514	427	
6	0	0	0	0	512	428	
7	0	0	0	0	510	427	
8	0	0	0	0	509	428	
9	0	0	0	0	506	429	
10	0	0	0	0	510	429	
11	0	0	0	0	511	431	
12	0	0	0	0	510	437	
13	0	0	0	0	508	440	
14	0	0	0	0	512	438	
15	0	0	0	0	511	435	
0	0	0	0	0	505	433	
1	0	0	0	0	505	430	
2	0	0	0	0	509	428	
3	0	0	0	0	509	425	
4	0	0	0	0	507	427	
5	0	0	0	0	505	428	
6	0	0	0	0	514	428	
7	0	0	0	0	517	427	
8	0	0	0	0	511	426	
9	0	0	0	0	511	427	
10	0	0	0	0	507	428	
11	0	0	0	0	514	430	
12	0	0	0	0	513	432	
13	0	0	0	0	514	437	
14	0	0	0	0	511	438	
15	0	0	0	0	510	438	
0	0	0	0	0	508	436	
1	0	0	0	0	507	433	
2	0	0	0	0	507	428	
3	0	0	0	0	511	425	
4	0	0	0	0	506	423	
5	0	0	0	0	506	423	
6	0	0	0	0	508	424	
7	0	0	0	0	510	427	
8	0	0	0	0	510	430	
9	0	0	0	0	508	430	
10	0	0	0	0	505	430	
11	0	0	0	0	514	431	
12	0	0	0	0	513	431	
13	0	0	0	0	509	437	
14	0	0	0	0	515	437	
15	0	0	0	0	510	438	
0	0	0	0	0	506	439	
1	0	0	0	0	508	440	
2	0	0	0	0	507	437	
3	0	0	0	0	512	434	
4	0	0	0	0	508	430	
5	0	0	0	0	508	432	
6	0	0	0	0	508	432	
7	0	0	0	0	508	433	
8	0	0	0	0	513	435	
9	0	0	0	0	511	436	
10	0	0	0	0	508	435	
11	0	0	0	0	507	436	
12	0	0	0	0	507	437	
13	0	0	0	0	515	440	
14	0	0	0	0	510	444	
15	0	0	0	0	511	447	
0	0	0	0	0	510	448	
1	0	0	0	0	510	448	
2	0	0	0	0	508	448	
3	0	0	0	0	509	444	
4	0	0	0	0	513	440	
5	0	0	0	0	504	438	
6	0	0	0	0	509	438	
7	0	0	0	0	509	439	
8	0	0	0	0	507	440	
9	0	0	0	0	509	439	
10	0	0	0	0	510	439	
11	0	0	0	0	511	439	
12	0	0	0	0	508	439	
13	0	0	0	0	511	441	
14	0	0	0	0	508	447	
15	0	0	0	0	512	451	
0	0	0	0	0	515	452	
1	0	0	0	0	511	453	
2	0	0	0	0	514	454	
3	0	0	0	0	513	450	
4	0	0	0	0	515	445	
5	0	0	0	0	519	441	
6	0	0	0	0	509	439	
7	0	0	0	0	514	438	
8	0	0	0	0	513	439	
9	0	0	0	0	511	440	
10	0	0	0	0	508	441	
11	0	0	0	0	512	444	
12	0	0	0	0	509	444	
13	0	0	0	0	508	443	
14	0	0	0	0	510	443	
15	0	0	0	0	505	447	
0	0	0	0	0	509	449	
1	0	0	0	0	511	450	
2	0	0	0	0	507	449	
3	0	0	0	0	501	448	
4	0	0	0	0	496	445	
5	0	0	0	0	500	443	
6	0	0	0	0	504	441	
7	0	0	0	0	506	442	
8	0	0	0	0	507	443	
9	0	0	0	0	512	444	
10	0	0	0	0	510	446	
11	0	0	0	0	510	446	
12	0	0	0	0	513	446	
13	0	0	0	0	512	447	
14	0	0	0	0	510	448	
15	0	0	0	0	510	450	
0	0	0	0	0	510	454	
1	0	0	0	0	510	455	
2	0	0	0	0	509	455	
3	0	0	0	0	510	455	
4	0	0	0	0	506	454	
5	0	0	0	0	508	450	
6	0	0	0	0	512	444	
7	0	0	0	0	507	444	
8	0	0	0	0	504	445	
9	0	0	0	0	508	445	
10	0	0	0	0	512	445	
11	0	0	0	0	511	447	
12	0	0	0	0	506	448	
13	0	0	0	0	509	450	
14	0	0	0	0	505	451	
15	0	0	0	0	507	452	
0	0	0	0	0	505	455	
1	0	0	0	0	512	460	
2	0	0	0	0	514	461	
3	0	0	0	0	510	460	
4	0	0	0	0	510	458	
5	0	0	0	0	503	457	
6	0	0	0	0	508	454	
7	0	0	0	0	510	449	
8	0	0	0	0	507	449	
9	0	0	0	0	506	450	
10	0	0	0	0	510	449	
11	0	0	0	0	512	448	
12	0	0	0	0	509	449	
13	0	0	0	0	513	448	
14	0	0	0	0	510	449	
15	0	0	0	0	507	451	
0	0	0	0	0	508	453	
1	0	0	0	0	512	455	
2	0	0	0	0	513	455	
3	0	0	0	0	508	455	
4	0	0	0	0	510	455	
5	0	0	0	0	510	452	
6	0	0	0	0	511	448	
7	0	0	0	0	510	446	
8	0	0	0	0	507	444	
9	0	0	0	0	504	444	
10	0	0	0	0	510	443	
11	0	0	0	0	511	442	
12	0	0	0	0	513	443	
13	0	0	0	0	511	442	
14	0	0	0	0	511	441	
15	0	0	0	0	509	442	
0	0	0	0	0	513	441	
1	0	0	0	0	514	442	
2	0	0	0	0	515	447	
3	0	0	0	0	512	448	
4	0	0	0	0	511	448	
5	0	0	0	0	516	447	
6	0	0	0	0	507	446	
7	0	0	0	0	501	443	
8	0	0	0	0	507	438	
9	0	0	0	0	506	436	
10	0	0	0	0	502	436	
11	0	0	0	0	507	435	
12	0	0	0	0	512	434	
13	0	0	0	0	512	434	
14	0	0	0	0	512	433	
15	0	0	0	0	511	434	
0	0	0	0	0	513	434	
1	0	0	0	0	511	435	
2	0	0	0	0	510	440	
3	0	0	0	0	513	446	
4	0	0	0	0	512	446	
5	0	0	0	0	507	447	
6	0	0	0	0	514	446	
7	0	0	0	0	505	443	
8	0	0	0	0	508	441	
9	0	0	0	0	511	437	
10	0	0	0	0	508	436	
11	0	0	0	0	511	435	
12	0	0	0	0	509	434	
13	0	0	0	0	508	434	
14	0	0	0	0	515	433	
15	0	0	0	0	515	433	
0	0	0	0	0	516	435	
1	0	0	0	0	520	436	
2	0	0	0	0	517	436	
3	0	0	0	0	513	438	
4	0	0	0	0	511	439	
5	0	0	0	0	509	439	
6	0	0	0	0	511	440	
7	0	0	0	0	510	440	
8	0	0	0	0	511	440	
9	0	0	0	0	510	438	
10	0	0	0	0	511	435	
11	0	0	0	0	510	437	
12	0	0	0	0	509	440	
13	0	0	0	0	507	442	
14	0	0	0	0	507	444	
15	0	0	0	0	508	444	
0	0	0	0	0	507	445	
1	0	0	0	0	500	448	
2	0	0	0	0	503	449	
3	0	0	0	0	502	455	
4	0	0	0	0	495	459	
5	0	0	0	0	499	460	
6	0	0	0	0	498	462	
7	0	0	0	0	494	462	
8	0	0	0	0	488	464	
9	0	0	0	0	490	464	
10	0	0	0	0	494	461	
11	0	0	0	0	489	461	
12	0	0	0	0	491	461	
13	0	0	0	0	495	460	
14	0	0	0	0	495	457	
15	0	0	0	0	496	455	
0	0	0	0	0	497	455	
1	0	0	0	0	502	453	
2	0	0	0	0	501	451	
3	0	0	0	0	511	451	
4	0	0	0	0	515	450	
5	0	0	0	0	519	451	
6	0	0	0	0	523	446	
7	0	0	0	0	528	436	
8	0	0	0	0	527	428	
9	0	0	0	0	524	417	
10	0	0	0	0	528	406	
11	0	0	0	0	532	395	
12	0	0	0	0	526	387	
13	0	0	0	0	525	382	
14	0	0	0	0	525	378	
15	0	0	0	0	516	377	
0	0	0	0	0	518	378	
1	0	0	0	0	519	378	
2	0	0	0	0	519	379	
3	0	0	0	0	515	380	
4	0	0	0	0	511	384	
5	0	0	0	0	500	391	
6	0	0	0	0	505	396	
7	0	0	0	0	505	401	
8	0	0	0	0	511	405	
9	0	0	0	0	504	408	
10	0	0	0	0	505	409	
11	0	0	0	0	507	409	
12	0	0	0	0	507	410	
13	0	0	0	0	507	414	
14	0	0	0	0	513	415	
15	0	0	0	0	508	418	
0	0	0	0	0	522	422	
1	0	0	0	0	514	425	
2	0	0	0	0	511	428	
3	0	0	0	0	517	430	
4	0	0	0	0	513	431	
5	0	0	0	0	518	433	
6	0	0	0	0	513	438	
7	0	0	0	0	510	440	
8	0	0	0	0	516	440	
9	0	0	0	0	515	440	
10	0	0	0	0	508	438	
11	0	0	0	0	510	435	
12	0	0	0	0	512	433	
13	0	0	0	0	512	432	
14	0	0	0	0	510	433	
15	0	0	0	0	512	435	
0	0	0	0	0	512	436	
1	0	0	0	0	514	436	
2	0	0	0	0	510	435	
3	0	0	0	0	507	435	
4	0	0	0	0	510	435	
5	0	0	0	0	514	435	
6	0	0	0	0	513	437	
7	0	0	0	0	509	441	
8	0	0	0	0	511	443	
9	0	0	0	0	508	443	
10	0	0	0	0	504	442	
11	0	0	0	0	500	438	
12	0	0	0	0	508	433	
13	0	0	0	0	504	430	
14	0	0	0	0	500	431	
15	0	0	0	0	504	432	
0	0	0	0	0	504	433	
1	0	0	0	0	505	434	
2	0	0	0	0	508	435	
3	0	0	0	0	507	438	
4	0	0	0	0	508	438	
5	0	0	0	0	512	437	
6	0	0	0	0	505	437	
7	0	0	0	0	504	442	
8	0	0	0	0	508	444	
9	0	0	0	0	509	444	
10	0	0	0	0	510	444	
11	0	0	0	0	507	444	
12	0	0	0	0	506	440	
13	0	0	0	0	508	436	
14	0	0	0	0	507	435	
15	0	0	0	0	502	438	
0	0	0	0	0	506	441	
1	0	0	0	0	507	443	
2	0	0	0	0	510	443	
3	0	0	0	0	507	441	
4	0	0	0	0	507	442	
5	0	0	0	0	513	443	
6	0	0	0	0	510	443	
7	0	0	0	0	512	446	
8	0	0	0	0	511	450	
9	0	0	0	0	512	449	
10	0	0	0	0	508	448	
11	0	0	0	0	503	445	
12	0	0	0	0	512	444	
13	0	0	0	0	514	440	
14	0	0	0	0	510	435	
15	0	0	0	0	505	434	
0	0	0	0	0	510	435	
1	0	0	0	0	509	437	
2	0	0	0	0	507	440	
3	0	0	0	0	509	442	
4	0	0	0	0	512	444	
5	0	0	0	0	514	444	
6	0	0	0	0	511	445	
7	0	0	0	0	514	447	
8	0	0	0	0	512	451	
9	0	0	0	0	515	454	
10	0	0	0	0	511	453	
11	0	0	0	0	509	451	
12	0	0	0	0	504	448	
13	0	0	0	0	505	445	
14	0	0	0	0	508	442	
15	0	0	0	0	508	439	
0	0	0	0	0	506	439	
1	0	0	0	0	505	442	
2	0	0	0	0	505	444	
3	0	0	0	0	506	445	
4	0	0	0	0	508	447	
5	0	0	0	0	512	448	
6	0	0	0	0	508	449	
7	0	0	0	0	510	451	
8	0	0	0	0	515	452	
9	0	0	0	0	514	459	
10	0	0	0	0	512	461	
11	0	0	0	0	514	460	
12	0	0	0	0	512	460	
13	0	0	0	0	505	458	
14	0	0	0	0	509	455	
15	0	0	0	0	509	454	
0	0	0	0	0	504	453	
1	0	0	0	0	506	454	
2	0	0	0	0	507	454	
3	0	0	0	0	509	455	
4	0	0	0	0	512	457	
5	0	0	0	0	513	459	
6	0	0	0	0	509	460	
7	0	0	0	0	509	461	
8	0	0	0	0	505	462	
9	0	0	0	0	512	467	
10	0	0	0	0	515	473	
11	0	0	0	0	513	476	
12	0	0	0	0	510	476	
13	0	0	0	0	511	475	
14	0	0	0	0	506	474	
15	0	0	0	0	505	472	
0	0	0	0	0	511	471	
1	0	0	0	0	505	471	
2	0	0	0	0	507	473	
3	0	0	0	0	510	473	
4	0	0	0	0	511	474	
5	0	0	0	0	509	476	
6	0	0	0	0	513	475	
7	0	0	0	0	514	477	
8	0	0	0	0	512	480	
9	0	0	0	0	512	483	
10	0	0	0	0	508	487	
11	0	0	0	0	511	489	
12	0	0	0	0	515	489	
13	0	0	0	0	515	489	
14	0	0	0	0	508	489	
15	0	0	0	0	508	486	
0	0	0	0	0	508	483	
1	0	0	0	0	507	480	
2	0	0	0	0	504	481	
3	0	0	0	0	501	483	
4	0	0	0	0	504	484	
5	0	0	0	0	505	485	
6	0	0	0	0	508	486	
7	0	0	0	0	512	486	
8	0	0	0	0	512	487	
9	0	0	0	0	510	488	
10	0	0	0	0	512	491	
11	0	0	0	0	512	494	
12	0	0	0	0	511	494	
13	0	0	0	0	510	494	
14	0	0	0	0	511	492	
15	0	0	0	0	505	487	
0	0	0	0	0	508	483	
1	0	0	0	0	512	480	
2	0	0	0	0	506	475	
3	0	0	0	0	504	475	
4	0	0	0	0	506	475	
5	0	0	0	0	509	474	
6	0	0	0	0	508	474	
7	0	0	0	0	509	473	
8	0	0	0	0	515	473	
9	0	0	0	0	512	473	
10	0	0	0	0	512	472	
11	0	0	0	0	515	474	
12	0	0	0	0	510	478	
13	0	0	0	0	514	476	
14	0	0	0	0	511	474	
15	0	0	0	0	509	469	
0	0	0	0	0	510	462	
1	0	0	0	0	507	456	
2	0	0	0	0	506	451	
3	0	0	0	0	504	448	
4	0	0	0	0	508	447	
5	0	0	0	0	506	448	
6	0	0	0	0	509	446	
7	0	0	0	0	513	445	
8	0	0	0	0	509	444	
9	0	0	0	0	507	446	
10	0	0	0	0	512	444	
11	0	0	0	0	512	444	
12	0	0	0	0	512	446	
13	0	0	0	0	513	446	
14	0	0	0	0	506	446	
15	0	0	0	0	508	445	
0	0	0	0	0	507	443	
1	0	0	0	0	507	439	
2	0	0	0	0	507	436	
3	0	0	0	0	505	432	
4	0	0	0	0	510	432	
5	0	0	0	0	504	432	
6	0	0	0	0	508	430	
7	0	0	0	0	511	429	
8	0	0	0	0	511	430	
9	0	0	0	0	511	431	
10	0	0	0	0	512	432	
11	0	0	0	0	506	432	
12	0	0	0	0	512	434	
13	0	0	0	0	511	440	
14	0	0	0	0	508	440	
15	0	0	0	0	507	440	
0	0	0	0	0	512	439	
1	0	0	0	0	509	436	
2	0	0	0	0	512	432	
3	0	0	0	0	510	428	
4	0	0	0	0	506	427	
5	0	0	0	0	509	429	
6	0	0	0	0	508	431	
7	0	0	0	0	508	432	
8	0	0	0	0	508	435	
9	0	0	0	0	512	436	
10	0	0	0	0	512	435	
11	0	0	0	0	509	435	
12	0	0	0	0	508	435	
13	0	0	0	0	512	438	
14	0	0	0	0	510	444	
15	0	0	0	0	510	444	
0	0	0	0	0	508	446	
1	0	0	0	0	509	447	
2	0	0	0	0	507	445	
3	0	0	0	0	508	442	
4	0	0	0	0	511	438	
5	0	0	0	0	510	436	
6	0	0	0	0	506	437	
7	0	0	0	0	508	437	
8	0	0	0	0	510	437	
9	0	0	0	0	511	438	
10	0	0	0	0	513	438	
11	0	0	0	0	512	439	
12	0	0	0	0	512	440	
13	0	0	0	0	511	442	
14	0	0	0	0	508	448	
15	0	0	0	0	513	451	
0	0	0	0	0	510	451	
1	0	0	0	0	509	451	
2	0	0	0	0	508	450	
3	0	0	0	0	502	447	
4	0	0	0	0	504	444	
5	0	0	0	0	510	442	
6	0	0	0	0	510	444	
7	0	0	0	0	505	446	
8	0	0	0	0	508	449	
9	0	0	0	0	513	451	
10	0	0	0	0	507	451	
11	0	0	0	0	511	452	
12	0	0	0	0	515	454	
13	0	0	0	0	512	455	
14	0	0	0	0	511	457	
15	0	0	0	0	510	461	
0	0	0	0	0	512	463	
1	0	0	0	0	513	463	
2	0	0	0	0	512	463	
3	0	0	0	0	503	460	
4	0	0	0	0	507	457	
5	0	0	0	0	512	455	
6	0	0	0	0	508	454	
7	0	0	0	0	507	456	
8	0	0	0	0	508	456	
9	0	0	0	0	509	456	
10	0	0	0	0	508	458	
11	0	0	0	0	507	459	
12	0	0	0	0	511	458	
13	0	0	0	0	510	458	
14	0	0	0	0	508	460	
15	0	0	0	0	510	464	
0	0	0	0	0	510	469	
1	0	0	0	0	515	470	
2	0	0	0	0	513	469	
3	0	0	0	0	511	468	
4	0	0	0	0	508	465	
5	0	0	0	0	507	461	
6	0	0	0	0	509	458	
7	0	0	0	0	509	458	
8	0	0	0	0	508	459	
9	0	0	0	0	505	459	
10	0	0	0	0	509	460	
11	0	0	0	0	506	463	
12	0	0	0	0	510	465	
13	0	0	0	0	509	467	
14	0	0	0	0	512	469	
15	0	0	0	0	519	471	
0	0	0	0	0	509	476	
1	0	0	0	0	512	478	
2	0	0	0	0	514	478	
3	0	0	0	0	512	478	
4	0	0	0	0	507	477	
5	0	0	0	0	507	473	
6	0	0	0	0	505	471	
7	0	0	0	0	506	469	
8	0	0	0	0	508	471	
9	0	0	0	0	507	473	
10	0	0	0	0	505	475	
11	0	0	0	0	509	477	
12	0	0	0	0	509	478	
13	0	0	0	0	511	479	
14	0	0	0	0	511	480	
15	0	0	0	0	506	481	
0	0	0	0	0	508	486	
1	0	0	0	0	512	491	
2	0	0	0	0	518	493	
3	0	0	0	0	519	492	
4	0	0	0	0	515	491	
5	0	0	0	0	513	488	
6	0	0	0	0	510	483	
7	0	0	0	0	512	478	
8	0	0	0	0	514	478	
9	0	0	0	0	512	480	
10	0	0	0	0	510	482	
11	0	0	0	0	508	482	
12	0	0	0	0	506	482	
13	0	0	0	0	506	482	
14	0	0	0	0	509	483	
15	0	0	0	0	511	483	
0	0	0	0	0	508	485	
1	0	0	0	0	512	487	
2	0	0	0	0	510	492	
3	0	0	0	0	505	493	
4	0	0	0	0	504	492	
5	0	0	0	0	504	492	
6	0	0	0	0	503	490	
7	0	0	0	0	505	488	
8	0	0	0	0	508	485	
9	0	0	0	0	510	485	
10	0	0	0	0	508	486	
11	0	0	0	0	511	487	
12	0	0	0	0	511	487	
13	0	0	0	0	517	486	
14	0	0	0	0	511	486	
15	0	0	0	0	508	486	
0	0	0	0	0	510	487	
1	0	0	0	0	511	489	
2	0	0	0	0	511	495	
3	0	0	0	0	514	499	
4	0	0	0	0	509	501	
5	0	0	0	0	507	500	
6	0	0	0	0	508	499	
7	0	0	0	0	505	498	
8	0	0	0	0	508	496	
9	0	0	0	0	510	495	
10	0	0	0	0	506	496	
11	0	0	0	0	504	497	
12	0	0	0	0	506	499	
13	0	0	0	0	507	500	
14	0	0	0	0	503	502	
15	0	0	0	0	509	502	
0	0	0	0	0	511	502	
1	0	0	0	0	510	503	
2	0	0	0	0	511	507	
3	0	0	0	0	509	512	
4	0	0	0	0	508	514	
5	0	0	0	0	506	514	
6	0	0	0	0	510	514	
7	0	0	0	0	510	512	
8	0	0	0	0	511	508	
9	0	0	0	0	512	505	
10	0	0	0	0	511	505	
11	0	0	0	0	507	506	
12	0	0	0	0	511	507	
13	0	0	0	0	512	508	
14	0	0	0	0	508	511	
15	0	0	0	0	511	512	
0	0	0	0	0	510	513	
1	0	0	0	0	509	512	
2	0	0	0	0	509	514	
3	0	0	0	0	509	519	
4	0	0	0	0	514	521	
5	0	0	0	0	513	522	
6	0	0	0	0	511	521	
7	0	0	0	0	509	520	
8	0	0	0	0	505	517	
9	0	0	0	0	508	512	
10	0	0	0	0	508	509	
11	0	0	0	0	506	509	
12	0	0	0	0	511	509	
13	0	0	0	0	512	510	
14	0	0	0	0	509	510	
15	0	0	0	0	513	510	
0	0	0	0	0	513	510	
1	0	0	0	0	511	510	
2	0	0	0	0	511	508	
3	0	0	0	0	512	510	
4	0	0	0	0	511	514	
5	0	0	0	0	511	516	
6	0	0	0	0	511	518	
7	0	0	0	0	512	518	
8	0	0	0	0	507	516	
9	0	0	0	0	508	513	
10	0	0	0	0	510	510	
11	0	0	0	0	510	507	
12	0	0	0	0	505	507	
13	0	0	0	0	505	508	
14	0	0	0	0	508	508	
15	0	0	0	0	512	508	
0	0	0	0	0	511	508	
1	0	0	0	0	511	509	
2	0	0	0	0	511	510	
3	0	0	0	0	513	510	
4	0	0	0	0	512	513	
5	0	0	0	0	511	519	
6	0	0	0	0	515	521	
7	0	0	0	0	511	521	
8	0	0	0	0	507	522	
9	0	0	0	0	504	521	
10	0	0	0	0	507	518	
11	0	0	0	0	511	514	
12	0	0	0	0	512	512	
13	0	0	0	0	508	512	
14	0	0	0	0	512	512	
15	0	0	0	0	513	512	
0	0	0	0	0	514	511	
1	0	0	0	0	515	510	
2	0	0	0	0	515	509	
3	0	0	0	0	514	508	
4	0	0	0	0	516	509	
5	0	0	0	0	516	517	
6	0	0	0	0	517	517	
7	0	0	0	0	515	518	
8	0	0	0	0	513	518	
9	0	0	0	0	510	518	
10	0	0	0	0	503	519	
11	0	0	0	0	508	518	
12	0	0	0	0	510	517	
13	0	0	0	0	513	520	
14	0	0	0	0	510	524	
15	0	0	0	0	509	525	
0	0	0	0	0	507	526	
1	0	0	0	0	507	528	
2	0	0	0	0	503	530	
3	0	0	0	0	502	531	
4	0	0	0	0	500	534	
5	0	0	0	0	500	538	
6	0	0	0	0	496	546	
7	0	0	0	0	498	550	
8	0	0	0	0	498	551	
9	0	0	0	0	495	554	
10	0	0	0	0	487	556	
11	0	0	0	0	488	556	
12	0	0	0	0	493	554	
13	0	0	0	0	488	553	
14	0	0	0	0	486	555	
15	0	0	0	0	487	555	
0	0	0	0	0	492	557	
1	0	0	0	0	494	558	
2	0	0	0	0	499	558	
3	0	0	0	0	505	557	
4	0	0	0	0	505	555	
5	0	0	0	0	505	554	
6	0	0	0	0	520	553	
7	0	0	0	0	525	554	
8	0	0	0	0	529	550	
9	0	0	0	0	529	544	
10	0	0	0	0	526	535	
11	0	0	0	0	527	524	
12	0	0	0	0	530	513	
13	0	0	0	0	526	502	
14	0	0	0	0	526	495	
15	0	0	0	0	531	491	
0	0	0	0	0	530	489	
1	0	0	0	0	525	488	
2	0	0	0	0	521	488	
3	0	0	0	0	518	487	
4	0	0	0	0	519	487	
5	0	0	0	0	511	489	
6	0	0	0	0	509	493	
7	0	0	0	0	510	500	
8	0	0	0	0	510	508	
9	0	0	0	0	506	514	
10	0	0	0	0	509	519	
11	0	0	0	0	507	522	
12	0	0	0	0	505	523	
13	0	0	0	0	507	523	
14	0	0	0	0	510	524	
15	0	0	0	0	510	527	
0	0	0	0	0	512	531	
1	0	0	0	0	509	535	
2	0	0	0	0	510	539	
3	0	0	0	0	511	542	
4	0	0	0	0	512	546	
5	0	0	0	0	511	548	
6	0	0	0	0	514	551	
7	0	0	0	0	516	555	
8	0	0	0	0	514	561	
9	0	0	0	0	515	564	
10	0	0	0	0	513	567	
11	0	0	0	0	513	568	
12	0	0	0	0	508	568	
13	0	0	0	0	505	567	
14	0	0	0	0	512	566	
15	0	0	0	0	513	563	
0	0	0	0	0	511	567	
1	0	0	0	0	514	568	
2	0	0	0	0	513	569	
3	0	0	0	0	511	569	
4	0	0	0	0	508	568	
5	0	0	0	0	510	567	
6	0	0	0	0	508	566	
7	0	0	0	0	508	565	
8	0	0	0	0	508	566	
9	0	0	0	0	510	570	
10	0	0	0	0	511	572	
11	0	0	0	0	505	572	
12	0	0	0	0	503	572	
13	0	0	0	0	503	570	
14	0	0	0	0	503	565	
15	0	0	0	0	505	563	
0	0	0	0	0	504	563	
1	0	0	0	0	503	564	
2	0	0	0	0	504	565	
3	0	0	0	0	504	567	
4	0	0	0	0	506	568	
5	0	0	0	0	511	569	
6	0	0	0	0	511	570	
7	0	0	0	0	509	570	
8	0	0	0	0	514	573	
9	0	0	0	0	510	578	
10	0	0	0	0	510	580	
11	0	0	0	0	510	580	
12	0	0	0	0	509	580	
13	0	0	0	0	507	579	
14	0	0	0	0	506	578	
15	0	0	0	0	507	575	
0	0	0	0	0	509	574	
1	0	0	0	0	506	574	
2	0	0	0	0	504	575	
3	0	0	0	0	509	577	
4	0	0	0	0	511	577	
5	0	0	0	0	509	578	
6	0	0	0	0	509	579	
7	0	0	0	0	512	580	
8	0	0	0	0	511	582	
9	0	0	0	0	513	585	
10	0	0	0	0	514	591	
11	0	0	0	0	512	593	
12	0	0	0	0	512	593	
13	0	0	0	0	510	594	
14	0	0	0	0	506	593	
15	0	0	0	0	505	591	
0	0	0	0	0	509	588	
1	0	0	0	0	509	585	
2	0	0	0	0	508	587	
3	0	0	0	0	504	588	
4	0	0	0	0	504	588	
5	0	0	0	0	511	589	
6	0	0	0	0	512	590	
7	0	0	0	0	509	592	
8	0	0	0	0	510	594	
9	0	0	0	0	509	596	
10	0	0	0	0	512	601	
11	0	0	0	0	512	605	
12	0	0	0	0	511	607	
13	0	0	0	0	513	606	
14	0	0	0	0	510	607	
15	0	0	0	0	507	606	
0	0	0	0	0	504	603	
1	0	0	0	0	511	600	
2	0	0	0	0	508	600	
3	0	0	0	0	505	603	
4	0	0	0	0	511	604	
5	0	0	0	0	509	604	
6	0	0	0	0	511	606	
7	0	0	0	0	515	608	
8	0	0	0	0	511	609	
9	0	0	0	0	512	610	
10	0	0	0	0	513	612	
11	0	0	0	0	510	618	
12	0	0	0	0	514	621	
13	0	0	0	0	511	623	
14	0	0	0	0	513	623	
15	0	0	0	0	507	622	
0	0	0	0	0	507	620	
1	0	0	0	0	508	618	
2	0	0	0	0	505	617	
3	0	0	0	0	507	618	
4	0	0	0	0	506	620	
5	0	0	0	0	507	623	
6	0	0	0	0	509	624	
7	0	0	0	0	509	626	
8	0	0	0	0	512	627	
9	0	0	0	0	512	628	
10	0	0	0	0	513	630	
11	0	0	0	0	513	632	
12	0	0	0	0	512	636	
13	0	0	0	0	512	639	
14	0	0	0	0	511	640	
15	0	0	0	0	507	641	
0	0	0	0	0	504	642	
1	0	0	0	0	505	639	
2	0	0	0	0	505	638	
3	0	0	0	0	505	637	
4	0	0	0	0	503	639	
5	0	0	0	0	504	641	
6	0	0	0	0	508	644	
7	0	0	0	0	510	646	
8	0	0	0	0	508	647	
9	0	0	0	0	510	649	
10	0	0	0	0	510	652	
11	0	0	0	0	509	655	
12	0	0	0	0	513	658	
13	0	0	0	0	512	662	
14	0	0	0	0	513	663	
15	0	0	0	0	509	662	
0	0	0	0	0	513	662	
1	0	0	0	0	509	659	
2	0	0	0	0	513	655	
3	0	0	0	0	511	652	
4	0	0	0	0	509	651	
5	0	0	0	0	507	650	
6	0	0	0	0	509	650	
7	0	0	0	0	508	650	
8	0	0	0	0	510	650	
9	0	0	0	0	510	651	
10	0	0	0	0	508	652	
11	0	0	0	0	513	652	
12	0	0	0	0	513	654	
13	0	0	0	0	511	659	
14	0	0	0	0	513	659	
15	0	0	0	0	513	659	
0	0	0	0	0	510	656	
1	0	0	0	0	509	654	
2	0	0	0	0	505	650	
3	0	0	0	0	508	644	
4	0	0	0	0	510	640	
5	0	0	0	0	506	639	
6	0	0	0	0	507	640	
7	0	0	0	0	510	641	
8	0	0	0	0	509	641	
9	0	0	0	0	508	641	
10	0	0	0	0	509	641	
11	0	0	0	0	509	640	
12	0	0	0	0	509	639	
13	0	0	0	0	511	640	
14	0	0	0	0	511	643	
15	0	0	0	0	510	643	
0	0	0	0	0	512	641	
1	0	0	0	0	512	639	
2	0	0	0	0	507	636	
3	0	0	0	0	504	632	
4	0	0	0	0	506	625	
5	0	0	0	0	509	622	
6	0	0	0	0	508	621	
7	0	0	0	0	509	620	
8	0	0	0	0	507	619	
9	0	0	0	0	509	619	
10	0	0	0	0	509	617	
11	0	0	0	0	509	616	
12	0	0	0	0	511	615	
13	0	0	0	0	509	615	
14	0	0	0	0	509	617	
15	0	0	0	0	513	619	
0	0	0	0	0	512	619	
1	0	0	0	0	512	616	
2	0	0	0	0	512	615	
3	0	0	0	0	507	611	
4	0	0	0	0	505	606	
5	0	0	0	0	505	603	
6	0	0	0	0	505	602	
7	0	0	0	0	502	603	
8	0	0	0	0	508	604	
9	0	0	0	0	510	604	
10	0	0	0	0	510	605	
11	0	0	0	0	510	606	
12	0	0	0	0	508	607	
13	0	0	0	0	511	608	
14	0	0	0	0	512	609	
15	0	0	0	0	509	615	
0	0	0	0	0	512	616	
1	0	0	0	0	511	615	
2	0	0	0	0	510	615	
3	0	0	0	0	506	614	
4	0	0	0	0	504	611	
5	0	0	0	0	507	607	
6	0	0	0	0	511	604	
7	0	0	0	0	507	604	
8	0	0	0	0	508	605	
9	0	0	0	0	512	606	
10	0	0	0	0	511	607	
11	0	0	0	0	508	607	
12	0	0	0	0	512	605	
13	0	0	0	0	511	604	
14	0	0	0	0	513	605	
15	0	0	0	0	512	607	
0	0	0	0	0	512	610	
1	0	0	0	0	511	611	
2	0	0	0	0	510	611	
3	0	0	0	0	509	611	
4	0	0	0	0	507	609	
5	0	0	0	0	502	608	
6	0	0	0	0	505	605	
7	0	0	0	0	508	604	
8	0	0	0	0	508	605	
9	0	0	0	0	508	606	
10	0	0	0	0	509	607	
11	0	0	0	0	512	610	
12	0	0	0	0	509	612	
13	0	0	0	0	510	613	
14	0	0	0	0	513	614	
15	0	0	0	0	514	616	
0	0	0	0	0	516	623	
1	0	0	0	0	516	624	
2	0	0	0	0	511	625	
3	0	0	0	0	512	625	
4	0	0	0	0	510	625	
5	0	0	0	0	506	623	
6	0	0	0	0	506	620	
7	0	0	0	0	508	617	
8	0	0	0	0	507	617	
9	0	0	0	0	504	618	
10	0	0	0	0	508	620	
11	0	0	0	0	507	621	
12	0	0	0	0	508	623	
13	0	0	0	0	511	624	
14	0	0	0	0	513	625	
15	0	0	0	0	511	626	
0	0	0	0	0	511	628	
1	0	0	0	0	506	633	
2	0	0	0	0	512	634	
3	0	0	0	0	511	633	
4	0	0	0	0	510	631	
5	0	0	0	0	508	630	
6	0	0	0	0	507	626	
7	0	0	0	0	507	622	
8	0	0	0	0	509	618	
9	0	0	0	0	509	618	
10	0	0	0	0	507	619	
11	0	0	0	0	509	620	
12	0	0	0	0	510	620	
13	0	0	0	0	512	620	
14	0	0	0	0	514	620	
15	0	0	0	0	511	619	
0	0	0	0	0	511	620	
1	0	0	0	0	512	623	
2	0	0	0	0	514	628	
3	0	0	0	0	513	630	
4	0	0	0	0	510	630	
5	0	0	0	0	509	629	
6	0	0	0	0	506	627	
7	0	0	0	0	508	624	
8	0	0	0	0	511	621	
9	0	0	0	0	508	619	
10	0	0	0	0	505	620	
11	0	0	0	0	508	621	
12	0	0	0	0	508	621	
13	0	0	0	0	510	621	
14	0	0	0	0	511	621	
15	0	0	0	0	513	622	
0	0	0	0	0	508	622	
1	0	0	0	0	512	623	
2	0	0	0	0	511	627	
3	0	0	0	0	515	629	
4	0	0	0	0	510	629	
5	0	0	0	0	510	627	
6	0	0	0	0	508	625	
7	0	0	0	0	508	622	
8	0	0	0	0	507	618	
9	0	0	0	0	507	615	
10	0	0	0	0	507	616	
11	0	0	0	0	505	618	
12	0	0	0	0	508	618	
13	0	0	0	0	508	619	
14	0	0	0	0	511	618	
15	0	0	0	0	509	619	
0	0	0	0	0	508	620	
1	0	0	0	0	510	621	
2	0	0	0	0	510	624	
3	0	0	0	0	508	629	
4	0	0	0	0	513	631	
5	0	0	0	0	508	632	
6	0	0	0	0	510	631	
7	0	0	0	0	511	629	
8	0	0	0	0	511	625	
9	0	0	0	0	516	622	
10	0	0	0	0	516	617	
11	0	0	0	0	514	616	
12	0	0	0	0	513	615	
13	0	0	0	0	515	615	
14	0	0	0	0	514	614	
15	0	0	0	0	512	614	
0	0	0	0	0	510	614	
1	0	0	0	0	507	614	
2	0	0	0	0	506	615	
3	0	0	0	0	510	617	
4	0	0	0	0	509	621	
5	0	0	0	0	507	622	
6	0	0	0	0	508	621	
7	0	0	0	0	506	620	
8	0	0	0	0	503	617	
9	0	0	0	0	502	614	
10	0	0	0	0	506	611	
11	0	0	0	0	505	608	
12	0	0	0	0	505	609	
13	0	0	0	0	505	611	
14	0	0	0	0	504	613	
15	0	0	0	0	509	614	
0	0	0	0	0	510	614	
1	0	0	0	0	511	615	
2	0	0	0	0	512	615	
3	0	0	0	0	512	616	
4	0	0	0	0	511	621	
5	0	0	0	0	512	624	
6	0	0	0	0	510	624	
7	0	0	0	0	513	624	
8	0	0	0	0	511	624	
9	0	0	0	0	509	620	
10	0	0	0	0	508	616	
11	0	0	0	0	507	614	
12	0	0	0	0	506	612	
13	0	0	0	0	507	613	
14	0	0	0	0	509	614	
15	0	0	0	0	508	614	
0	0	0	0	0	504	615	
1	0	0	0	0	509	615	
2	0	0	0	0	508	615	
3	0	0	0	0	507	615	
4	0	0	0	0	509	618	
5	0	0	0	0	508	623	
6	0	0	0	0	510	623	
7	0	0	0	0	508	623	
8	0	0	0	0	509	622	
9	0	0	0	0	503	620	
10	0	0	0	0	506	616	
11	0	0	0	0	507	611	
12	0	0	0	0	505	608	
13	0	0	0	0	507	609	
14	0	0	0	0	511	609	
15	0	0	0	0	511	611	
0	0	0	0	0	515	611	
1	0	0	0	0	511	610	
2	0	0	0	0	511	609	
3	0	0	0	0	511	609	
4	0	0	0	0	511	609	
5	0	0	0	0	512	611	
6	0	0	0	0	513	614	
7	0	0	0	0	511	613	
8	0	0	0	0	512	611	
9	0	0	0	0	511	610	
10	0	0	0	0	510	607	
11	0	0	0	0	512	601	
12	0	0	0	0	511	596	
13	0	0	0	0	509	595	
14	0	0	0	0	506	595	
15	0	0	0	0	505	594	
0	0	0	0	0	512	594	
1	0	0	0	0	515	593	
2	0	0	0	0	514	592	
3	0	0	0	0	514	591	
4	0	0	0	0	509	591	
5	0	0	0	0	510	593	
6	0	0	0	0	512	596	
7	0	0	0	0	511	599	
8	0	0	0	0	509	599	
9	0	0	0	0	510	595	
10	0	0	0	0	510	592	
11	0	0	0	0	507	587	
12	0	0	0	0	508	581	
13	0	0	0	0	510	576	
14	0	0	0	0	508	575	
15	0	0	0	0	509	575	
0	0	0	0	0	509	575	
1	0	0	0	0	511	575	
2	0	0	0	0	508	575	
3	0	0	0	0	510	576	
4	0	0	0	0	510	576	
5	0	0	0	0	512	576	
6	0	0	0	0	511	577	
7	0	0	0	0	511	583	
8	0	0	0	0	511	584	
9	0	0	0	0	512	584	
10	0	0	0	0	511	583	
11	0	0	0	0	503	580	
12	0	0	0	0	504	576	
13	0	0	0	0	507	573	
14	0	0	0	0	506	569	
15	0	0	0	0	506	571	
0	0	0	0	0	509	572	
1	0	0	0	0	513	573	
2	0	0	0	0	515	573	
3	0	0	0	0	516	572	
4	0	0	0	0	515	571	
5	0	0	0	0	517	570	
6	0	0	0	0	519	568	
7	0	0	0	0	518	569	
8	0	0	0	0	518	572	
9	0	0	0	0	517	571	
10	0	0	0	0	517	568	
11	0	0	0	0	515	567	
12	0	0	0	0	512	564	
13	0	0	0	0	511	561	
14	0	0	0	0	512	559	
15	0	0	0	0	510	561	
0	0	0	0	0	509	566	
1	0	0	0	0	514	568	
2	0	0	0	0	513	570	
3	0	0	0	0	509	572	
4	0	0	0	0	507	572	
5	0	0	0	0	509	572	
6	0	0	0	0	503	572	
7	0	0	0	0	500	574	
8	0	0	0	0	495	579	
9	0	0	0	0	496	583	
10	0	0	0	0	496	585	
11	0	0	0	0	493	587	
12	0	0	0	0	492	588	
13	0	0	0	0	487	585	
14	0	0	0	0	483	584	
15	0	0	0	0	485	584	
0	0	0	0	0	480	587	
1	0	0	0	0	478	591	
2	0	0	0	0	482	593	
3	0	0	0	0	482	593	
4	0	0	0	0	486	595	
5	0	0	0	0	492	595	
6	0	0	0	0	502	593	
7	0	0	0	0	504	591	
8	0	0	0	0	512	590	
9	0	0	0	0	514	591	
10	0	0	0	0	519	586	
11	0	0	0	0	526	579	
12	0	0	0	0	530	572	
13	0	0	0	0	525	563	
14	0	0	0	0	527	551	
15	0	0	0	0	531	540	
0	0	0	0	0	529	528	
1	0	0	0	0	528	521	
2	0	0	0	0	531	514	
3	0	0	0	0	537	510	
4	0	0	0	0	532	507	
5	0	0	0	0	529	503	
6	0	0	0	0	522	500	
7	0	0	0	0	513	499	
8	0	0	0	0	518	502	
9	0	0	0	0	515	506	
10	0	0	0	0	512	513	
11	0	0	0	0	510	518	
12	0	0	0	0	509	521	
13	0	0	0	0	509	524	
14	0	0	0	0	507	524	
15	0	0	0	0	512	524	
0	0	0	0	0	513	524	
1	0	0	0	0	512	527	
2	0	0	0	0	512	531	
3	0	0	0	0	514	535	
4	0	0	0	0	518	538	
5	0	0	0	0	514	542	
6	0	0	0	0	516	544	
7	0	0	0	0	520	547	
8	0	0	0	0	515	549	
9	0	0	0	0	515	551	
10	0	0	0	0	514	557	
11	0	0	0	0	515	561	
12	0	0	0	0	515	562	
13	0	0	0	0	515	561	
14	0	0	0	0	515	561	
15	0	0	0	0	512	558	
0	0	0	0	0	514	555	
1	0	0	0	0	513	551	
2	0	0	0	0	509	550	
3	0	0	0	0	508	550	
4	0	0	0	0	507	550	
5	0	0	0	0	505	549	
6	0	0	0	0	507	549	
7	0	0	0	0	509	549	
8	0	0	0	0	507	549	
9	0	0	0	0	504	550	
10	0	0	0	0	508	552	
11	0	0	0	0	504	557	
12	0	0	0	0	505	557	
13	0	0	0	0	504	557	
14	0	0	0	0	504	556	
15	0	0	0	0	505	553	
0	0	0	0	0	502	550	
1	0	0	0	0	501	543	
2	0	0	0	0	503	543	
3	0	0	0	0	501	543	
4	0	0	0	0	504	544	
5	0	0	0	0	505	545	
6	0	0	0	0	507	547	
7	0	0	0	0	509	549	
8	0	0	0	0	510	549	
9	0	0	0	0	509	549	
10	0	0	0	0	511	550	
11	0	0	0	0	512	551	
12	0	0	0	0	511	555	
13	0	0	0	0	511	556	
14	0	0	0	0	512	555	
15	0	0	0	0	510	555	
0	0	0	0	0	506	552	
1	0	0	0	0	507	549	
2	0	0	0	0	511	545	
3	0	0	0	0	508	543	
4	0	0	0	0	508	543	
5	0	0	0	0	510	542	
6	0	0	0	0	510	543	
7	0	0	0	0	508	544	
8	0	0	0	0	511	544	
9	0	0	0	0	510	546	
10	0	0	0	0	509	547	
11	0	0	0	0	510	548	
12	0	0	0	0	506	551	
13	0	0	0	0	509	553	
14	0	0	0	0	508	554	
15	0	0	0	0	507	553	
0	0	0	0	0	505	552	
1	0	0	0	0	506	550	
2	0	0	0	0	507	546	
3	0	0	0	0	504	543	
4	0	0	0	0	507	544	
5	0	0	0	0	508	545	
6	0	0	0	0	509	546	
7	0	0	0	0	513	546	
8	0	0	0	0	512	547	
9	0	0	0	0	510	547	
10	0	0	0	0	511	547	
11	0	0	0	0	513	548	
12	0	0	0	0	511	550	
13	0	0	0	0	512	555	
14	0	0	0	0	512	555	
15	0	0	0	0	511	555	
0	0	0	0	0	510	554	
1	0	0	0	0	506	553	
2	0	0	0	0	507	551	
3	0	0	0	0	511	547	
4	0	0	0	0	506	544	
5	0	0	0	0	503	544	
6	0	0	0	0	507	544	
7	0	0	0	0	513	546	
8	0	0	0	0	511	546	
9	0	0	0	0	513	547	
10	0	0	0	0	512	547	
11	0	0	0	0	512	547	
12	0	0	0	0	511	549	
13	0	0	0	0	513	556	
14	0	0	0	0	514	557	
15	0	0	0	0	510	558	
0	0	0	0	0	511	558	
1	0	0	0	0	508	557	
2	0	0	0	0	510	555	
3	0	0	0	0	509	551	
4	0	0	0	0	514	547	
5	0	0	0	0	508	547	
6	0	0	0	0	508	549	
7	0	0	0	0	506	550	
8	0	0	0	0	511	550	
9	0	0	0	0	507	551	
10	0	0	0	0	510	552	
11	0	0	0	0	510	552	
12	0	0	0	0	510	553	
13	0	0	0	0	510	556	
14	0	0	0	0	508	561	
15	0	0	0	0	514	563	
0	0	0	0	0	513	563	
1	0	0	0	0	513	562	
2	0	0	0	0	510	561	
3	0	0	0	0	507	558	
4	0	0	0	0	508	555	
5	0	0	0	0	509	553	
6	0	0	0	0	507	554	
7	0	0	0	0	508	556	
8	0	0	0	0	510	557	
9	0	0	0	0	508	558	
10	0	0	0	0	510	559	
11	0	0	0	0	510	560	
12	0	0	0	0	511	561	
13	0	0	0	0	513	561	
14	0	0	0	0	511	564	
15	0	0	0	0	511	568	
0	0	0	0	0	514	569	
1	0	0	0	0	513	569	
2	0	0	0	0	509	568	
3	0	0	0	0	504	566	
4	0	0	0	0	506	562	
5	0	0	0	0	510	556	
6	0	0	0	0	508	554	
7	0	0	0	0	506	554	
8	0	0	0	0	507	555	
9	0	0	0	0	508	556	
10	0	0	0	0	510	556	
11	0	0	0	0	508	554	
12	0	0	0	0	507	553	
13	0	0	0	0	507	552	
14	0	0	0	0	515	554	
15	0	0	0	0	517	555	
0	0	0	0	0	515	558	
1	0	0	0	0	511	557	
2	0	0	0	0	506	556	
3	0	0	0	0	511	553	
4	0	0	0	0	510	550	
5	0	0	0	0	507	545	
6	0	0	0	0	508	541	
7	0	0	0	0	506	539	
8	0	0	0	0	506	538	
9	0	0	0	0	506	536	
10	0	0	0	0	508	536	
11	0	0	0	0	508	535	
12	0	0	0	0	509	534	
13	0	0	0	0	510	534	
14	0	0	0	0	510	534	
15	0	0	0	0	507	536	
0	0	0	0	0	506	540	
1	0	0	0	0	511	543	
2	0	0	0	0	509	544	
3	0	0	0	0	508	542	
4	0	0	0	0	503	540	
5	0	0	0	0	507	535	
6	0	0	0	0	510	527	
7	0	0	0	0	511	522	
8	0	0	0	0	508	517	
9	0	0	0	0	510	511	
10	0	0	0	0	511	508	
11	0	0	0	0	510	505	
12	0	0	0	0	513	504	
13	0	0	0	0	512	503	
14	0	0	0	0	511	501	
15	0	0	0	0	511	499	
0	0	0	0	0	513	499	
1	0	0	0	0	508	502	
2	0	0	0	0	507	502	
3	0	0	0	0	509	500	
4	0	0	0	0	506	497	
5	0	0	0	0	505	494	
6	0	0	0	0	504	489	
7	0	0	0	0	505	484	
8	0	0	0	0	502	482	
9	0	0	0	0	506	483	
10	0	0	0	0	508	482	
11	0	0	0	0	511	482	
12	0	0	0	0	509	482	
13	0	0	0	0	509	481	
14	0	0	0	0	513	481	
15	0	0	0	0	513	480	
0	0	0	0	0	512	482	
1	0	0	0	0	511	486	
2	0	0	0	0	512	489	
3	0	0	0	0	507	489	
4	0	0	0	0	512	489	
5	0	0	0	0	509	488	
6	0	0	0	0	508	485	
7	0	0	0	0	508	483	
8	0	0	0	0	507	480	
9	0	0	0	0	508	480	
10	0	0	0	0	508	481	
11	0	0	0	0	507	482	
12	0	0	0	0	510	483	
13	0	0	0	0	512	484	
14	0	0	0	0	511	485	
15	0	0	0	0	511	486	
0	0	0	0	0	514	485	
1	0	0	0	0	512	487	
2	0	0	0	0	509	493	
3	0	0	0	0	512	494	
4	0	0	0	0	512	494	
5	0	0	0	0	510	493	
6	0	0	0	0	505	492	
7	0	0	0	0	506	488	
8	0	0	0	0	508	485	
9	0	0	0	0	511	482	
10	0	0	0	0	507	481	
11	0	0	0	0	510	481	
12	0	0	0	0	516	482	
13	0	0	0	0	511	483	
14	0	0	0	0	511	486	
15	0	0	0	0	510	487	
0	0	0	0	0	511	489	
1	0	0	0	0	511	492	
2	0	0	0	0	509	495	
3	0	0	0	0	512	499	
4	0	0	0	0	512	499	
5	0	0	0	0	512	499	
6	0	0	0	0	512	496	
7	0	0	0	0	509	495	
8	0	0	0	0	507	492	
9	0	0	0	0	511	487	
10	0	0	0	0	507	486	
11	0	0	0	0	505	487	
12	0	0	0	0	508	488	
13	0	0	0	0	507	490	
14	0	0	0	0	510	490	
15	0	0	0	0	509	491	
0	0	0	0	0	511	491	
1	0	0	0	0	509	490	
2	0	0	0	0	508	493	
3	0	0	0	0	513	497	
4	0	0	0	0	517	499	
5	0	0	0	0	513	499	
6	0	0	0	0	510	499	
7	0	0	0	0	511	497	
8	0	0	0	0	508	493	
9	0	0	0	0	507	489	
10	0	0	0	0	512	486	
11	0	0	0	0	509	486	
12	0	0	0	0	508	487	
13	0	0	0	0	509	487	
14	0	0	0	0	510	488	
15	0	0	0	0	511	487	
0	0	0	0	0	509	488	
1	0	0	0	0	509	490	
2	0	0	0	0	510	492	
3	0	0	0	0	510	495	
4	0	0	0	0	510	500	
5	0	0	0	0	510	502	
6	0	0	0	0	509	502	
7	0	0	0	0	510	502	
8	0	0	0	0	507	500	
9	0	0	0	0	504	497	
10	0	0	0	0	507	494	
11	0	0	0	0	509	492	
12	0	0	0	0	507	492	
13	0	0	0	0	509	491	
14	0	0	0	0	509	487	
15	0	0	0	0	511	486	
0	0	0	0	0	511	485	
1	0	0	0	0	513	487	
2	0	0	0	0	510	486	
3	0	0	0	0	508	486	
4	0	0	0	0	511	487	
5	0	0	0	0	509	488	
6	0	0	0	0	515	487	
7	0	0	0	0	514	487	
8	0	0	0	0	512	487	
9	0	0	0	0	507	484	
10	0	0	0	0	509	480	
11	0	0	0	0	511	476	
12	0	0	0	0	511	473	
13	0	0	0	0	504	474	
14	0	0	0	0	508	474	
15	0	0	0	0	505	475	
0	0	0	0	0	508	476	
1	0	0	0	0	511	476	
2	0	0	0	0	510	477	
3	0	0	0	0	508	479	
4	0	0	0	0	508	482	
5	0	0	0	0	506	486	
6	0	0	0	0	512	488	
7	0	0	0	0	511	487	
8	0	0	0	0	511	486	
9	0	0	0	0	507	486	
10	0	0	0	0	506	484	
11	0	0	0	0	512	482	
12	0	0	0	0	515	478	
13	0	0	0	0	512	477	
14	0	0	0	0	512	476	
15	0	0	0	0	509	476	
0	0	0	0	0	508	478	
1	0	0	0	0	505	480	
2	0	0	0	0	509	480	
3	0	0	0	0	508	482	
4	0	0	0	0	510	483	
5	0	0	0	0	514	487	
6	0	0	0	0	515	492	
7	0	0	0	0	518	492	
8	0	0	0	0	519	491	
9	0	0	0	0	523	487	
10	0	0	0	0	517	485	
11	0	0	0	0	512	481	
12	0	0	0	0	511	476	
13	0	0	0	0	509	476	
14	0	0	0	0	501	476	
15	0	0	0	0	502	478	
0	0	0	0	0	507	479	
1	0	0	0	0	504	479	
2	0	0	0	0	503	480	
3	0	0	0	0	506	480	
4	0	0	0	0	506	480	
5	0	0	0	0	504	481	
6	0	0	0	0	505	485	
7	0	0	0	0	508	490	
8	0	0	0	0	510	491	
9	0	0	0	0	508	492	
10	0	0	0	0	510	491	
11	0	0	0	0	506	488	
12	0	0	0	0	504	487	
13	0	0	0	0	508	483	
14	0	0	0	0	507	484	
15	0	0	0	0	508	484	
0	0	0	0	0	513	484	
1	0	0	0	0	510	486	
2	0	0	0	0	511	487	
3	0	0	0	0	511	487	
4	0	0	0	0	512	487	
5	0	0	0	0	509	489	
6	0	0	0	0	513	491	
7	0	0	0	0	511	497	
8	0	0	0	0	512	498	
9	0	0	0	0	508	499	
10	0	0	0	0	511	497	
11	0	0	0	0	505	495	
12	0	0	0	0	503	492	
13	0	0	0	0	501	487	
14	0	0	0	0	509	484	
15	0	0	0	0	507	484	
0	0	0	0	0	505	487	
1	0	0	0	0	504	489	
2	0	0	0	0	502	491	
3	0	0	0	0	505	491	
4	0	0	0	0	506	492	
5	0	0	0	0	508	494	
6	0	0	0	0	512	496	
7	0	0	0	0	512	500	
8	0	0	0	0	511	504	
9	0	0	0	0	518	504	
10	0	0	0	0	512	502	
11	0	0	0	0	512	499	
12	0	0	0	0	509	497	
13	0	0	0	0	509	492	
14	0	0	0	0	513	485	
15	0	0	0	0	511	486	
0	0	0	0	0	508	486	
1	0	0	0	0	508	487	
2	0	0	0	0	506	487	
3	0	0	0	0	507	487	
4	0	0	0	0	512	487	
5	0	0	0	0	511	486	
6	0	0	0	0	512	484	
7	0	0	0	0	509	484	
8	0	0	0	0	514	489	
9	0	0	0	0	516	489	
10	0	0	0	0	511	487	
11	0	0	0	0	510	487	
12	0	0	0	0	507	485	
13	0	0	0	0	511	483	
14	0	0	0	0	509	481	
15	0	0	0	0	510	478	
0	0	0	0	0	511	478	
1	0	0	0	0	507	478	
2	0	0	0	0	510	478	
3	0	0	0	0	507	477	
4	0	0	0	0	514	475	
5	0	0	0	0	512	473	
6	0	0	0	0	508	474	
7	0	0	0	0	511	472	
8	0	0	0	0	513	472	
9	0	0	0	0	511	475	
10	0	0	0	0	512	475	
11	0	0	0	0	507	475	
12	0	0	0	0	508	475	
13	0	0	0	0	506	475	
14	0	0	0	0	505	472	
15	0	0	0	0	511	468	
0	0	0	0	0	510	467	
1	0	0	0	0	510	466	
2	0	0	0	0	507	467	
3	0	0	0	0	510	468	
4	0	0	0	0	508	468	
5	0	0	0	0	510	469	
6	0	0	0	0	511	468	
7	0	0	0	0	511	468	
8	0	0	0	0	507	468	
9	0	0	0	0	511	470	
10	0	0	0	0	512	473	
11	0	0	0	0	510	473	
12	0	0	0	0	510	474	
13	0	0	0	0	510	473	
14	0	0	0	0	508	471	
15	0	0	0	0	510	467	
0	0	0	0	0	513	463	
1	0	0	0	0	515	460	
2	0	0	0	0	518	459	
3	0	0	0	0	522	456	
4	0	0	0	0	517	455	
5	0	0	0	0	512	454	
6	0	0	0	0	518	454	
7	0	0	0	0	520	455	
8	0	0	0	0	515	455	
9	0	0	0	0	517	456	
10	0	0	0	0	512	463	
11	0	0	0	0	514	468	
12	0	0	0	0	512	473	
13	0	0	0	0	511	478	
14	0	0	0	0	512	480	
15	0	0	0	0	514	478	
0	0	0	0	0	507	476	
1	0	0	0	0	510	474	
2	0	0	0	0	502	476	
3	0	0	0	0	502	478	
4	0	0	0	0	497	479	
5	0	0	0	0	497	482	
6	0	0	0	0	498	485	
7	0	0	0	0	490	490	
8	0	0	0	0	490	493	
9	0	0	0	0	496	497	
10	0	0	0	0	496	501	
11	0	0	0	0	488	508	
12	0	0	0	0	488	516	
13	0	0	0	0	488	523	
14	0	0	0	0	484	528	
15	0	0	0	0	481	532	
0	0	0	0	0	479	530	
1	0	0	0	0	482	528	
2	0	0	0	0	486	526	
3	0	0	0	0	492	525	
4	0	0	0	0	495	524	
5	0	0	0	0	502	523	
6	0	0	0	0	507	520	
7	0	0	0	0	516	515	
8	0	0	0	0	521	509	
9	0	0	0	0	527	503	
10	0	0	0	0	531	495	
11	0	0	0	0	533	486	
12	0	0	0	0	535	480	
13	0	0	0	0	533	470	
14	0	0	0	0	531	460	
15	0	0	0	0	533	449	
0	0	0	0	0	528	440	
1	0	0	0	0	531	430	
2	0	0	0	0	531	419	
3	0	0	0	0	524	417	
4	0	0	0	0	517	415	
5	0	0	0	0	513	417	
6	0	0	0	0	511	418	
7	0	0	0	0	508	421	
8	0	0	0	0	505	425	
9	0	0	0	0	507	430	
10	0	0	0	0	507	436	
11	0	0	0	0	510	441	
12	0	0	0	0	515	449	
13	0	0	0	0	520	457	
14	0	0	0	0	516	463	
15	0	0	0	0	516	467	
0	0	0	0	0	519	470	
1	0	0	0	0	515	472	
2	0	0	0	0	514	472	
3	0	0	0	0	515	471	
4	0	0	0	0	513	474	
5	0	0	0	0	514	476	
6	0	0	0	0	516	478	
7	0	0	0	0	515	480	
8	0	0	0	0	512	483	
9	0	0	0	0	512	483	
10	0	0	0	0	516	486	
11	0	0	0	0	513	491	
12	0	0	0	0	516	495	
13	0	0	0	0	517	501	
14	0	0	0	0	519	504	
15	0	0	0	0	515	505	
0	0	0	0	0	514	504	
1	0	0	0	0	507	502	
2	0	0	0	0	504	498	
3	0	0	0	0	507	494	
4	0	0	0	0	508	490	
5	0	0	0	0	503	488	
6	0	0	0	0	502	488	
7	0	0	0	0	504	488	
8	0	0	0	0	504	489	
9	0	0	0	0	505	490	
10	0	0	0	0	505	488	
11	0	0	0	0	507	487	
12	0	0	0	0	506	489	
13	0	0	0	0	504	492	
14	0	0	0	0	508	497	
15	0	0	0	0	508	499	
0	0	0	0	0	506	499	
1	0	0	0	0	505	498	
2	0	0	0	0	500	496	
3	0	0	0	0	499	495	
4	0	0	0	0	506	492	
5	0	0	0	0	505	491	
6	0	0	0	0	503	492	
7	0	0	0	0	507	492	
8	0	0	0	0	511	493	
9	0	0	0	0	511	493	
10	0	0	0	0	513	494	
11	0	0	0	0	511	494	
12	0	0	0	0	508	494	
13	0	0	0	0	510	494	
14	0	0	0	0	507	498	
15	0	0	0	0	510	504	
0	0	0	0	0	508	505	
1	0	0	0	0	509	506	
2	0	0	0	0	507	505	
3	0	0	0	0	506	501	
4	0	0	0	0	507	497	
5	0	0	0	0	505	493	
6	0	0	0	0	508	493	
7	0	0	0	0	507	495	
8	0	0	0	0	511	495	
9	0	0	0	0	508	496	
10	0	0	0	0	511	496	
11	0	0	0	0	511	496	
12	0	0	0	0	512	497	
13	0	0	0	0	511	498	
14	0	0	0	0	513	500	
15	0	0	0	0	506	507	
0	0	0	0	0	510	509	
1	0	0	0	0	508	509	
2	0	0	0	0	511	508	
3	0	0	0	0	508	505	
4	0	0	0	0	507	503	
5	0	0	0	0	510	499	
6	0	0	0	0	510	497	
7	0	0	0	0	506	497	
8	0	0	0	0	510	498	
9	0	0	0	0	508	499	
10	0	0	0	0	511	500	
11	0	0	0	0	511	502	
12	0	0	0	0	510	503	
13	0	0	0	0	509	504	
14	0	0	0	0	511	505	
15	0	0	0	0	510	508	
0	0	0	0	0	513	513	
1	0	0	0	0	513	515	
2	0	0	0	0	510	516	
3	0	0	0	0	509	516	
4	0	0	0	0	505	513	
5	0	0	0	0	507	508	
6	0	0	0	0	509	504	
7	0	0	0	0	508	503	
8	0	0	0	0	509	505	
9	0	0	0	0	506	508	
10	0	0	0	0	509	508	
11	0	0	0	0	510	508	
12	0	0	0	0	508	510	
13	0	0	0	0	510	510	
14	0	0	0	0	510	512	
15	0	0	0	0	513	514	
0	0	0	0	0	510	518	
1	0	0	0	0	513	522	
2	0	0	0	0	510	523	
3	0	0	0	0	510	523	
4	0	0	0	0	511	522	
5	0	0	0	0	508	519	
6	0	0	0	0	508	517	
7	0	0	0	0	505	513	
8	0	0	0	0	511	513	
9	0	0	0	0	511	514	
10	0	0	0	0	512	517	
11	0	0	0	0	512	520	
12	0	0	0	0	511	521	
13	0	0	0	0	512	523	
14	0	0	0	0	506	525	
15	0	0	0	0	507	527	
0	0	0	0	0	509	530	
1	0	0	0	0	512	536	
2	0	0	0	0	510	539	
3	0	0	0	0	503	538	
4	0	0	0	0	517	538	
5	0	0	0	0	510	537	
6	0	0	0	0	507	534	
7	0	0	0	0	506	532	
8	0	0	0	0	510	529	
9	0	0	0	0	506	529	
10	0	0	0	0	508	529	
11	0	0	0	0	509	530	
12	0	0	0	0	510	531	
13	0	0	0	0	510	532	
14	0	0	0	0	508	534	
15	0	0	0	0	512	536	
0	0	0	0	0	511	537	
1	0	0	0	0	512	540	
2	0	0	0	0	514	544	
3	0	0	0	0	511	545	
4	0	0	0	0	511	546	
5	0	0	0	0	510	545	
6	0	0	0	0	507	542	
7	0	0	0	0	508	539	
8	0	0	0	0	510	533	
9	0	0	0	0	505	532	
10	0	0	0	0	506	533	
11	0	0	0	0	509	533	
12	0	0	0	0	511	531	
13	0	0	0	0	508	531	
14	0	0	0	0	509	532	
15	0	0	0	0	509	532	
0	0	0	0	0	511	532	
1	0	0	0	0	515	532	
2	0	0	0	0	513	537	
3	0	0	0	0	516	536	
4	0	0	0	0	515	534	
5	0	0	0	0	510	533	
6	0	0	0	0	508	532	
7	0	0	0	0	504	528	
8	0	0	0	0	507	524	
9	0	0	0	0	508	518	
10	0	0	0	0	509	517	
11	0	0	0	0	506	517	
12	0	0	0	0	506	516	
13	0	0	0	0	507	515	
14	0	0	0	0	507	515	
15	0	0	0	0	510	513	
0	0	0	0	0	511	511	
1	0	0	0	0	510	510	
2	0	0	0	0	516	510	
3	0	0	0	0	512	512	
4	0	0	0	0	512	511	
5	0	0	0	0	509	508	
6	0	0	0	0	509	503	
7	0	0	0	0	504	499	
8	0	0	0	0	504	496	
9	0	0	0	0	509	491	
10	0	0	0	0	505	485	
11	0	0	0	0	507	483	
12	0	0	0	0	506	483	
13	0	0	0	0	507	481	
14	0	0	0	0	507	479	
15	0	0	0	0	508	478	
0	0	0	0	0	508	478	
1	0	0	0	0	506	477	
2	0	0	0	0	510	477	
3	0	0	0	0	508	479	
4	0	0	0	0	513	482	
5	0	0	0	0	508	482	
6	0	0	0	0	510	482	
7	0	0	0	0	507	481	
8	0	0	0	0	506	478	
9	0	0	0	0	505	473	
10	0	0	0	0	508	468	
11	0	0	0	0	506	467	
12	0	0	0	0	508	466	
13	0	0	0	0	511	465	
14	0	0	0	0	513	465	
15	0	0	0	0	508	465	
0	0	0	0	0	516	467	
1	0	0	0	0	510	467	
2	0	0	0	0	508	466	
3	0	0	0	0	509	467	
4	0	0	0	0	508	470	
5	0	0	0	0	515	472	
6	0	0	0	0	511	471	
7	0	0	0	0	512	470	
8	0	0	0	0	511	468	
9	0	0	0	0	506	464	
10	0	0	0	0	504	460	
11	0	0	0	0	516	457	
12	0	0	0	0	511	459	
13	0	0	0	0	511	460	
14	0	0	0	0	508	461	
15	0	0	0	0	510	462	
0	0	0	0	0	510	461	
1	0	0	0	0	510	462	
2	0	0	0	0	513	463	
3	0	0	0	0	512	462	
4	0	0	0	0	510	464	
5	0	0	0	0	507	468	
6	0	0	0	0	512	470	
7	0	0	0	0	511	470	
8	0	0	0	0	510	471	
9	0	0	0	0	504	470	
10	0	0	0	0	507	466	
11	0	0	0	0	516	464	
12	0	0	0	0	511	463	
13	0	0	0	0	507	465	
14	0	0	0	0	509	467	
15	0	0	0	0	507	467	
0	0	0	0	0	508	467	
1	0	0	0	0	511	465	
2	0	0	0	0	510	465	
3	0	0	0	0	507	467	
4	0	0	0	0	510	468	
5	0	0	0	0	512	472	
6	0	0	0	0	512	477	
7	0	0	0	0	509	478	
8	0	0	0	0	511	477	
9	0	0	0	0	509	477	
10	0	0	0	0	508	474	
11	0	0	0	0	510	472	
12	0	0	0	0	510	469	
13	0	0	0	0	510	469	
14	0	0	0	0	509	471	
15	0	0	0	0	510	472	
0	0	0	0	0	513	473	
1	0	0	0	0	511	474	
2	0	0	0	0	508	474	
3	0	0	0	0	512	475	
4	0	0	0	0	510	476	
5	0	0	0	0	511	478	
6	0	0	0	0	508	483	
7	0	0	0	0	505	485	
8	0	0	0	0	516	485	
9	0	0	0	0	515	483	
10	0	0	0	0	507	483	
11	0	0	0	0	505	480	
12	0	0	0	0	509	477	
13	0	0	0	0	507	474	
14	0	0	0	0	508	474	
15	0	0	0	0	506	473	
0	0	0	0	0	508	475	
1	0	0	0	0	510	477	
2	0	0	0	0	513	478	
3	0	0	0	0	507	479	
4	0	0	0	0	506	479	
5	0	0	0	0	507	480	
6	0	0	0	0	510	482	
7	0	0	0	0	511	486	
8	0	0	0	0	512	487	
9	0	0	0	0	508	486	
10	0	0	0	0	511	484	
11	0	0	0	0	511	481	
12	0	0	0	0	509	478	
13	0	0	0	0	510	476	
14	0	0	0	0	509	474	
15	0	0	0	0	507	476	
0	0	0	0	0	507	477	
1	0	0	0	0	508	477	
2	0	0	0	0	512	478	
3	0	0	0	0	513	478	
4	0	0	0	0	511	478	
5	0	0	0	0	509	479	
6	0	0	0	0	508	481	
7	0	0	0	0	511	483	
8	0	0	0	0	511	487	
9	0	0	0	0	511	487	
10	0	0	0	0	512	489	
11	0	0	0	0	509	489	
12	0	0	0	0	507	487	
13	0	0	0	0	508	484	
14	0	0	0	0	511	479	
15	0	0	0	0	504	477	
0	0	0	0	0	511	480	
1	0	0	0	0	511	481	
2	0	0	0	0	511	484	
3	0	0	0	0	510	485	
4	0	0	0	0	510	485	
5	0	0	0	0	504	485	
6	0	0	0	0	510	485	
7	0	0	0	0	515	487	
8	0	0	0	0	508	492	
9	0	0	0	0	513	493	
10	0	0	0	0	510	493	
11	0	0	0	0	509	492	
12	0	0	0	0	510	492	
13	0	0	0	0	507	488	
14	0	0	0	0	510	486	
15	0	0	0	0	510	483	
0	0	0	0	0	507	483	
1	0	0	0	0	508	483	
2	0	0	0	0	512	484	
3	0	0	0	0	510	486	
4	0	0	0	0	509	486	
5	0	0	0	0	508	487	
6	0	0	0	0	503	489	
7	0	0	0	0	510	492	
8	0	0	0	0	510	495	
9	0	0	0	0	508	500	
10	0	0	0	0	516	502	
11	0	0	0	0	515	501	
12	0	0	0	0	519	499	
13	0	0	0	0	515	496	
14	0	0	0	0	515	492	
15	0	0	0	0	515	487	
0	0	0	0	0	513	486	
1	0	0	0	0	510	487	
2	0	0	0	0	511	487	
3	0	0	0	0	505	488	
4	0	0	0	0	507	490	
5	0	0	0	0	507	489	
6	0	0	0	0	504	489	
7	0	0	0	0	507	492	
8	0	0	0	0	510	492	
9	0	0	0	0	509	495	
10	0	0	0	0	507	499	
11	0	0	0	0	505	499	
12	0	0	0	0	505	499	
13	0	0	0	0	505	499	
14	0	0	0	0	508	498	
15	0	0	0	0	504	494	
0	0	0	0	0	507	490	
1	0	0	0	0	511	492	
2	0	0	0	0	508	494	
3	0	0	0	0	509	495	
4	0	0	0	0	507	497	
5	0	0	0	0	502	497	
6	0	0	0	0	507	498	
7	0	0	0	0	512	501	
8	0	0	0	0	511	504	
9	0	0	0	0	510	507	
10	0	0	0	0	508	513	
11	0	0	0	0	514	515	
12	0	0	0	0	513	516	
13	0	0	0	0	510	516	
14	0	0	0	0	511	517	
15	0	0	0	0	508	515	
0	0	0	0	0	510	512	
1	0	0	0	0	507	509	
2	0	0	0	0	508	509	
3	0	0	0	0	506	510	
4	0	0	0	0	505	511	
5	0	0	0	0	505	512	
6	0	0	0	0	509	513	
7	0	0	0	0	507	515	
8	0	0	0	0	510	516	
9	0	0	0	0	511	517	
10	0	0	0	0	511	520	
11	0	0	0	0	508	526	
12	0	0	0	0	507	528	
13	0	0	0	0	513	528	
14	0	0	0	0	514	528	
15	0	0	0	0	507	527	
0	0	0	0	0	507	524	
1	0	0	0	0	513	518	
2	0	0	0	0	507	516	
3	0	0	0	0	504	517	
4	0	0	0	0	505	518	
5	0	0	0	0	508	516	
6	0	0	0	0	508	516	
7	0	0	0	0	508	517	
8	0	0	0	0	509	516	
9	0	0	0	0	510	515	
10	0	0	0	0	511	516	
11	0	0	0	0	512	519	
12	0	0	0	0	515	523	
13	0	0	0	0	511	522	
14	0	0	0	0	512	520	
15	0	0	0	0	513	519	
0	0	0	0	0	508	517	
1	0	0	0	0	509	513	
2	0	0	0	0	513	508	
3	0	0	0	0	515	507	
4	0	0	0	0	512	505	
5	0	0	0	0	511	505	
6	0	0	0	0	511	505	
7	0	0	0	0	511	504	
8	0	0	0	0	513	504	
9	0	0	0	0	518	504	
10	0	0	0	0	516	504	
11	0	0	0	0	515	505	
12	0	0	0	0	515	508	
13	0	0	0	0	515	510	
14	0	0	0	0	509	509	
15	0	0	0	0	510	508	
0	0	0	0	0	506	508	
1	0	0	0	0	503	504	
2	0	0	0	0	504	502	
3	0	0	0	0	504	497	
4	0	0	0	0	507	499	
5	0	0	0	0	509	501	
6	0	0	0	0	509	499	
7	0	0	0	0	508	500	
8	0	0	0	0	509	502	
9	0	0	0	0	508	505	
10	0	0	0	0	510	505	
11	0	0	0	0	512	506	
12	0	0	0	0	511	512	
13	0	0	0	0	512	518	
14	0	0	0	0	512	517	
15	0	0	0	0	511	517	
0	0	0	0	0	509	516	
1	0	0	0	0	502	515	
2	0	0	0	0	505	512	
3	0	0	0	0	510	509	
4	0	0	0	0	511	508	
5	0	0	0	0	514	508	
6	0	0	0	0	518	506	
7	0	0	0	0	522	506	
8	0	0	0	0	522	506	
9	0	0	0	0	521	503	
10	0	0	0	0	519	500	
11	0	0	0	0	513	497	
12	0	0	0	0	517	499	
13	0	0	0	0	519	503	
14	0	0	0	0	517	504	
15	0	0	0	0	510	504	
0	0	0	0	0	506	507	
1	0	0	0	0	512	508	
2	0	0	0	0	508	509	
3	0	0	0	0	509	509	
4	0	0	0	0	510	508	
5	0	0	0	0	506	510	
6	0	0	0	0	504	512	
7	0	0	0	0	504	514	
8	0	0	0	0	500	519	
9	0	0	0	0	501	521	
10	0	0	0	0	494	524	
11	0	0	0	0	496	527	
12	0	0	0	0	491	531	
13	0	0	0	0	497	537	
14	0	0	0	0	497	545	
15	0	0	0	0	502	550	
0	0	0	0	0	495	553	
1	0	0	0	0	489	557	
2	0	0	0	0	487	561	
3	0	0	0	0	483	563	
4	0	0	0	0	486	561	
5	0	0	0	0	484	558	
6	0	0	0	0	487	558	
7	0	0	0	0	489	557	
8	0	0	0	0	499	553	
9	0	0	0	0	500	550	
10	0	0	0	0	504	545	
11	0	0	0	0	506	540	
12	0	0	0	0	513	534	
13	0	0	0	0	519	529	
14	0	0	0	0	526	523	
15	0	0	0	0	529	517	
0	0	0	0	0	529	507	
1	0	0	0	0	529	495	
2	0	0	0	0	531	482	
3	0	0	0	0	528	468	
