# OpenSignals Text File Format. Version 1
# {"98:D3:41:FD:4F:50": {"position": 0, "device": "bitalino_rev", "device name": "98:D3:41:FD:4F:50", "device connection": "BTH98:D3:41:FD:4F:50", "sampling rate": 1000, "resolution": [4, 1, 1, 1, 1, 10, 10], "firmware version": 1282, "comments": "", "keywords": "", "mode": 0, "sync interval": 2, "date": "2025-7-2", "time": "12:43:0.201", "channels": [1, 2], "sensor": ["EMGBITREV", "ECGBIT"], "label": ["A1", "A2"], "column": ["nSeq", "I1", "I2", "O1", "O2", "A1", "A2"], "special": [{}, {}], "digital IO": [0, 0, 1, 1]}}
# EndOfHeader
0	0	0	0	0	536	462	
1	0	0	0	0	556	461	
2	0	0	0	0	566	466	
3	0	0	0	0	583	473	
4	0	0	0	0	599	485	
5	0	0	0	0	590	500	
6	0	0	0	0	547	513	
7	0	0	0	0	510	521	
8	0	0	0	0	487	526	
9	0	0	0	0	442	524	
10	0	0	0	0	416	515	
11	0	0	0	0	423	503	
12	0	0	0	0	445	491	
13	0	0	0	0	468	480	
14	0	0	0	0	492	469	
15	0	0	0	0	512	463	
0	0	0	0	0	526	460	
1	0	0	0	0	542	459	
2	0	0	0	0	557	461	
3	0	0	0	0	561	467	
4	0	0	0	0	577	476	
5	0	0	0	0	584	488	
6	0	0	0	0	562	500	
7	0	0	0	0	521	508	
8	0	0	0	0	496	512	
9	0	0	0	0	473	513	
10	0	0	0	0	436	507	
11	0	0	0	0	430	497	
12	0	0	0	0	446	487	
13	0	0	0	0	471	478	
14	0	0	0	0	490	468	
15	0	0	0	0	507	463	
0	0	0	0	0	522	460	
1	0	0	0	0	528	459	
2	0	0	0	0	541	459	
3	0	0	0	0	551	463	
4	0	0	0	0	555	469	
5	0	0	0	0	566	480	
6	0	0	0	0	562	490	
7	0	0	0	0	531	499	
8	0	0	0	0	501	503	
9	0	0	0	0	488	505	
10	0	0	0	0	462	503	
11	0	0	0	0	446	495	
12	0	0	0	0	451	486	
13	0	0	0	0	473	477	
14	0	0	0	0	487	471	
15	0	0	0	0	499	466	
0	0	0	0	0	515	463	
1	0	0	0	0	525	461	
2	0	0	0	0	530	462	
3	0	0	0	0	541	463	
4	0	0	0	0	543	467	
5	0	0	0	0	544	473	
6	0	0	0	0	551	483	
7	0	0	0	0	545	492	
8	0	0	0	0	516	497	
9	0	0	0	0	496	500	
10	0	0	0	0	486	500	
11	0	0	0	0	465	497	
12	0	0	0	0	455	488	
13	0	0	0	0	466	483	
14	0	0	0	0	485	478	
15	0	0	0	0	498	474	
0	0	0	0	0	512	472	
1	0	0	0	0	518	471	
2	0	0	0	0	524	470	
3	0	0	0	0	531	471	
4	0	0	0	0	536	473	
5	0	0	0	0	537	477	
6	0	0	0	0	546	483	
7	0	0	0	0	546	491	
8	0	0	0	0	530	497	
9	0	0	0	0	508	499	
10	0	0	0	0	497	500	
11	0	0	0	0	481	499	
12	0	0	0	0	462	491	
13	0	0	0	0	463	487	
14	0	0	0	0	476	481	
15	0	0	0	0	488	479	
0	0	0	0	0	501	476	
1	0	0	0	0	514	475	
2	0	0	0	0	520	475	
3	0	0	0	0	526	474	
4	0	0	0	0	531	475	
5	0	0	0	0	529	476	
6	0	0	0	0	531	478	
7	0	0	0	0	538	481	
8	0	0	0	0	535	487	
9	0	0	0	0	519	490	
10	0	0	0	0	503	492	
11	0	0	0	0	495	492	
12	0	0	0	0	484	490	
13	0	0	0	0	475	486	
14	0	0	0	0	479	482	
15	0	0	0	0	497	479	
0	0	0	0	0	510	478	
1	0	0	0	0	517	478	
2	0	0	0	0	518	479	
3	0	0	0	0	519	479	
4	0	0	0	0	515	479	
5	0	0	0	0	518	480	
6	0	0	0	0	516	481	
7	0	0	0	0	524	484	
8	0	0	0	0	536	488	
9	0	0	0	0	534	495	
10	0	0	0	0	512	498	
11	0	0	0	0	499	500	
12	0	0	0	0	493	501	
13	0	0	0	0	470	498	
14	0	0	0	0	457	492	
15	0	0	0	0	464	485	
0	0	0	0	0	486	479	
1	0	0	0	0	507	475	
2	0	0	0	0	517	471	
3	0	0	0	0	521	468	
4	0	0	0	0	522	467	
5	0	0	0	0	524	466	
6	0	0	0	0	526	465	
7	0	0	0	0	533	467	
8	0	0	0	0	556	470	
9	0	0	0	0	586	482	
10	0	0	0	0	594	496	
11	0	0	0	0	566	509	
12	0	0	0	0	539	521	
13	0	0	0	0	505	531	
14	0	0	0	0	451	534	
15	0	0	0	0	415	530	
0	0	0	0	0	412	520	
1	0	0	0	0	436	510	
2	0	0	0	0	461	500	
3	0	0	0	0	482	491	
4	0	0	0	0	492	484	
5	0	0	0	0	504	479	
6	0	0	0	0	517	475	
7	0	0	0	0	529	473	
8	0	0	0	0	542	473	
9	0	0	0	0	577	478	
10	0	0	0	0	603	490	
11	0	0	0	0	599	503	
12	0	0	0	0	567	515	
13	0	0	0	0	541	526	
14	0	0	0	0	497	532	
15	0	0	0	0	445	532	
0	0	0	0	0	416	527	
1	0	0	0	0	423	518	
2	0	0	0	0	448	508	
3	0	0	0	0	468	500	
4	0	0	0	0	488	491	
5	0	0	0	0	501	486	
6	0	0	0	0	511	480	
7	0	0	0	0	524	477	
8	0	0	0	0	532	475	
9	0	0	0	0	552	474	
10	0	0	0	0	589	478	
11	0	0	0	0	608	492	
12	0	0	0	0	584	504	
13	0	0	0	0	555	516	
14	0	0	0	0	529	526	
15	0	0	0	0	477	532	
0	0	0	0	0	429	531	
1	0	0	0	0	414	524	
2	0	0	0	0	433	515	
3	0	0	0	0	455	505	
4	0	0	0	0	476	497	
5	0	0	0	0	489	488	
6	0	0	0	0	504	482	
7	0	0	0	0	515	478	
8	0	0	0	0	526	475	
9	0	0	0	0	536	474	
10	0	0	0	0	561	475	
11	0	0	0	0	600	487	
12	0	0	0	0	607	496	
13	0	0	0	0	577	508	
14	0	0	0	0	547	519	
15	0	0	0	0	512	527	
0	0	0	0	0	457	531	
1	0	0	0	0	422	526	
2	0	0	0	0	417	518	
3	0	0	0	0	440	509	
4	0	0	0	0	464	501	
5	0	0	0	0	485	492	
6	0	0	0	0	496	485	
7	0	0	0	0	508	480	
8	0	0	0	0	519	476	
9	0	0	0	0	527	473	
10	0	0	0	0	540	472	
11	0	0	0	0	576	476	
12	0	0	0	0	599	487	
13	0	0	0	0	598	499	
14	0	0	0	0	566	511	
15	0	0	0	0	536	523	
0	0	0	0	0	495	531	
1	0	0	0	0	444	533	
2	0	0	0	0	417	528	
3	0	0	0	0	424	519	
4	0	0	0	0	447	509	
5	0	0	0	0	468	501	
6	0	0	0	0	487	492	
7	0	0	0	0	497	486	
8	0	0	0	0	511	480	
9	0	0	0	0	524	477	
10	0	0	0	0	531	475	
11	0	0	0	0	547	476	
12	0	0	0	0	586	483	
13	0	0	0	0	604	496	
14	0	0	0	0	587	508	
15	0	0	0	0	556	521	
0	0	0	0	0	531	531	
1	0	0	0	0	481	535	
2	0	0	0	0	432	534	
3	0	0	0	0	418	527	
4	0	0	0	0	430	519	
5	0	0	0	0	455	511	
6	0	0	0	0	479	502	
7	0	0	0	0	491	495	
8	0	0	0	0	500	489	
9	0	0	0	0	515	485	
10	0	0	0	0	525	481	
11	0	0	0	0	536	480	
12	0	0	0	0	561	481	
13	0	0	0	0	595	487	
14	0	0	0	0	604	500	
15	0	0	0	0	576	512	
0	0	0	0	0	544	523	
1	0	0	0	0	515	531	
2	0	0	0	0	460	534	
3	0	0	0	0	422	531	
4	0	0	0	0	421	525	
5	0	0	0	0	440	517	
6	0	0	0	0	462	509	
7	0	0	0	0	480	500	
8	0	0	0	0	492	495	
9	0	0	0	0	506	490	
10	0	0	0	0	521	486	
11	0	0	0	0	529	483	
12	0	0	0	0	541	483	
13	0	0	0	0	577	486	
14	0	0	0	0	600	496	
15	0	0	0	0	596	511	
0	0	0	0	0	567	523	
1	0	0	0	0	541	534	
2	0	0	0	0	497	540	
3	0	0	0	0	445	540	
4	0	0	0	0	418	535	
5	0	0	0	0	423	527	
6	0	0	0	0	448	519	
7	0	0	0	0	470	509	
8	0	0	0	0	486	501	
9	0	0	0	0	499	494	
10	0	0	0	0	511	488	
11	0	0	0	0	522	483	
12	0	0	0	0	530	480	
13	0	0	0	0	547	481	
14	0	0	0	0	584	487	
15	0	0	0	0	600	501	
0	0	0	0	0	587	514	
1	0	0	0	0	556	526	
2	0	0	0	0	533	537	
3	0	0	0	0	480	543	
4	0	0	0	0	433	541	
5	0	0	0	0	419	534	
6	0	0	0	0	432	524	
7	0	0	0	0	455	513	
8	0	0	0	0	475	503	
9	0	0	0	0	490	497	
10	0	0	0	0	502	492	
11	0	0	0	0	515	487	
12	0	0	0	0	528	484	
13	0	0	0	0	537	482	
14	0	0	0	0	562	484	
15	0	0	0	0	594	494	
0	0	0	0	0	600	508	
1	0	0	0	0	575	523	
2	0	0	0	0	545	535	
3	0	0	0	0	516	544	
4	0	0	0	0	460	546	
5	0	0	0	0	424	540	
6	0	0	0	0	422	531	
7	0	0	0	0	440	520	
8	0	0	0	0	467	509	
9	0	0	0	0	479	499	
10	0	0	0	0	495	493	
11	0	0	0	0	504	487	
12	0	0	0	0	518	483	
13	0	0	0	0	529	480	
14	0	0	0	0	539	480	
15	0	0	0	0	575	486	
0	0	0	0	0	600	497	
1	0	0	0	0	597	512	
2	0	0	0	0	565	525	
3	0	0	0	0	537	537	
4	0	0	0	0	496	545	
5	0	0	0	0	446	545	
6	0	0	0	0	417	539	
7	0	0	0	0	423	528	
8	0	0	0	0	446	518	
9	0	0	0	0	467	507	
10	0	0	0	0	485	499	
11	0	0	0	0	499	491	
12	0	0	0	0	512	486	
13	0	0	0	0	523	481	
14	0	0	0	0	534	478	
15	0	0	0	0	550	479	
0	0	0	0	0	585	487	
1	0	0	0	0	597	503	
2	0	0	0	0	581	517	
3	0	0	0	0	552	529	
4	0	0	0	0	527	540	
5	0	0	0	0	479	543	
6	0	0	0	0	433	538	
7	0	0	0	0	420	528	
8	0	0	0	0	431	518	
9	0	0	0	0	455	508	
10	0	0	0	0	479	498	
11	0	0	0	0	492	491	
12	0	0	0	0	506	486	
13	0	0	0	0	518	481	
14	0	0	0	0	529	480	
15	0	0	0	0	538	479	
0	0	0	0	0	564	483	
1	0	0	0	0	595	494	
2	0	0	0	0	601	511	
3	0	0	0	0	575	524	
4	0	0	0	0	545	536	
5	0	0	0	0	505	543	
6	0	0	0	0	445	540	
7	0	0	0	0	420	532	
8	0	0	0	0	433	522	
9	0	0	0	0	465	513	
10	0	0	0	0	488	504	
11	0	0	0	0	504	499	
12	0	0	0	0	513	496	
13	0	0	0	0	520	495	
14	0	0	0	0	527	496	
15	0	0	0	0	530	497	
0	0	0	0	0	536	499	
1	0	0	0	0	542	503	
2	0	0	0	0	538	508	
3	0	0	0	0	522	512	
4	0	0	0	0	503	513	
5	0	0	0	0	497	513	
6	0	0	0	0	484	512	
7	0	0	0	0	478	507	
8	0	0	0	0	485	503	
9	0	0	0	0	502	499	
10	0	0	0	0	515	497	
11	0	0	0	0	519	495	
12	0	0	0	0	521	495	
13	0	0	0	0	519	496	
14	0	0	0	0	521	496	
15	0	0	0	0	521	497	
0	0	0	0	0	519	498	
1	0	0	0	0	526	500	
2	0	0	0	0	535	503	
3	0	0	0	0	528	507	
4	0	0	0	0	508	510	
5	0	0	0	0	494	510	
6	0	0	0	0	492	511	
7	0	0	0	0	477	508	
8	0	0	0	0	473	504	
9	0	0	0	0	486	499	
10	0	0	0	0	503	496	
11	0	0	0	0	513	493	
12	0	0	0	0	519	492	
13	0	0	0	0	519	491	
14	0	0	0	0	515	491	
15	0	0	0	0	517	492	
0	0	0	0	0	516	493	
1	0	0	0	0	519	494	
2	0	0	0	0	527	496	
3	0	0	0	0	532	499	
4	0	0	0	0	523	502	
5	0	0	0	0	505	503	
6	0	0	0	0	495	504	
7	0	0	0	0	487	503	
8	0	0	0	0	475	499	
9	0	0	0	0	477	494	
10	0	0	0	0	492	490	
11	0	0	0	0	508	488	
12	0	0	0	0	515	487	
13	0	0	0	0	519	487	
14	0	0	0	0	520	487	
15	0	0	0	0	519	487	
0	0	0	0	0	520	487	
1	0	0	0	0	517	489	
2	0	0	0	0	519	491	
3	0	0	0	0	534	494	
4	0	0	0	0	532	499	
5	0	0	0	0	517	502	
6	0	0	0	0	501	504	
7	0	0	0	0	496	503	
8	0	0	0	0	482	501	
9	0	0	0	0	474	497	
10	0	0	0	0	478	492	
11	0	0	0	0	497	490	
12	0	0	0	0	511	488	
13	0	0	0	0	516	487	
14	0	0	0	0	521	487	
15	0	0	0	0	520	487	
0	0	0	0	0	520	487	
1	0	0	0	0	519	487	
2	0	0	0	0	519	488	
3	0	0	0	0	524	491	
4	0	0	0	0	535	495	
5	0	0	0	0	532	500	
6	0	0	0	0	513	503	
7	0	0	0	0	501	504	
8	0	0	0	0	498	504	
9	0	0	0	0	478	501	
10	0	0	0	0	476	497	
11	0	0	0	0	479	494	
12	0	0	0	0	490	490	
13	0	0	0	0	496	487	
14	0	0	0	0	505	484	
15	0	0	0	0	515	483	
0	0	0	0	0	520	482	
1	0	0	0	0	528	482	
2	0	0	0	0	537	484	
3	0	0	0	0	540	488	
4	0	0	0	0	549	494	
5	0	0	0	0	553	506	
6	0	0	0	0	542	517	
7	0	0	0	0	510	526	
8	0	0	0	0	488	531	
9	0	0	0	0	469	536	
10	0	0	0	0	438	534	
11	0	0	0	0	426	529	
12	0	0	0	0	440	520	
13	0	0	0	0	455	514	
14	0	0	0	0	470	509	
15	0	0	0	0	492	506	
0	0	0	0	0	512	504	
1	0	0	0	0	523	505	
2	0	0	0	0	543	508	
3	0	0	0	0	555	513	
4	0	0	0	0	564	520	
5	0	0	0	0	585	532	
6	0	0	0	0	588	544	
7	0	0	0	0	561	556	
8	0	0	0	0	524	565	
9	0	0	0	0	503	572	
10	0	0	0	0	478	575	
11	0	0	0	0	455	571	
12	0	0	0	0	458	561	
13	0	0	0	0	476	553	
14	0	0	0	0	498	544	
15	0	0	0	0	508	538	
0	0	0	0	0	529	533	
1	0	0	0	0	547	529	
2	0	0	0	0	560	524	
3	0	0	0	0	572	520	
4	0	0	0	0	577	518	
5	0	0	0	0	582	520	
6	0	0	0	0	593	518	
7	0	0	0	0	581	518	
8	0	0	0	0	537	516	
9	0	0	0	0	504	513	
10	0	0	0	0	482	508	
11	0	0	0	0	453	501	
12	0	0	0	0	442	491	
13	0	0	0	0	448	481	
14	0	0	0	0	472	471	
15	0	0	0	0	478	466	
0	0	0	0	0	489	462	
1	0	0	0	0	499	460	
2	0	0	0	0	503	459	
3	0	0	0	0	510	456	
4	0	0	0	0	516	455	
5	0	0	0	0	520	454	
6	0	0	0	0	526	454	
7	0	0	0	0	535	458	
8	0	0	0	0	525	460	
9	0	0	0	0	498	462	
10	0	0	0	0	484	462	
11	0	0	0	0	473	462	
12	0	0	0	0	454	458	
13	0	0	0	0	451	452	
14	0	0	0	0	464	448	
15	0	0	0	0	483	446	
0	0	0	0	0	496	444	
1	0	0	0	0	509	444	
2	0	0	0	0	520	444	
3	0	0	0	0	527	446	
4	0	0	0	0	535	449	
5	0	0	0	0	537	453	
6	0	0	0	0	540	460	
7	0	0	0	0	547	467	
8	0	0	0	0	540	480	
9	0	0	0	0	522	488	
10	0	0	0	0	497	493	
11	0	0	0	0	484	499	
12	0	0	0	0	465	502	
13	0	0	0	0	451	497	
14	0	0	0	0	454	497	
15	0	0	0	0	472	495	
0	0	0	0	0	487	494	
1	0	0	0	0	497	494	
2	0	0	0	0	512	494	
3	0	0	0	0	521	494	
4	0	0	0	0	527	497	
5	0	0	0	0	533	501	
6	0	0	0	0	538	504	
7	0	0	0	0	547	510	
8	0	0	0	0	553	517	
9	0	0	0	0	544	527	
10	0	0	0	0	521	532	
11	0	0	0	0	503	536	
12	0	0	0	0	496	538	
13	0	0	0	0	475	538	
14	0	0	0	0	467	532	
15	0	0	0	0	472	527	
0	0	0	0	0	492	525	
1	0	0	0	0	501	521	
2	0	0	0	0	514	517	
3	0	0	0	0	522	515	
4	0	0	0	0	528	513	
5	0	0	0	0	535	513	
6	0	0	0	0	541	515	
7	0	0	0	0	541	519	
8	0	0	0	0	548	524	
9	0	0	0	0	549	531	
10	0	0	0	0	535	536	
11	0	0	0	0	509	539	
12	0	0	0	0	499	540	
13	0	0	0	0	487	542	
14	0	0	0	0	464	539	
15	0	0	0	0	463	532	
0	0	0	0	0	472	527	
1	0	0	0	0	488	522	
2	0	0	0	0	502	519	
3	0	0	0	0	512	517	
4	0	0	0	0	521	517	
5	0	0	0	0	524	518	
6	0	0	0	0	533	519	
7	0	0	0	0	538	523	
8	0	0	0	0	540	525	
9	0	0	0	0	547	530	
10	0	0	0	0	543	539	
11	0	0	0	0	526	544	
12	0	0	0	0	505	547	
13	0	0	0	0	494	548	
14	0	0	0	0	475	545	
15	0	0	0	0	464	540	
0	0	0	0	0	465	531	
1	0	0	0	0	477	526	
2	0	0	0	0	492	520	
3	0	0	0	0	504	517	
4	0	0	0	0	515	514	
5	0	0	0	0	524	512	
6	0	0	0	0	529	512	
7	0	0	0	0	537	515	
8	0	0	0	0	541	518	
9	0	0	0	0	544	524	
10	0	0	0	0	551	535	
11	0	0	0	0	547	540	
12	0	0	0	0	517	544	
13	0	0	0	0	499	547	
14	0	0	0	0	487	547	
15	0	0	0	0	467	543	
0	0	0	0	0	455	536	
1	0	0	0	0	460	527	
2	0	0	0	0	472	521	
3	0	0	0	0	484	514	
4	0	0	0	0	497	508	
5	0	0	0	0	512	504	
6	0	0	0	0	520	503	
7	0	0	0	0	536	502	
8	0	0	0	0	548	504	
9	0	0	0	0	560	510	
10	0	0	0	0	569	522	
11	0	0	0	0	587	536	
12	0	0	0	0	575	552	
13	0	0	0	0	535	564	
14	0	0	0	0	504	570	
15	0	0	0	0	480	573	
0	0	0	0	0	436	569	
1	0	0	0	0	409	557	
2	0	0	0	0	411	542	
3	0	0	0	0	425	525	
4	0	0	0	0	440	507	
5	0	0	0	0	459	489	
6	0	0	0	0	479	474	
7	0	0	0	0	500	461	
8	0	0	0	0	533	451	
9	0	0	0	0	564	448	
10	0	0	0	0	592	451	
11	0	0	0	0	640	462	
12	0	0	0	0	664	483	
13	0	0	0	0	649	509	
14	0	0	0	0	604	535	
15	0	0	0	0	562	556	
0	0	0	0	0	504	571	
1	0	0	0	0	433	575	
2	0	0	0	0	389	568	
3	0	0	0	0	381	556	
4	0	0	0	0	387	542	
5	0	0	0	0	409	526	
6	0	0	0	0	448	511	
7	0	0	0	0	481	499	
8	0	0	0	0	504	490	
9	0	0	0	0	528	483	
10	0	0	0	0	539	478	
11	0	0	0	0	561	478	
12	0	0	0	0	598	484	
13	0	0	0	0	615	497	
14	0	0	0	0	591	512	
15	0	0	0	0	560	527	
0	0	0	0	0	536	538	
1	0	0	0	0	485	542	
2	0	0	0	0	438	538	
3	0	0	0	0	422	530	
4	0	0	0	0	438	520	
5	0	0	0	0	462	510	
6	0	0	0	0	482	501	
7	0	0	0	0	497	495	
8	0	0	0	0	508	488	
9	0	0	0	0	519	485	
10	0	0	0	0	525	483	
11	0	0	0	0	532	483	
12	0	0	0	0	558	487	
13	0	0	0	0	591	496	
14	0	0	0	0	601	513	
15	0	0	0	0	572	527	
0	0	0	0	0	543	541	
1	0	0	0	0	513	551	
2	0	0	0	0	459	553	
3	0	0	0	0	420	549	
4	0	0	0	0	416	542	
5	0	0	0	0	440	535	
6	0	0	0	0	463	527	
7	0	0	0	0	483	516	
8	0	0	0	0	495	510	
9	0	0	0	0	508	505	
10	0	0	0	0	521	501	
11	0	0	0	0	527	498	
12	0	0	0	0	540	499	
13	0	0	0	0	573	504	
14	0	0	0	0	597	517	
15	0	0	0	0	592	531	
0	0	0	0	0	561	544	
1	0	0	0	0	534	556	
2	0	0	0	0	496	564	
3	0	0	0	0	443	565	
4	0	0	0	0	420	560	
5	0	0	0	0	426	553	
6	0	0	0	0	447	545	
7	0	0	0	0	471	537	
8	0	0	0	0	482	531	
9	0	0	0	0	500	525	
10	0	0	0	0	511	521	
11	0	0	0	0	522	517	
12	0	0	0	0	530	515	
13	0	0	0	0	548	515	
14	0	0	0	0	583	521	
15	0	0	0	0	595	535	
0	0	0	0	0	583	547	
1	0	0	0	0	554	559	
2	0	0	0	0	528	571	
3	0	0	0	0	480	577	
4	0	0	0	0	435	576	
5	0	0	0	0	420	569	
6	0	0	0	0	434	561	
7	0	0	0	0	459	552	
8	0	0	0	0	476	543	
9	0	0	0	0	491	538	
10	0	0	0	0	503	533	
11	0	0	0	0	516	527	
12	0	0	0	0	528	525	
13	0	0	0	0	533	524	
14	0	0	0	0	558	525	
15	0	0	0	0	592	531	
0	0	0	0	0	597	543	
1	0	0	0	0	572	555	
2	0	0	0	0	545	564	
3	0	0	0	0	516	573	
4	0	0	0	0	462	575	
5	0	0	0	0	428	572	
6	0	0	0	0	425	566	
7	0	0	0	0	445	558	
8	0	0	0	0	464	548	
9	0	0	0	0	480	541	
10	0	0	0	0	496	534	
11	0	0	0	0	508	528	
12	0	0	0	0	520	524	
13	0	0	0	0	528	521	
14	0	0	0	0	540	518	
15	0	0	0	0	573	520	
0	0	0	0	0	599	528	
1	0	0	0	0	593	539	
2	0	0	0	0	566	550	
3	0	0	0	0	537	559	
4	0	0	0	0	498	565	
5	0	0	0	0	448	566	
6	0	0	0	0	424	561	
7	0	0	0	0	431	553	
8	0	0	0	0	451	545	
9	0	0	0	0	469	536	
10	0	0	0	0	486	528	
11	0	0	0	0	500	521	
12	0	0	0	0	514	515	
13	0	0	0	0	525	510	
14	0	0	0	0	532	506	
15	0	0	0	0	549	505	
0	0	0	0	0	583	509	
1	0	0	0	0	600	518	
2	0	0	0	0	583	529	
3	0	0	0	0	554	539	
4	0	0	0	0	531	546	
5	0	0	0	0	483	551	
6	0	0	0	0	439	550	
7	0	0	0	0	426	543	
8	0	0	0	0	439	534	
9	0	0	0	0	461	523	
10	0	0	0	0	477	515	
11	0	0	0	0	493	508	
12	0	0	0	0	507	501	
13	0	0	0	0	519	494	
14	0	0	0	0	529	489	
15	0	0	0	0	533	486	
0	0	0	0	0	558	487	
1	0	0	0	0	591	491	
2	0	0	0	0	592	499	
3	0	0	0	0	572	508	
4	0	0	0	0	543	518	
5	0	0	0	0	515	527	
6	0	0	0	0	463	531	
7	0	0	0	0	430	529	
8	0	0	0	0	424	523	
9	0	0	0	0	446	515	
10	0	0	0	0	464	504	
11	0	0	0	0	483	496	
12	0	0	0	0	499	488	
13	0	0	0	0	508	481	
14	0	0	0	0	518	476	
15	0	0	0	0	529	471	
0	0	0	0	0	540	468	
1	0	0	0	0	572	470	
2	0	0	0	0	596	476	
3	0	0	0	0	588	488	
4	0	0	0	0	563	498	
5	0	0	0	0	537	508	
6	0	0	0	0	499	515	
7	0	0	0	0	452	517	
8	0	0	0	0	424	511	
9	0	0	0	0	427	503	
10	0	0	0	0	455	493	
11	0	0	0	0	466	485	
12	0	0	0	0	486	479	
13	0	0	0	0	499	473	
14	0	0	0	0	511	469	
15	0	0	0	0	521	465	
0	0	0	0	0	529	462	
1	0	0	0	0	545	463	
2	0	0	0	0	580	468	
3	0	0	0	0	595	478	
4	0	0	0	0	579	490	
5	0	0	0	0	555	499	
6	0	0	0	0	526	507	
7	0	0	0	0	481	511	
8	0	0	0	0	436	510	
9	0	0	0	0	421	504	
10	0	0	0	0	436	496	
11	0	0	0	0	461	486	
12	0	0	0	0	473	479	
13	0	0	0	0	490	472	
14	0	0	0	0	504	467	
15	0	0	0	0	513	463	
0	0	0	0	0	527	459	
1	0	0	0	0	536	457	
2	0	0	0	0	559	458	
3	0	0	0	0	587	464	
4	0	0	0	0	590	478	
5	0	0	0	0	569	489	
6	0	0	0	0	541	499	
7	0	0	0	0	512	508	
8	0	0	0	0	463	511	
9	0	0	0	0	427	508	
10	0	0	0	0	424	501	
11	0	0	0	0	447	492	
12	0	0	0	0	464	481	
13	0	0	0	0	481	474	
14	0	0	0	0	496	469	
15	0	0	0	0	510	464	
0	0	0	0	0	519	460	
1	0	0	0	0	527	459	
2	0	0	0	0	541	459	
3	0	0	0	0	568	463	
4	0	0	0	0	591	472	
5	0	0	0	0	588	486	
6	0	0	0	0	561	497	
7	0	0	0	0	532	508	
8	0	0	0	0	495	515	
9	0	0	0	0	448	516	
10	0	0	0	0	427	512	
11	0	0	0	0	430	504	
12	0	0	0	0	452	495	
13	0	0	0	0	470	486	
14	0	0	0	0	491	480	
15	0	0	0	0	504	474	
0	0	0	0	0	517	470	
1	0	0	0	0	525	467	
2	0	0	0	0	537	465	
3	0	0	0	0	550	466	
4	0	0	0	0	577	472	
5	0	0	0	0	583	481	
6	0	0	0	0	556	492	
7	0	0	0	0	525	499	
8	0	0	0	0	503	505	
9	0	0	0	0	467	506	
10	0	0	0	0	446	501	
11	0	0	0	0	457	493	
12	0	0	0	0	474	488	
13	0	0	0	0	498	485	
14	0	0	0	0	512	484	
15	0	0	0	0	519	484	
0	0	0	0	0	519	485	
1	0	0	0	0	521	486	
2	0	0	0	0	523	486	
3	0	0	0	0	525	487	
4	0	0	0	0	531	488	
5	0	0	0	0	534	492	
6	0	0	0	0	524	495	
7	0	0	0	0	506	497	
8	0	0	0	0	498	498	
9	0	0	0	0	491	499	
10	0	0	0	0	476	497	
11	0	0	0	0	479	494	
12	0	0	0	0	491	491	
13	0	0	0	0	508	488	
14	0	0	0	0	515	487	
15	0	0	0	0	520	486	
0	0	0	0	0	518	487	
1	0	0	0	0	519	487	
2	0	0	0	0	516	488	
3	0	0	0	0	516	489	
4	0	0	0	0	521	489	
5	0	0	0	0	530	491	
6	0	0	0	0	528	495	
7	0	0	0	0	515	499	
8	0	0	0	0	503	500	
9	0	0	0	0	496	500	
10	0	0	0	0	485	499	
11	0	0	0	0	478	495	
12	0	0	0	0	488	491	
13	0	0	0	0	500	488	
14	0	0	0	0	512	488	
15	0	0	0	0	515	487	
0	0	0	0	0	518	487	
1	0	0	0	0	520	487	
2	0	0	0	0	518	487	
3	0	0	0	0	515	487	
4	0	0	0	0	516	488	
5	0	0	0	0	521	489	
6	0	0	0	0	528	492	
7	0	0	0	0	526	497	
8	0	0	0	0	507	498	
9	0	0	0	0	498	499	
10	0	0	0	0	496	498	
11	0	0	0	0	483	496	
12	0	0	0	0	479	493	
13	0	0	0	0	490	489	
14	0	0	0	0	504	486	
15	0	0	0	0	514	486	
0	0	0	0	0	518	486	
1	0	0	0	0	519	486	
2	0	0	0	0	517	487	
3	0	0	0	0	515	488	
4	0	0	0	0	515	488	
5	0	0	0	0	518	490	
6	0	0	0	0	524	492	
7	0	0	0	0	532	496	
8	0	0	0	0	522	500	
9	0	0	0	0	508	501	
10	0	0	0	0	498	501	
11	0	0	0	0	490	500	
12	0	0	0	0	480	497	
13	0	0	0	0	482	493	
14	0	0	0	0	494	489	
15	0	0	0	0	510	488	
0	0	0	0	0	516	488	
1	0	0	0	0	521	487	
2	0	0	0	0	519	487	
3	0	0	0	0	520	487	
4	0	0	0	0	520	487	
5	0	0	0	0	519	487	
6	0	0	0	0	520	489	
7	0	0	0	0	530	491	
8	0	0	0	0	530	494	
9	0	0	0	0	514	497	
10	0	0	0	0	499	497	
11	0	0	0	0	495	498	
12	0	0	0	0	485	497	
13	0	0	0	0	479	495	
14	0	0	0	0	484	491	
15	0	0	0	0	502	487	
0	0	0	0	0	511	486	
1	0	0	0	0	515	485	
2	0	0	0	0	520	485	
3	0	0	0	0	518	485	
4	0	0	0	0	518	484	
5	0	0	0	0	519	484	
6	0	0	0	0	515	486	
7	0	0	0	0	521	488	
8	0	0	0	0	529	493	
9	0	0	0	0	527	496	
10	0	0	0	0	510	497	
11	0	0	0	0	500	497	
12	0	0	0	0	495	497	
13	0	0	0	0	481	496	
14	0	0	0	0	477	492	
15	0	0	0	0	490	487	
0	0	0	0	0	506	484	
1	0	0	0	0	515	483	
2	0	0	0	0	518	483	
3	0	0	0	0	520	483	
4	0	0	0	0	523	484	
5	0	0	0	0	517	485	
6	0	0	0	0	519	486	
7	0	0	0	0	517	487	
8	0	0	0	0	526	489	
9	0	0	0	0	532	495	
10	0	0	0	0	521	498	
11	0	0	0	0	506	499	
12	0	0	0	0	497	499	
13	0	0	0	0	489	499	
14	0	0	0	0	476	496	
15	0	0	0	0	476	491	
0	0	0	0	0	494	487	
1	0	0	0	0	511	484	
2	0	0	0	0	516	483	
3	0	0	0	0	520	484	
4	0	0	0	0	520	485	
5	0	0	0	0	516	486	
6	0	0	0	0	517	487	
7	0	0	0	0	517	488	
8	0	0	0	0	522	489	
9	0	0	0	0	533	492	
10	0	0	0	0	535	496	
11	0	0	0	0	517	500	
12	0	0	0	0	500	503	
13	0	0	0	0	494	504	
14	0	0	0	0	481	504	
15	0	0	0	0	473	501	
0	0	0	0	0	480	495	
1	0	0	0	0	498	491	
2	0	0	0	0	513	487	
3	0	0	0	0	518	486	
4	0	0	0	0	521	485	
5	0	0	0	0	521	485	
6	0	0	0	0	519	486	
7	0	0	0	0	521	487	
8	0	0	0	0	518	489	
9	0	0	0	0	527	491	
10	0	0	0	0	536	494	
11	0	0	0	0	531	497	
12	0	0	0	0	509	500	
13	0	0	0	0	496	502	
14	0	0	0	0	492	502	
15	0	0	0	0	479	499	
0	0	0	0	0	472	496	
1	0	0	0	0	485	493	
2	0	0	0	0	502	490	
3	0	0	0	0	515	489	
4	0	0	0	0	519	489	
5	0	0	0	0	522	489	
6	0	0	0	0	521	489	
7	0	0	0	0	520	489	
8	0	0	0	0	519	489	
9	0	0	0	0	520	491	
10	0	0	0	0	530	493	
11	0	0	0	0	536	496	
12	0	0	0	0	524	500	
13	0	0	0	0	504	503	
14	0	0	0	0	496	502	
15	0	0	0	0	487	502	
0	0	0	0	0	476	500	
1	0	0	0	0	476	497	
2	0	0	0	0	491	494	
3	0	0	0	0	510	493	
4	0	0	0	0	516	491	
5	0	0	0	0	518	490	
6	0	0	0	0	518	490	
7	0	0	0	0	516	490	
8	0	0	0	0	519	491	
9	0	0	0	0	518	491	
10	0	0	0	0	520	491	
11	0	0	0	0	531	493	
12	0	0	0	0	530	497	
13	0	0	0	0	517	501	
14	0	0	0	0	499	502	
15	0	0	0	0	496	504	
0	0	0	0	0	484	504	
1	0	0	0	0	473	501	
2	0	0	0	0	481	498	
3	0	0	0	0	499	496	
4	0	0	0	0	511	494	
5	0	0	0	0	516	493	
6	0	0	0	0	520	493	
7	0	0	0	0	520	494	
8	0	0	0	0	520	493	
9	0	0	0	0	521	494	
10	0	0	0	0	518	495	
11	0	0	0	0	524	495	
12	0	0	0	0	532	498	
13	0	0	0	0	529	502	
14	0	0	0	0	508	506	
15	0	0	0	0	496	508	
0	0	0	0	0	492	508	
1	0	0	0	0	480	507	
2	0	0	0	0	476	503	
3	0	0	0	0	490	499	
4	0	0	0	0	505	495	
5	0	0	0	0	515	493	
6	0	0	0	0	519	493	
7	0	0	0	0	520	494	
8	0	0	0	0	520	494	
9	0	0	0	0	519	494	
10	0	0	0	0	519	495	
11	0	0	0	0	517	496	
12	0	0	0	0	527	499	
13	0	0	0	0	534	504	
14	0	0	0	0	523	508	
15	0	0	0	0	503	512	
0	0	0	0	0	499	511	
1	0	0	0	0	493	510	
2	0	0	0	0	478	506	
3	0	0	0	0	480	501	
4	0	0	0	0	493	497	
5	0	0	0	0	511	495	
6	0	0	0	0	519	493	
7	0	0	0	0	521	493	
8	0	0	0	0	521	493	
9	0	0	0	0	517	493	
10	0	0	0	0	517	494	
11	0	0	0	0	516	495	
12	0	0	0	0	518	497	
13	0	0	0	0	528	501	
14	0	0	0	0	528	505	
15	0	0	0	0	515	510	
0	0	0	0	0	502	512	
1	0	0	0	0	497	511	
2	0	0	0	0	483	508	
3	0	0	0	0	472	505	
4	0	0	0	0	480	500	
5	0	0	0	0	500	496	
6	0	0	0	0	511	494	
7	0	0	0	0	516	494	
8	0	0	0	0	515	495	
9	0	0	0	0	518	494	
10	0	0	0	0	516	495	
11	0	0	0	0	516	497	
12	0	0	0	0	514	498	
13	0	0	0	0	520	501	
14	0	0	0	0	531	506	
15	0	0	0	0	525	513	
0	0	0	0	0	513	516	
1	0	0	0	0	503	516	
2	0	0	0	0	497	514	
3	0	0	0	0	477	510	
4	0	0	0	0	470	505	
5	0	0	0	0	485	500	
6	0	0	0	0	498	498	
7	0	0	0	0	511	496	
8	0	0	0	0	516	495	
9	0	0	0	0	521	495	
10	0	0	0	0	522	495	
11	0	0	0	0	522	496	
12	0	0	0	0	522	497	
13	0	0	0	0	523	499	
14	0	0	0	0	531	503	
15	0	0	0	0	538	509	
0	0	0	0	0	528	516	
1	0	0	0	0	510	519	
2	0	0	0	0	503	520	
3	0	0	0	0	492	518	
4	0	0	0	0	474	513	
5	0	0	0	0	476	507	
6	0	0	0	0	490	502	
7	0	0	0	0	508	500	
8	0	0	0	0	517	499	
9	0	0	0	0	520	499	
10	0	0	0	0	521	499	
11	0	0	0	0	521	499	
12	0	0	0	0	522	500	
13	0	0	0	0	521	502	
14	0	0	0	0	521	504	
15	0	0	0	0	535	508	
0	0	0	0	0	535	516	
1	0	0	0	0	528	523	
2	0	0	0	0	507	526	
3	0	0	0	0	501	527	
4	0	0	0	0	480	525	
5	0	0	0	0	463	520	
6	0	0	0	0	457	513	
7	0	0	0	0	472	507	
8	0	0	0	0	481	498	
9	0	0	0	0	486	491	
10	0	0	0	0	494	482	
11	0	0	0	0	503	473	
12	0	0	0	0	510	465	
13	0	0	0	0	534	459	
14	0	0	0	0	557	460	
15	0	0	0	0	589	464	
0	0	0	0	0	638	477	
1	0	0	0	0	652	496	
2	0	0	0	0	620	520	
3	0	0	0	0	574	543	
4	0	0	0	0	538	563	
5	0	0	0	0	469	577	
6	0	0	0	0	396	581	
7	0	0	0	0	367	575	
8	0	0	0	0	371	564	
9	0	0	0	0	383	549	
10	0	0	0	0	409	532	
11	0	0	0	0	443	514	
12	0	0	0	0	472	497	
13	0	0	0	0	505	483	
14	0	0	0	0	547	472	
15	0	0	0	0	580	466	
0	0	0	0	0	621	467	
1	0	0	0	0	657	477	
2	0	0	0	0	659	494	
3	0	0	0	0	612	515	
4	0	0	0	0	573	533	
5	0	0	0	0	526	550	
6	0	0	0	0	447	560	
7	0	0	0	0	390	561	
8	0	0	0	0	375	555	
9	0	0	0	0	383	543	
10	0	0	0	0	401	528	
11	0	0	0	0	428	512	
12	0	0	0	0	455	496	
13	0	0	0	0	483	480	
14	0	0	0	0	520	466	
15	0	0	0	0	559	456	
0	0	0	0	0	592	453	
1	0	0	0	0	637	457	
2	0	0	0	0	666	469	
3	0	0	0	0	648	487	
4	0	0	0	0	604	506	
5	0	0	0	0	562	524	
6	0	0	0	0	501	540	
7	0	0	0	0	426	548	
8	0	0	0	0	380	547	
9	0	0	0	0	375	541	
10	0	0	0	0	389	530	
11	0	0	0	0	408	514	
12	0	0	0	0	439	498	
13	0	0	0	0	467	481	
14	0	0	0	0	495	467	
15	0	0	0	0	533	455	
0	0	0	0	0	567	447	
1	0	0	0	0	601	446	
2	0	0	0	0	650	452	
3	0	0	0	0	668	466	
4	0	0	0	0	634	486	
5	0	0	0	0	585	505	
6	0	0	0	0	546	524	
7	0	0	0	0	476	539	
8	0	0	0	0	406	543	
9	0	0	0	0	375	540	
10	0	0	0	0	379	529	
11	0	0	0	0	394	515	
12	0	0	0	0	416	499	
13	0	0	0	0	447	482	
14	0	0	0	0	474	466	
15	0	0	0	0	509	451	
0	0	0	0	0	547	440	
1	0	0	0	0	580	436	
2	0	0	0	0	617	440	
3	0	0	0	0	664	450	
4	0	0	0	0	659	470	
5	0	0	0	0	617	490	
6	0	0	0	0	573	510	
7	0	0	0	0	529	528	
8	0	0	0	0	448	541	
9	0	0	0	0	387	544	
10	0	0	0	0	370	539	
11	0	0	0	0	375	528	
12	0	0	0	0	387	515	
13	0	0	0	0	415	498	
14	0	0	0	0	445	480	
15	0	0	0	0	471	465	
0	0	0	0	0	506	451	
1	0	0	0	0	542	445	
2	0	0	0	0	575	445	
3	0	0	0	0	621	455	
4	0	0	0	0	659	475	
5	0	0	0	0	647	499	
6	0	0	0	0	602	523	
7	0	0	0	0	564	545	
8	0	0	0	0	510	566	
9	0	0	0	0	438	577	
10	0	0	0	0	394	576	
11	0	0	0	0	388	568	
12	0	0	0	0	398	558	
13	0	0	0	0	419	545	
14	0	0	0	0	454	530	
15	0	0	0	0	486	515	
0	0	0	0	0	519	500	
1	0	0	0	0	555	492	
2	0	0	0	0	585	489	
3	0	0	0	0	619	491	
4	0	0	0	0	664	503	
5	0	0	0	0	684	520	
6	0	0	0	0	654	537	
7	0	0	0	0	607	554	
8	0	0	0	0	567	568	
9	0	0	0	0	492	574	
10	0	0	0	0	417	568	
11	0	0	0	0	379	553	
12	0	0	0	0	377	532	
13	0	0	0	0	388	508	
14	0	0	0	0	409	483	
15	0	0	0	0	445	460	
0	0	0	0	0	472	434	
1	0	0	0	0	505	418	
2	0	0	0	0	542	408	
3	0	0	0	0	568	402	
4	0	0	0	0	605	403	
5	0	0	0	0	644	415	
6	0	0	0	0	645	432	
7	0	0	0	0	598	449	
8	0	0	0	0	553	464	
9	0	0	0	0	510	476	
10	0	0	0	0	433	479	
11	0	0	0	0	378	473	
12	0	0	0	0	365	460	
13	0	0	0	0	376	442	
14	0	0	0	0	398	424	
15	0	0	0	0	430	406	
0	0	0	0	0	460	389	
1	0	0	0	0	487	372	
2	0	0	0	0	522	362	
3	0	0	0	0	555	357	
4	0	0	0	0	591	358	
5	0	0	0	0	637	368	
6	0	0	0	0	672	390	
7	0	0	0	0	657	413	
8	0	0	0	0	611	437	
9	0	0	0	0	566	459	
10	0	0	0	0	508	478	
11	0	0	0	0	431	487	
12	0	0	0	0	385	487	
13	0	0	0	0	378	480	
14	0	0	0	0	386	469	
15	0	0	0	0	404	455	
0	0	0	0	0	432	440	
1	0	0	0	0	465	424	
2	0	0	0	0	485	412	
3	0	0	0	0	523	404	
4	0	0	0	0	556	401	
5	0	0	0	0	589	404	
6	0	0	0	0	636	418	
7	0	0	0	0	657	442	
8	0	0	0	0	626	468	
9	0	0	0	0	581	493	
10	0	0	0	0	547	516	
11	0	0	0	0	473	532	
12	0	0	0	0	403	539	
13	0	0	0	0	376	534	
14	0	0	0	0	377	524	
15	0	0	0	0	391	511	
0	0	0	0	0	412	495	
1	0	0	0	0	448	478	
2	0	0	0	0	477	460	
3	0	0	0	0	504	447	
4	0	0	0	0	546	439	
5	0	0	0	0	580	436	
6	0	0	0	0	620	441	
7	0	0	0	0	666	459	
8	0	0	0	0	669	480	
9	0	0	0	0	625	504	
10	0	0	0	0	580	527	
11	0	0	0	0	532	547	
12	0	0	0	0	451	558	
13	0	0	0	0	395	558	
14	0	0	0	0	378	551	
15	0	0	0	0	384	539	
0	0	0	0	0	401	523	
1	0	0	0	0	432	504	
2	0	0	0	0	464	483	
3	0	0	0	0	484	467	
4	0	0	0	0	518	455	
5	0	0	0	0	557	447	
6	0	0	0	0	591	446	
7	0	0	0	0	634	453	
8	0	0	0	0	661	473	
9	0	0	0	0	652	497	
10	0	0	0	0	605	520	
11	0	0	0	0	561	542	
12	0	0	0	0	503	560	
13	0	0	0	0	429	566	
14	0	0	0	0	382	561	
15	0	0	0	0	379	551	
0	0	0	0	0	388	537	
1	0	0	0	0	406	519	
2	0	0	0	0	442	500	
3	0	0	0	0	470	481	
4	0	0	0	0	494	465	
5	0	0	0	0	531	453	
6	0	0	0	0	565	448	
7	0	0	0	0	600	449	
8	0	0	0	0	648	462	
9	0	0	0	0	667	484	
10	0	0	0	0	636	509	
11	0	0	0	0	587	533	
12	0	0	0	0	547	555	
13	0	0	0	0	479	570	
14	0	0	0	0	408	574	
15	0	0	0	0	374	566	
0	0	0	0	0	378	553	
1	0	0	0	0	392	536	
2	0	0	0	0	419	516	
3	0	0	0	0	462	494	
4	0	0	0	0	490	480	
5	0	0	0	0	515	468	
6	0	0	0	0	535	459	
7	0	0	0	0	550	454	
8	0	0	0	0	578	453	
9	0	0	0	0	611	462	
10	0	0	0	0	617	477	
11	0	0	0	0	583	493	
12	0	0	0	0	556	505	
13	0	0	0	0	520	515	
14	0	0	0	0	462	517	
15	0	0	0	0	428	511	
0	0	0	0	0	433	499	
1	0	0	0	0	456	489	
2	0	0	0	0	481	482	
3	0	0	0	0	506	478	
4	0	0	0	0	522	475	
5	0	0	0	0	530	476	
6	0	0	0	0	536	477	
7	0	0	0	0	539	481	
8	0	0	0	0	543	486	
9	0	0	0	0	558	496	
10	0	0	0	0	557	507	
11	0	0	0	0	528	516	
12	0	0	0	0	499	521	
13	0	0	0	0	489	526	
14	0	0	0	0	469	525	
15	0	0	0	0	457	519	
0	0	0	0	0	465	514	
1	0	0	0	0	487	511	
2	0	0	0	0	506	509	
3	0	0	0	0	513	508	
4	0	0	0	0	517	508	
5	0	0	0	0	515	508	
6	0	0	0	0	516	508	
7	0	0	0	0	517	510	
8	0	0	0	0	516	512	
9	0	0	0	0	520	515	
10	0	0	0	0	532	521	
11	0	0	0	0	526	527	
12	0	0	0	0	507	531	
13	0	0	0	0	497	531	
14	0	0	0	0	494	531	
15	0	0	0	0	480	528	
0	0	0	0	0	478	523	
1	0	0	0	0	488	518	
2	0	0	0	0	507	515	
3	0	0	0	0	518	515	
4	0	0	0	0	519	515	
5	0	0	0	0	520	516	
6	0	0	0	0	521	517	
7	0	0	0	0	518	518	
8	0	0	0	0	517	519	
9	0	0	0	0	517	520	
10	0	0	0	0	526	523	
11	0	0	0	0	531	527	
12	0	0	0	0	520	531	
13	0	0	0	0	504	534	
14	0	0	0	0	495	534	
15	0	0	0	0	488	534	
0	0	0	0	0	475	530	
1	0	0	0	0	479	526	
2	0	0	0	0	495	522	
3	0	0	0	0	511	521	
4	0	0	0	0	518	521	
5	0	0	0	0	523	520	
6	0	0	0	0	523	521	
7	0	0	0	0	520	522	
8	0	0	0	0	518	524	
9	0	0	0	0	515	526	
10	0	0	0	0	519	527	
11	0	0	0	0	534	532	
12	0	0	0	0	531	537	
13	0	0	0	0	515	542	
14	0	0	0	0	499	544	
15	0	0	0	0	495	544	
0	0	0	0	0	482	543	
1	0	0	0	0	473	540	
2	0	0	0	0	481	536	
3	0	0	0	0	499	533	
4	0	0	0	0	513	532	
5	0	0	0	0	519	532	
6	0	0	0	0	520	533	
7	0	0	0	0	519	534	
8	0	0	0	0	519	535	
9	0	0	0	0	519	537	
10	0	0	0	0	516	540	
11	0	0	0	0	523	543	
12	0	0	0	0	534	548	
13	0	0	0	0	528	554	
14	0	0	0	0	506	558	
15	0	0	0	0	499	560	
0	0	0	0	0	494	561	
1	0	0	0	0	476	559	
2	0	0	0	0	473	556	
3	0	0	0	0	487	551	
4	0	0	0	0	504	548	
5	0	0	0	0	515	547	
6	0	0	0	0	520	547	
7	0	0	0	0	519	548	
8	0	0	0	0	521	550	
9	0	0	0	0	519	551	
10	0	0	0	0	520	553	
11	0	0	0	0	520	556	
12	0	0	0	0	531	559	
13	0	0	0	0	535	564	
14	0	0	0	0	524	569	
15	0	0	0	0	504	572	
0	0	0	0	0	495	573	
1	0	0	0	0	488	572	
2	0	0	0	0	474	568	
3	0	0	0	0	476	562	
4	0	0	0	0	491	557	
5	0	0	0	0	509	553	
6	0	0	0	0	515	552	
7	0	0	0	0	521	551	
8	0	0	0	0	520	551	
9	0	0	0	0	522	551	
10	0	0	0	0	522	552	
11	0	0	0	0	520	553	
12	0	0	0	0	523	555	
13	0	0	0	0	539	559	
14	0	0	0	0	538	564	
15	0	0	0	0	520	568	
0	0	0	0	0	498	571	
1	0	0	0	0	491	572	
2	0	0	0	0	475	570	
3	0	0	0	0	462	564	
4	0	0	0	0	471	557	
5	0	0	0	0	492	550	
6	0	0	0	0	511	545	
7	0	0	0	0	521	543	
8	0	0	0	0	525	541	
9	0	0	0	0	524	541	
10	0	0	0	0	523	541	
11	0	0	0	0	523	543	
12	0	0	0	0	521	543	
13	0	0	0	0	527	545	
14	0	0	0	0	546	550	
15	0	0	0	0	538	556	
0	0	0	0	0	515	559	
1	0	0	0	0	499	559	
2	0	0	0	0	491	558	
3	0	0	0	0	468	554	
4	0	0	0	0	458	547	
5	0	0	0	0	473	539	
6	0	0	0	0	496	533	
7	0	0	0	0	514	529	
8	0	0	0	0	522	527	
9	0	0	0	0	526	525	
10	0	0	0	0	527	524	
11	0	0	0	0	526	524	
12	0	0	0	0	525	525	
13	0	0	0	0	525	527	
14	0	0	0	0	535	531	
15	0	0	0	0	543	536	
0	0	0	0	0	533	542	
1	0	0	0	0	505	545	
2	0	0	0	0	494	545	
3	0	0	0	0	483	544	
4	0	0	0	0	460	539	
5	0	0	0	0	462	532	
6	0	0	0	0	481	525	
7	0	0	0	0	507	519	
8	0	0	0	0	519	516	
9	0	0	0	0	526	514	
10	0	0	0	0	525	512	
11	0	0	0	0	524	512	
12	0	0	0	0	526	511	
13	0	0	0	0	524	512	
14	0	0	0	0	525	513	
15	0	0	0	0	540	516	
0	0	0	0	0	541	521	
1	0	0	0	0	521	525	
2	0	0	0	0	497	527	
3	0	0	0	0	492	528	
4	0	0	0	0	472	526	
5	0	0	0	0	460	521	
6	0	0	0	0	469	515	
7	0	0	0	0	495	508	
8	0	0	0	0	516	504	
9	0	0	0	0	523	502	
10	0	0	0	0	523	500	
11	0	0	0	0	523	500	
12	0	0	0	0	524	499	
13	0	0	0	0	524	498	
14	0	0	0	0	523	498	
15	0	0	0	0	527	498	
0	0	0	0	0	537	500	
1	0	0	0	0	531	504	
2	0	0	0	0	507	508	
3	0	0	0	0	496	511	
4	0	0	0	0	493	511	
5	0	0	0	0	475	510	
6	0	0	0	0	472	506	
7	0	0	0	0	486	501	
8	0	0	0	0	504	497	
9	0	0	0	0	518	494	
10	0	0	0	0	523	492	
11	0	0	0	0	522	491	
12	0	0	0	0	520	491	
13	0	0	0	0	521	492	
14	0	0	0	0	517	492	
15	0	0	0	0	518	493	
0	0	0	0	0	526	494	
1	0	0	0	0	534	498	
2	0	0	0	0	520	503	
3	0	0	0	0	499	505	
4	0	0	0	0	494	506	
5	0	0	0	0	490	506	
6	0	0	0	0	470	504	
7	0	0	0	0	472	500	
8	0	0	0	0	493	496	
9	0	0	0	0	510	493	
10	0	0	0	0	519	492	
11	0	0	0	0	523	491	
12	0	0	0	0	522	492	
13	0	0	0	0	519	492	
14	0	0	0	0	519	493	
15	0	0	0	0	519	496	
0	0	0	0	0	520	498	
1	0	0	0	0	534	501	
2	0	0	0	0	531	506	
3	0	0	0	0	516	509	
4	0	0	0	0	502	512	
5	0	0	0	0	495	513	
6	0	0	0	0	479	513	
7	0	0	0	0	469	510	
8	0	0	0	0	480	504	
9	0	0	0	0	500	500	
10	0	0	0	0	515	497	
11	0	0	0	0	519	497	
12	0	0	0	0	519	496	
13	0	0	0	0	519	496	
14	0	0	0	0	518	496	
15	0	0	0	0	518	496	
0	0	0	0	0	517	498	
1	0	0	0	0	524	501	
2	0	0	0	0	537	506	
3	0	0	0	0	530	512	
4	0	0	0	0	509	515	
5	0	0	0	0	494	516	
6	0	0	0	0	492	516	
7	0	0	0	0	475	513	
8	0	0	0	0	471	507	
9	0	0	0	0	482	502	
10	0	0	0	0	505	499	
11	0	0	0	0	516	497	
12	0	0	0	0	522	496	
13	0	0	0	0	522	496	
14	0	0	0	0	525	496	
15	0	0	0	0	524	496	
0	0	0	0	0	519	498	
1	0	0	0	0	521	499	
2	0	0	0	0	531	504	
3	0	0	0	0	536	510	
4	0	0	0	0	522	515	
5	0	0	0	0	502	518	
6	0	0	0	0	491	519	
7	0	0	0	0	485	518	
8	0	0	0	0	471	513	
9	0	0	0	0	474	506	
10	0	0	0	0	490	500	
11	0	0	0	0	512	497	
12	0	0	0	0	519	497	
13	0	0	0	0	522	497	
14	0	0	0	0	523	498	
15	0	0	0	0	520	499	
0	0	0	0	0	520	500	
1	0	0	0	0	518	502	
2	0	0	0	0	521	504	
3	0	0	0	0	534	509	
4	0	0	0	0	534	515	
5	0	0	0	0	513	521	
6	0	0	0	0	499	523	
7	0	0	0	0	494	522	
8	0	0	0	0	481	517	
9	0	0	0	0	469	509	
10	0	0	0	0	478	502	
11	0	0	0	0	497	497	
12	0	0	0	0	515	493	
13	0	0	0	0	520	492	
14	0	0	0	0	523	492	
15	0	0	0	0	521	492	
0	0	0	0	0	520	493	
1	0	0	0	0	519	495	
2	0	0	0	0	518	497	
3	0	0	0	0	525	499	
4	0	0	0	0	538	506	
5	0	0	0	0	531	514	
6	0	0	0	0	509	518	
7	0	0	0	0	496	519	
8	0	0	0	0	493	519	
9	0	0	0	0	472	514	
10	0	0	0	0	470	508	
11	0	0	0	0	484	502	
12	0	0	0	0	505	497	
13	0	0	0	0	517	495	
14	0	0	0	0	523	494	
15	0	0	0	0	521	495	
0	0	0	0	0	519	494	
1	0	0	0	0	521	495	
2	0	0	0	0	521	496	
3	0	0	0	0	519	498	
4	0	0	0	0	530	502	
5	0	0	0	0	538	508	
6	0	0	0	0	522	514	
7	0	0	0	0	500	516	
8	0	0	0	0	494	516	
9	0	0	0	0	489	515	
10	0	0	0	0	472	508	
11	0	0	0	0	472	499	
12	0	0	0	0	492	493	
13	0	0	0	0	509	489	
14	0	0	0	0	518	488	
15	0	0	0	0	523	488	
0	0	0	0	0	522	489	
1	0	0	0	0	521	490	
2	0	0	0	0	523	491	
3	0	0	0	0	518	492	
4	0	0	0	0	521	494	
5	0	0	0	0	535	499	
6	0	0	0	0	535	506	
7	0	0	0	0	514	510	
8	0	0	0	0	499	511	
9	0	0	0	0	493	510	
10	0	0	0	0	479	507	
11	0	0	0	0	467	499	
12	0	0	0	0	476	492	
13	0	0	0	0	497	487	
14	0	0	0	0	514	483	
15	0	0	0	0	519	482	
0	0	0	0	0	523	483	
1	0	0	0	0	522	483	
2	0	0	0	0	519	486	
3	0	0	0	0	520	488	
4	0	0	0	0	519	490	
5	0	0	0	0	526	494	
6	0	0	0	0	537	501	
7	0	0	0	0	530	508	
8	0	0	0	0	507	512	
9	0	0	0	0	497	511	
10	0	0	0	0	492	510	
11	0	0	0	0	475	504	
12	0	0	0	0	466	497	
13	0	0	0	0	482	490	
14	0	0	0	0	504	486	
15	0	0	0	0	519	483	
0	0	0	0	0	522	483	
1	0	0	0	0	522	483	
2	0	0	0	0	523	483	
3	0	0	0	0	523	484	
4	0	0	0	0	521	486	
5	0	0	0	0	520	487	
6	0	0	0	0	530	490	
7	0	0	0	0	536	497	
8	0	0	0	0	524	503	
9	0	0	0	0	502	505	
10	0	0	0	0	492	507	
11	0	0	0	0	484	507	
12	0	0	0	0	469	503	
13	0	0	0	0	473	496	
14	0	0	0	0	490	491	
15	0	0	0	0	510	487	
0	0	0	0	0	520	486	
1	0	0	0	0	523	486	
2	0	0	0	0	523	485	
3	0	0	0	0	520	485	
4	0	0	0	0	520	487	
5	0	0	0	0	520	488	
6	0	0	0	0	521	490	
7	0	0	0	0	537	495	
8	0	0	0	0	532	500	
9	0	0	0	0	515	504	
10	0	0	0	0	498	505	
11	0	0	0	0	492	506	
12	0	0	0	0	478	505	
13	0	0	0	0	469	500	
14	0	0	0	0	475	494	
15	0	0	0	0	497	490	
0	0	0	0	0	513	488	
1	0	0	0	0	519	486	
2	0	0	0	0	525	486	
3	0	0	0	0	521	486	
4	0	0	0	0	521	487	
5	0	0	0	0	519	487	
6	0	0	0	0	518	488	
7	0	0	0	0	523	491	
8	0	0	0	0	536	494	
9	0	0	0	0	530	499	
10	0	0	0	0	508	503	
11	0	0	0	0	497	504	
12	0	0	0	0	492	504	
13	0	0	0	0	476	502	
14	0	0	0	0	471	497	
15	0	0	0	0	486	492	
0	0	0	0	0	505	489	
1	0	0	0	0	518	487	
2	0	0	0	0	522	485	
3	0	0	0	0	524	484	
4	0	0	0	0	522	484	
5	0	0	0	0	520	484	
6	0	0	0	0	520	486	
7	0	0	0	0	517	488	
8	0	0	0	0	526	491	
9	0	0	0	0	537	495	
10	0	0	0	0	524	499	
11	0	0	0	0	505	503	
12	0	0	0	0	497	503	
13	0	0	0	0	489	503	
14	0	0	0	0	471	501	
15	0	0	0	0	472	497	
0	0	0	0	0	490	493	
1	0	0	0	0	510	491	
2	0	0	0	0	517	491	
3	0	0	0	0	521	491	
4	0	0	0	0	521	492	
5	0	0	0	0	517	492	
6	0	0	0	0	520	493	
7	0	0	0	0	519	493	
8	0	0	0	0	523	495	
9	0	0	0	0	534	498	
10	0	0	0	0	535	503	
11	0	0	0	0	512	507	
12	0	0	0	0	500	510	
13	0	0	0	0	496	510	
14	0	0	0	0	480	509	
15	0	0	0	0	471	504	
0	0	0	0	0	479	497	
1	0	0	0	0	499	493	
2	0	0	0	0	515	490	
3	0	0	0	0	519	489	
4	0	0	0	0	522	489	
5	0	0	0	0	522	489	
6	0	0	0	0	521	489	
7	0	0	0	0	519	491	
8	0	0	0	0	519	493	
9	0	0	0	0	524	495	
10	0	0	0	0	536	500	
11	0	0	0	0	530	506	
12	0	0	0	0	509	510	
13	0	0	0	0	498	511	
14	0	0	0	0	493	510	
15	0	0	0	0	476	507	
0	0	0	0	0	472	502	
1	0	0	0	0	483	497	
2	0	0	0	0	504	494	
3	0	0	0	0	516	493	
4	0	0	0	0	519	493	
5	0	0	0	0	521	493	
6	0	0	0	0	519	493	
7	0	0	0	0	520	494	
8	0	0	0	0	517	495	
9	0	0	0	0	519	496	
10	0	0	0	0	527	498	
11	0	0	0	0	532	503	
12	0	0	0	0	524	509	
13	0	0	0	0	503	510	
14	0	0	0	0	494	510	
15	0	0	0	0	487	508	
0	0	0	0	0	469	504	
1	0	0	0	0	471	498	
2	0	0	0	0	489	493	
3	0	0	0	0	508	490	
4	0	0	0	0	516	489	
5	0	0	0	0	521	488	
6	0	0	0	0	523	488	
7	0	0	0	0	523	488	
8	0	0	0	0	523	489	
9	0	0	0	0	521	490	
10	0	0	0	0	520	492	
11	0	0	0	0	529	498	
12	0	0	0	0	528	505	
13	0	0	0	0	513	511	
14	0	0	0	0	499	513	
15	0	0	0	0	494	513	
0	0	0	0	0	481	510	
1	0	0	0	0	468	504	
2	0	0	0	0	481	498	
3	0	0	0	0	500	495	
4	0	0	0	0	516	493	
5	0	0	0	0	521	492	
6	0	0	0	0	522	492	
7	0	0	0	0	524	492	
8	0	0	0	0	520	493	
9	0	0	0	0	521	495	
10	0	0	0	0	520	496	
11	0	0	0	0	523	499	
12	0	0	0	0	536	504	
13	0	0	0	0	529	512	
14	0	0	0	0	512	516	
15	0	0	0	0	499	516	
0	0	0	0	0	497	515	
1	0	0	0	0	480	511	
2	0	0	0	0	474	506	
3	0	0	0	0	488	501	
4	0	0	0	0	506	498	
5	0	0	0	0	516	497	
6	0	0	0	0	523	496	
7	0	0	0	0	521	496	
8	0	0	0	0	521	498	
9	0	0	0	0	521	499	
10	0	0	0	0	521	500	
11	0	0	0	0	517	503	
12	0	0	0	0	527	508	
13	0	0	0	0	531	515	
14	0	0	0	0	522	522	
15	0	0	0	0	506	526	
0	0	0	0	0	498	526	
1	0	0	0	0	495	524	
2	0	0	0	0	474	519	
3	0	0	0	0	476	512	
4	0	0	0	0	492	506	
5	0	0	0	0	509	503	
6	0	0	0	0	517	502	
7	0	0	0	0	524	502	
8	0	0	0	0	521	502	
9	0	0	0	0	520	503	
10	0	0	0	0	522	503	
11	0	0	0	0	520	504	
12	0	0	0	0	521	505	
13	0	0	0	0	531	509	
14	0	0	0	0	529	515	
15	0	0	0	0	517	519	
0	0	0	0	0	503	521	
1	0	0	0	0	495	521	
2	0	0	0	0	487	518	
3	0	0	0	0	470	512	
4	0	0	0	0	476	506	
5	0	0	0	0	496	502	
6	0	0	0	0	512	500	
7	0	0	0	0	517	498	
8	0	0	0	0	518	498	
9	0	0	0	0	518	498	
10	0	0	0	0	513	499	
11	0	0	0	0	516	500	
12	0	0	0	0	515	500	
13	0	0	0	0	520	501	
14	0	0	0	0	533	504	
15	0	0	0	0	532	511	
0	0	0	0	0	512	513	
1	0	0	0	0	502	514	
2	0	0	0	0	496	513	
3	0	0	0	0	484	509	
4	0	0	0	0	473	504	
5	0	0	0	0	486	497	
6	0	0	0	0	502	494	
7	0	0	0	0	514	493	
8	0	0	0	0	522	492	
9	0	0	0	0	522	491	
10	0	0	0	0	520	491	
11	0	0	0	0	519	491	
12	0	0	0	0	519	492	
13	0	0	0	0	519	492	
14	0	0	0	0	524	496	
15	0	0	0	0	532	503	
0	0	0	0	0	524	508	
1	0	0	0	0	509	510	
2	0	0	0	0	499	510	
3	0	0	0	0	490	509	
4	0	0	0	0	473	504	
5	0	0	0	0	476	499	
6	0	0	0	0	492	495	
7	0	0	0	0	509	492	
8	0	0	0	0	515	491	
9	0	0	0	0	519	490	
10	0	0	0	0	519	491	
11	0	0	0	0	518	492	
12	0	0	0	0	517	493	
13	0	0	0	0	516	495	
14	0	0	0	0	518	497	
15	0	0	0	0	531	501	
0	0	0	0	0	531	508	
1	0	0	0	0	518	513	
2	0	0	0	0	504	515	
3	0	0	0	0	498	516	
4	0	0	0	0	486	512	
5	0	0	0	0	473	506	
6	0	0	0	0	478	500	
7	0	0	0	0	498	495	
8	0	0	0	0	512	492	
9	0	0	0	0	517	491	
10	0	0	0	0	519	491	
11	0	0	0	0	519	490	
12	0	0	0	0	518	491	
13	0	0	0	0	516	492	
14	0	0	0	0	515	494	
15	0	0	0	0	518	496	
0	0	0	0	0	531	502	
1	0	0	0	0	526	511	
2	0	0	0	0	507	517	
3	0	0	0	0	492	521	
4	0	0	0	0	487	522	
5	0	0	0	0	473	518	
6	0	0	0	0	463	512	
7	0	0	0	0	472	508	
8	0	0	0	0	486	507	
9	0	0	0	0	502	505	
10	0	0	0	0	510	505	
11	0	0	0	0	513	506	
12	0	0	0	0	513	508	
13	0	0	0	0	516	513	
14	0	0	0	0	521	517	
15	0	0	0	0	518	523	
0	0	0	0	0	531	531	
1	0	0	0	0	536	542	
2	0	0	0	0	532	551	
3	0	0	0	0	517	556	
4	0	0	0	0	509	558	
5	0	0	0	0	507	558	
6	0	0	0	0	492	554	
7	0	0	0	0	496	549	
8	0	0	0	0	515	547	
9	0	0	0	0	530	546	
10	0	0	0	0	538	546	
11	0	0	0	0	537	545	
12	0	0	0	0	537	544	
13	0	0	0	0	534	540	
14	0	0	0	0	534	536	
15	0	0	0	0	534	532	
0	0	0	0	0	535	525	
1	0	0	0	0	543	521	
2	0	0	0	0	537	520	
3	0	0	0	0	523	518	
4	0	0	0	0	499	511	
5	0	0	0	0	491	504	
6	0	0	0	0	477	493	
7	0	0	0	0	471	483	
8	0	0	0	0	478	473	
9	0	0	0	0	498	467	
10	0	0	0	0	511	464	
11	0	0	0	0	510	463	
12	0	0	0	0	507	462	
13	0	0	0	0	506	459	
14	0	0	0	0	502	457	
15	0	0	0	0	499	453	
0	0	0	0	0	499	448	
1	0	0	0	0	502	445	
2	0	0	0	0	513	445	
3	0	0	0	0	516	447	
4	0	0	0	0	503	446	
5	0	0	0	0	492	445	
6	0	0	0	0	491	443	
7	0	0	0	0	483	438	
8	0	0	0	0	480	432	
9	0	0	0	0	493	428	
10	0	0	0	0	512	424	
11	0	0	0	0	520	424	
12	0	0	0	0	523	426	
13	0	0	0	0	527	428	
14	0	0	0	0	524	431	
15	0	0	0	0	525	434	
0	0	0	0	0	526	437	
1	0	0	0	0	519	440	
2	0	0	0	0	529	445	
3	0	0	0	0	532	454	
4	0	0	0	0	525	464	
5	0	0	0	0	509	468	
6	0	0	0	0	500	470	
7	0	0	0	0	496	470	
8	0	0	0	0	476	466	
9	0	0	0	0	474	462	
10	0	0	0	0	486	460	
11	0	0	0	0	504	461	
12	0	0	0	0	508	463	
13	0	0	0	0	512	466	
14	0	0	0	0	513	470	
15	0	0	0	0	510	473	
0	0	0	0	0	512	478	
1	0	0	0	0	510	481	
2	0	0	0	0	513	483	
3	0	0	0	0	523	489	
4	0	0	0	0	524	499	
5	0	0	0	0	514	506	
6	0	0	0	0	501	509	
7	0	0	0	0	494	512	
8	0	0	0	0	482	511	
9	0	0	0	0	475	507	
10	0	0	0	0	478	502	
11	0	0	0	0	496	500	
12	0	0	0	0	511	498	
13	0	0	0	0	519	498	
14	0	0	0	0	522	499	
15	0	0	0	0	521	501	
0	0	0	0	0	523	503	
1	0	0	0	0	523	504	
2	0	0	0	0	522	507	
3	0	0	0	0	523	510	
4	0	0	0	0	534	515	
5	0	0	0	0	536	522	
6	0	0	0	0	520	525	
7	0	0	0	0	507	525	
8	0	0	0	0	502	525	
9	0	0	0	0	487	522	
10	0	0	0	0	479	517	
11	0	0	0	0	489	512	
12	0	0	0	0	504	509	
13	0	0	0	0	513	507	
14	0	0	0	0	516	505	
15	0	0	0	0	522	505	
0	0	0	0	0	519	506	
1	0	0	0	0	518	506	
2	0	0	0	0	517	507	
3	0	0	0	0	518	508	
4	0	0	0	0	524	511	
5	0	0	0	0	532	516	
6	0	0	0	0	526	521	
7	0	0	0	0	509	524	
8	0	0	0	0	498	524	
9	0	0	0	0	495	524	
10	0	0	0	0	481	519	
11	0	0	0	0	479	515	
12	0	0	0	0	495	510	
13	0	0	0	0	508	508	
14	0	0	0	0	514	508	
15	0	0	0	0	520	508	
0	0	0	0	0	518	508	
1	0	0	0	0	519	508	
2	0	0	0	0	517	509	
3	0	0	0	0	514	510	
4	0	0	0	0	518	511	
5	0	0	0	0	527	515	
6	0	0	0	0	528	522	
7	0	0	0	0	518	526	
8	0	0	0	0	505	527	
9	0	0	0	0	501	527	
10	0	0	0	0	489	526	
11	0	0	0	0	481	521	
12	0	0	0	0	485	515	
13	0	0	0	0	496	512	
14	0	0	0	0	511	511	
15	0	0	0	0	514	510	
0	0	0	0	0	519	510	
1	0	0	0	0	521	511	
2	0	0	0	0	518	512	
3	0	0	0	0	518	512	
4	0	0	0	0	519	513	
5	0	0	0	0	520	514	
6	0	0	0	0	529	519	
7	0	0	0	0	530	524	
8	0	0	0	0	515	527	
9	0	0	0	0	500	528	
10	0	0	0	0	496	529	
11	0	0	0	0	484	525	
12	0	0	0	0	475	520	
13	0	0	0	0	483	517	
14	0	0	0	0	500	514	
15	0	0	0	0	510	513	
0	0	0	0	0	516	513	
1	0	0	0	0	517	514	
2	0	0	0	0	516	515	
3	0	0	0	0	519	515	
4	0	0	0	0	517	517	
5	0	0	0	0	517	518	
6	0	0	0	0	526	520	
7	0	0	0	0	532	524	
8	0	0	0	0	526	529	
9	0	0	0	0	508	532	
10	0	0	0	0	503	532	
11	0	0	0	0	499	532	
12	0	0	0	0	481	527	
13	0	0	0	0	480	522	
14	0	0	0	0	494	517	
15	0	0	0	0	508	514	
0	0	0	0	0	514	513	
1	0	0	0	0	520	513	
2	0	0	0	0	520	513	
3	0	0	0	0	516	514	
4	0	0	0	0	513	514	
5	0	0	0	0	514	515	
6	0	0	0	0	516	516	
7	0	0	0	0	526	520	
8	0	0	0	0	530	527	
9	0	0	0	0	519	531	
10	0	0	0	0	503	533	
11	0	0	0	0	500	534	
12	0	0	0	0	487	533	
13	0	0	0	0	479	529	
14	0	0	0	0	483	524	
15	0	0	0	0	495	520	
0	0	0	0	0	511	518	
1	0	0	0	0	516	517	
2	0	0	0	0	520	517	
3	0	0	0	0	519	517	
4	0	0	0	0	516	518	
5	0	0	0	0	517	519	
6	0	0	0	0	518	520	
7	0	0	0	0	522	520	
8	0	0	0	0	531	524	
9	0	0	0	0	531	528	
10	0	0	0	0	514	531	
11	0	0	0	0	504	532	
12	0	0	0	0	499	532	
13	0	0	0	0	485	529	
14	0	0	0	0	477	524	
15	0	0	0	0	483	520	
0	0	0	0	0	502	518	
1	0	0	0	0	512	517	
2	0	0	0	0	516	518	
3	0	0	0	0	518	519	
4	0	0	0	0	515	519	
5	0	0	0	0	517	521	
6	0	0	0	0	518	522	
7	0	0	0	0	516	523	
8	0	0	0	0	521	527	
9	0	0	0	0	531	534	
10	0	0	0	0	524	540	
11	0	0	0	0	509	543	
12	0	0	0	0	501	544	
13	0	0	0	0	496	543	
14	0	0	0	0	482	539	
15	0	0	0	0	478	535	
0	0	0	0	0	491	531	
1	0	0	0	0	505	529	
2	0	0	0	0	513	528	
3	0	0	0	0	518	527	
4	0	0	0	0	519	527	
5	0	0	0	0	515	528	
6	0	0	0	0	516	531	
7	0	0	0	0	517	534	
8	0	0	0	0	517	536	
9	0	0	0	0	527	541	
10	0	0	0	0	534	546	
11	0	0	0	0	526	548	
12	0	0	0	0	510	550	
13	0	0	0	0	501	550	
14	0	0	0	0	489	548	
15	0	0	0	0	478	543	
0	0	0	0	0	483	537	
1	0	0	0	0	495	532	
2	0	0	0	0	508	529	
3	0	0	0	0	515	529	
4	0	0	0	0	519	530	
5	0	0	0	0	519	531	
6	0	0	0	0	518	534	
7	0	0	0	0	514	536	
8	0	0	0	0	515	536	
9	0	0	0	0	517	539	
10	0	0	0	0	530	546	
11	0	0	0	0	532	551	
12	0	0	0	0	514	554	
13	0	0	0	0	503	555	
14	0	0	0	0	499	555	
15	0	0	0	0	486	551	
0	0	0	0	0	480	544	
1	0	0	0	0	486	539	
2	0	0	0	0	499	535	
3	0	0	0	0	508	533	
4	0	0	0	0	514	532	
5	0	0	0	0	517	531	
6	0	0	0	0	518	530	
7	0	0	0	0	518	529	
8	0	0	0	0	519	528	
9	0	0	0	0	517	527	
10	0	0	0	0	524	531	
11	0	0	0	0	532	534	
12	0	0	0	0	529	538	
13	0	0	0	0	511	539	
14	0	0	0	0	503	539	
15	0	0	0	0	497	538	
0	0	0	0	0	484	534	
1	0	0	0	0	480	526	
2	0	0	0	0	492	520	
3	0	0	0	0	506	517	
4	0	0	0	0	511	517	
5	0	0	0	0	518	515	
6	0	0	0	0	519	515	
7	0	0	0	0	518	514	
8	0	0	0	0	519	513	
9	0	0	0	0	518	512	
10	0	0	0	0	519	512	
11	0	0	0	0	530	516	
12	0	0	0	0	533	521	
13	0	0	0	0	522	525	
14	0	0	0	0	506	524	
15	0	0	0	0	500	524	
0	0	0	0	0	491	521	
1	0	0	0	0	479	513	
2	0	0	0	0	483	506	
3	0	0	0	0	497	501	
4	0	0	0	0	509	498	
5	0	0	0	0	515	496	
6	0	0	0	0	519	495	
7	0	0	0	0	518	494	
8	0	0	0	0	518	494	
9	0	0	0	0	520	493	
10	0	0	0	0	519	493	
11	0	0	0	0	522	494	
12	0	0	0	0	533	498	
13	0	0	0	0	531	502	
14	0	0	0	0	516	502	
15	0	0	0	0	505	501	
0	0	0	0	0	499	499	
1	0	0	0	0	486	497	
2	0	0	0	0	480	491	
3	0	0	0	0	487	484	
4	0	0	0	0	502	480	
5	0	0	0	0	512	478	
6	0	0	0	0	517	478	
7	0	0	0	0	519	479	
8	0	0	0	0	516	480	
9	0	0	0	0	519	480	
10	0	0	0	0	518	480	
11	0	0	0	0	515	481	
12	0	0	0	0	524	484	
13	0	0	0	0	533	488	
14	0	0	0	0	528	492	
15	0	0	0	0	510	492	
0	0	0	0	0	500	490	
1	0	0	0	0	498	489	
2	0	0	0	0	480	483	
3	0	0	0	0	480	476	
4	0	0	0	0	492	470	
5	0	0	0	0	507	466	
6	0	0	0	0	514	464	
7	0	0	0	0	517	464	
8	0	0	0	0	518	467	
9	0	0	0	0	518	468	
10	0	0	0	0	521	470	
11	0	0	0	0	518	470	
12	0	0	0	0	520	472	
13	0	0	0	0	529	477	
14	0	0	0	0	532	483	
15	0	0	0	0	517	487	
0	0	0	0	0	499	489	
1	0	0	0	0	495	490	
2	0	0	0	0	487	489	
3	0	0	0	0	479	486	
4	0	0	0	0	482	481	
5	0	0	0	0	496	478	
6	0	0	0	0	509	477	
7	0	0	0	0	513	477	
8	0	0	0	0	519	475	
9	0	0	0	0	519	473	
10	0	0	0	0	515	472	
11	0	0	0	0	519	470	
12	0	0	0	0	518	470	
13	0	0	0	0	519	472	
14	0	0	0	0	532	477	
15	0	0	0	0	531	483	
0	0	0	0	0	514	487	
1	0	0	0	0	500	489	
2	0	0	0	0	496	488	
3	0	0	0	0	483	485	
4	0	0	0	0	476	480	
5	0	0	0	0	484	474	
6	0	0	0	0	502	472	
7	0	0	0	0	514	470	
8	0	0	0	0	517	469	
9	0	0	0	0	517	469	
10	0	0	0	0	516	469	
11	0	0	0	0	518	470	
12	0	0	0	0	516	472	
13	0	0	0	0	518	474	
14	0	0	0	0	523	478	
15	0	0	0	0	533	485	
0	0	0	0	0	524	492	
1	0	0	0	0	508	495	
2	0	0	0	0	499	495	
3	0	0	0	0	496	494	
4	0	0	0	0	483	488	
5	0	0	0	0	481	481	
6	0	0	0	0	492	475	
7	0	0	0	0	507	472	
8	0	0	0	0	514	473	
9	0	0	0	0	517	474	
10	0	0	0	0	517	476	
11	0	0	0	0	518	476	
12	0	0	0	0	516	478	
13	0	0	0	0	517	481	
14	0	0	0	0	518	484	
15	0	0	0	0	529	490	
0	0	0	0	0	532	497	
1	0	0	0	0	521	503	
2	0	0	0	0	504	505	
3	0	0	0	0	495	505	
4	0	0	0	0	487	504	
5	0	0	0	0	475	499	
6	0	0	0	0	482	493	
7	0	0	0	0	494	489	
8	0	0	0	0	508	487	
9	0	0	0	0	513	487	
10	0	0	0	0	519	487	
11	0	0	0	0	519	487	
12	0	0	0	0	516	489	
13	0	0	0	0	518	490	
14	0	0	0	0	518	493	
15	0	0	0	0	521	497	
0	0	0	0	0	532	504	
1	0	0	0	0	531	509	
2	0	0	0	0	516	511	
3	0	0	0	0	503	510	
4	0	0	0	0	496	508	
5	0	0	0	0	484	504	
6	0	0	0	0	479	498	
7	0	0	0	0	485	492	
8	0	0	0	0	501	491	
9	0	0	0	0	513	491	
10	0	0	0	0	517	491	
11	0	0	0	0	516	492	
12	0	0	0	0	517	492	
13	0	0	0	0	517	492	
14	0	0	0	0	517	494	
15	0	0	0	0	515	496	
0	0	0	0	0	526	499	
1	0	0	0	0	540	503	
2	0	0	0	0	529	506	
3	0	0	0	0	508	506	
4	0	0	0	0	497	507	
5	0	0	0	0	494	508	
6	0	0	0	0	479	505	
7	0	0	0	0	477	499	
8	0	0	0	0	491	494	
9	0	0	0	0	508	493	
10	0	0	0	0	515	492	
11	0	0	0	0	521	492	
12	0	0	0	0	520	493	
13	0	0	0	0	519	494	
14	0	0	0	0	521	495	
15	0	0	0	0	519	496	
0	0	0	0	0	517	497	
1	0	0	0	0	527	501	
2	0	0	0	0	534	507	
3	0	0	0	0	518	512	
4	0	0	0	0	503	513	
5	0	0	0	0	499	513	
6	0	0	0	0	488	512	
7	0	0	0	0	479	507	
8	0	0	0	0	479	502	
9	0	0	0	0	494	499	
10	0	0	0	0	509	499	
11	0	0	0	0	514	499	
12	0	0	0	0	520	500	
13	0	0	0	0	521	501	
14	0	0	0	0	518	502	
15	0	0	0	0	520	504	
0	0	0	0	0	520	504	
1	0	0	0	0	522	506	
2	0	0	0	0	535	510	
3	0	0	0	0	533	515	
4	0	0	0	0	514	517	
5	0	0	0	0	500	517	
6	0	0	0	0	494	516	
7	0	0	0	0	483	512	
8	0	0	0	0	478	507	
9	0	0	0	0	482	503	
10	0	0	0	0	496	503	
11	0	0	0	0	507	505	
12	0	0	0	0	514	508	
13	0	0	0	0	515	511	
14	0	0	0	0	517	512	
15	0	0	0	0	516	514	
0	0	0	0	0	518	516	
1	0	0	0	0	516	517	
2	0	0	0	0	520	520	
3	0	0	0	0	534	527	
4	0	0	0	0	528	529	
5	0	0	0	0	508	528	
6	0	0	0	0	501	527	
7	0	0	0	0	499	525	
8	0	0	0	0	487	521	
9	0	0	0	0	479	516	
10	0	0	0	0	489	512	
11	0	0	0	0	507	510	
12	0	0	0	0	514	510	
13	0	0	0	0	519	511	
14	0	0	0	0	518	511	
15	0	0	0	0	517	511	
0	0	0	0	0	520	513	
1	0	0	0	0	516	515	
2	0	0	0	0	517	515	
3	0	0	0	0	526	519	
4	0	0	0	0	534	524	
5	0	0	0	0	524	527	
6	0	0	0	0	504	528	
7	0	0	0	0	498	529	
8	0	0	0	0	490	527	
9	0	0	0	0	478	520	
10	0	0	0	0	482	512	
11	0	0	0	0	497	506	
12	0	0	0	0	508	504	
13	0	0	0	0	514	504	
14	0	0	0	0	517	505	
15	0	0	0	0	515	506	
0	0	0	0	0	516	508	
1	0	0	0	0	517	510	
2	0	0	0	0	519	511	
3	0	0	0	0	521	512	
4	0	0	0	0	533	516	
5	0	0	0	0	533	521	
6	0	0	0	0	513	523	
7	0	0	0	0	500	524	
8	0	0	0	0	496	523	
9	0	0	0	0	482	520	
10	0	0	0	0	476	514	
11	0	0	0	0	486	508	
12	0	0	0	0	502	506	
13	0	0	0	0	512	507	
14	0	0	0	0	517	508	
15	0	0	0	0	520	508	
0	0	0	0	0	517	511	
1	0	0	0	0	517	513	
2	0	0	0	0	519	513	
3	0	0	0	0	518	515	
4	0	0	0	0	525	519	
5	0	0	0	0	536	525	
6	0	0	0	0	529	530	
7	0	0	0	0	509	531	
8	0	0	0	0	499	530	
9	0	0	0	0	498	528	
10	0	0	0	0	481	524	
11	0	0	0	0	477	518	
12	0	0	0	0	491	514	
13	0	0	0	0	505	513	
14	0	0	0	0	513	514	
15	0	0	0	0	518	516	
0	0	0	0	0	519	518	
1	0	0	0	0	517	520	
2	0	0	0	0	516	523	
3	0	0	0	0	519	526	
4	0	0	0	0	520	527	
5	0	0	0	0	531	530	
6	0	0	0	0	536	532	
7	0	0	0	0	520	536	
8	0	0	0	0	504	535	
9	0	0	0	0	496	532	
10	0	0	0	0	485	530	
11	0	0	0	0	474	526	
12	0	0	0	0	479	519	
13	0	0	0	0	493	514	
14	0	0	0	0	510	513	
15	0	0	0	0	514	513	
0	0	0	0	0	516	514	
1	0	0	0	0	518	513	
2	0	0	0	0	517	515	
3	0	0	0	0	516	515	
4	0	0	0	0	516	517	
5	0	0	0	0	518	519	
6	0	0	0	0	533	526	
7	0	0	0	0	531	531	
8	0	0	0	0	517	535	
9	0	0	0	0	503	535	
10	0	0	0	0	498	533	
11	0	0	0	0	485	528	
12	0	0	0	0	477	521	
13	0	0	0	0	487	515	
14	0	0	0	0	503	513	
15	0	0	0	0	513	512	
0	0	0	0	0	518	512	
1	0	0	0	0	520	512	
2	0	0	0	0	520	512	
3	0	0	0	0	522	511	
4	0	0	0	0	519	512	
5	0	0	0	0	518	513	
6	0	0	0	0	521	517	
7	0	0	0	0	534	523	
8	0	0	0	0	528	529	
9	0	0	0	0	509	531	
10	0	0	0	0	499	531	
11	0	0	0	0	496	530	
12	0	0	0	0	480	525	
13	0	0	0	0	478	515	
14	0	0	0	0	490	509	
15	0	0	0	0	504	507	
0	0	0	0	0	512	508	
1	0	0	0	0	518	507	
2	0	0	0	0	519	508	
3	0	0	0	0	515	508	
4	0	0	0	0	516	509	
5	0	0	0	0	516	511	
6	0	0	0	0	517	514	
7	0	0	0	0	526	519	
8	0	0	0	0	530	524	
9	0	0	0	0	519	529	
10	0	0	0	0	504	530	
11	0	0	0	0	500	529	
12	0	0	0	0	492	528	
13	0	0	0	0	481	522	
14	0	0	0	0	483	515	
15	0	0	0	0	496	512	
0	0	0	0	0	507	511	
1	0	0	0	0	514	511	
2	0	0	0	0	516	511	
3	0	0	0	0	518	513	
4	0	0	0	0	518	514	
5	0	0	0	0	514	515	
6	0	0	0	0	516	517	
7	0	0	0	0	518	520	
8	0	0	0	0	529	527	
9	0	0	0	0	531	532	
10	0	0	0	0	516	535	
11	0	0	0	0	508	534	
12	0	0	0	0	500	532	
13	0	0	0	0	487	528	
14	0	0	0	0	479	521	
15	0	0	0	0	483	514	
0	0	0	0	0	496	512	
1	0	0	0	0	507	512	
2	0	0	0	0	512	513	
3	0	0	0	0	515	515	
4	0	0	0	0	513	517	
5	0	0	0	0	512	520	
6	0	0	0	0	513	523	
7	0	0	0	0	516	525	
8	0	0	0	0	524	529	
9	0	0	0	0	531	533	
10	0	0	0	0	529	536	
11	0	0	0	0	511	536	
12	0	0	0	0	501	534	
13	0	0	0	0	498	531	
14	0	0	0	0	484	523	
15	0	0	0	0	483	516	
0	0	0	0	0	488	512	
1	0	0	0	0	503	511	
2	0	0	0	0	512	511	
3	0	0	0	0	515	511	
4	0	0	0	0	517	512	
5	0	0	0	0	518	513	
6	0	0	0	0	521	514	
7	0	0	0	0	520	515	
8	0	0	0	0	523	516	
9	0	0	0	0	525	522	
10	0	0	0	0	529	528	
11	0	0	0	0	523	532	
12	0	0	0	0	509	532	
13	0	0	0	0	503	532	
14	0	0	0	0	497	530	
15	0	0	0	0	483	523	
0	0	0	0	0	484	515	
1	0	0	0	0	500	512	
2	0	0	0	0	514	510	
3	0	0	0	0	516	510	
4	0	0	0	0	520	510	
5	0	0	0	0	519	510	
6	0	0	0	0	520	512	
7	0	0	0	0	519	513	
8	0	0	0	0	519	515	
9	0	0	0	0	522	516	
10	0	0	0	0	528	521	
11	0	0	0	0	530	528	
12	0	0	0	0	516	533	
13	0	0	0	0	504	536	
14	0	0	0	0	499	538	
15	0	0	0	0	487	537	
0	0	0	0	0	479	530	
1	0	0	0	0	487	522	
2	0	0	0	0	499	518	
3	0	0	0	0	511	516	
4	0	0	0	0	512	518	
5	0	0	0	0	515	519	
6	0	0	0	0	518	520	
7	0	0	0	0	519	520	
8	0	0	0	0	520	522	
9	0	0	0	0	521	523	
10	0	0	0	0	524	525	
11	0	0	0	0	530	531	
12	0	0	0	0	529	535	
13	0	0	0	0	512	536	
14	0	0	0	0	499	536	
15	0	0	0	0	494	537	
0	0	0	0	0	482	531	
1	0	0	0	0	477	524	
2	0	0	0	0	487	519	
3	0	0	0	0	498	516	
4	0	0	0	0	511	515	
5	0	0	0	0	514	515	
6	0	0	0	0	516	515	
7	0	0	0	0	515	515	
8	0	0	0	0	513	514	
9	0	0	0	0	516	515	
10	0	0	0	0	515	515	
11	0	0	0	0	524	518	
12	0	0	0	0	532	522	
13	0	0	0	0	524	524	
14	0	0	0	0	508	524	
15	0	0	0	0	502	521	
0	0	0	0	0	496	518	
1	0	0	0	0	485	511	
2	0	0	0	0	483	504	
3	0	0	0	0	494	501	
4	0	0	0	0	506	499	
5	0	0	0	0	510	499	
6	0	0	0	0	514	499	
7	0	0	0	0	515	499	
8	0	0	0	0	512	499	
9	0	0	0	0	515	500	
10	0	0	0	0	516	500	
11	0	0	0	0	518	502	
12	0	0	0	0	525	508	
13	0	0	0	0	527	512	
14	0	0	0	0	513	515	
15	0	0	0	0	499	516	
0	0	0	0	0	497	515	
1	0	0	0	0	486	513	
2	0	0	0	0	478	506	
3	0	0	0	0	486	499	
4	0	0	0	0	500	496	
5	0	0	0	0	510	496	
6	0	0	0	0	516	496	
7	0	0	0	0	516	497	
8	0	0	0	0	515	498	
9	0	0	0	0	514	499	
10	0	0	0	0	516	499	
11	0	0	0	0	515	500	
12	0	0	0	0	523	504	
13	0	0	0	0	529	511	
14	0	0	0	0	527	516	
15	0	0	0	0	512	517	
0	0	0	0	0	504	516	
1	0	0	0	0	504	513	
2	0	0	0	0	487	508	
3	0	0	0	0	482	500	
4	0	0	0	0	493	495	
5	0	0	0	0	504	493	
6	0	0	0	0	512	492	
7	0	0	0	0	516	492	
8	0	0	0	0	517	492	
9	0	0	0	0	515	492	
10	0	0	0	0	515	493	
11	0	0	0	0	514	495	
12	0	0	0	0	514	497	
13	0	0	0	0	524	504	
14	0	0	0	0	530	511	
15	0	0	0	0	519	516	
0	0	0	0	0	500	519	
1	0	0	0	0	494	519	
2	0	0	0	0	485	519	
3	0	0	0	0	472	511	
4	0	0	0	0	471	507	
5	0	0	0	0	478	504	
6	0	0	0	0	491	504	
7	0	0	0	0	497	506	
8	0	0	0	0	502	509	
9	0	0	0	0	504	512	
10	0	0	0	0	507	515	
11	0	0	0	0	511	518	
12	0	0	0	0	515	521	
13	0	0	0	0	523	527	
14	0	0	0	0	535	536	
15	0	0	0	0	541	545	
0	0	0	0	0	531	551	
1	0	0	0	0	517	554	
2	0	0	0	0	508	556	
3	0	0	0	0	503	555	
4	0	0	0	0	502	550	
5	0	0	0	0	511	543	
6	0	0	0	0	527	540	
7	0	0	0	0	538	539	
8	0	0	0	0	540	540	
9	0	0	0	0	539	541	
10	0	0	0	0	537	540	
11	0	0	0	0	540	539	
12	0	0	0	0	539	536	
13	0	0	0	0	538	531	
14	0	0	0	0	543	527	
15	0	0	0	0	548	525	
0	0	0	0	0	541	521	
1	0	0	0	0	523	512	
2	0	0	0	0	508	500	
3	0	0	0	0	500	490	
4	0	0	0	0	480	477	
5	0	0	0	0	476	464	
6	0	0	0	0	488	455	
7	0	0	0	0	504	450	
8	0	0	0	0	509	449	
9	0	0	0	0	505	449	
10	0	0	0	0	499	450	
11	0	0	0	0	497	450	
12	0	0	0	0	494	449	
13	0	0	0	0	492	447	
14	0	0	0	0	496	444	
15	0	0	0	0	504	443	
0	0	0	0	0	510	441	
1	0	0	0	0	501	439	
2	0	0	0	0	488	435	
3	0	0	0	0	489	430	
4	0	0	0	0	489	425	
5	0	0	0	0	479	418	
6	0	0	0	0	479	410	
7	0	0	0	0	494	406	
8	0	0	0	0	509	406	
9	0	0	0	0	515	409	
10	0	0	0	0	518	412	
11	0	0	0	0	521	416	
12	0	0	0	0	521	419	
13	0	0	0	0	524	422	
14	0	0	0	0	524	425	
15	0	0	0	0	527	429	
0	0	0	0	0	534	437	
1	0	0	0	0	533	446	
2	0	0	0	0	517	453	
3	0	0	0	0	503	456	
4	0	0	0	0	496	459	
5	0	0	0	0	481	459	
6	0	0	0	0	472	456	
7	0	0	0	0	480	451	
8	0	0	0	0	490	450	
9	0	0	0	0	504	452	
10	0	0	0	0	507	455	
11	0	0	0	0	508	460	
12	0	0	0	0	509	464	
13	0	0	0	0	507	469	
14	0	0	0	0	507	474	
15	0	0	0	0	508	479	
0	0	0	0	0	517	484	
1	0	0	0	0	530	491	
2	0	0	0	0	525	497	
3	0	0	0	0	508	499	
4	0	0	0	0	502	500	
5	0	0	0	0	499	499	
6	0	0	0	0	486	496	
7	0	0	0	0	484	489	
8	0	0	0	0	494	483	
9	0	0	0	0	510	481	
10	0	0	0	0	518	480	
11	0	0	0	0	520	481	
12	0	0	0	0	521	483	
13	0	0	0	0	520	484	
14	0	0	0	0	520	486	
15	0	0	0	0	521	488	
0	0	0	0	0	521	490	
1	0	0	0	0	531	494	
2	0	0	0	0	537	500	
3	0	0	0	0	527	504	
4	0	0	0	0	510	504	
5	0	0	0	0	505	504	
6	0	0	0	0	495	501	
7	0	0	0	0	483	495	
8	0	0	0	0	486	487	
9	0	0	0	0	497	481	
10	0	0	0	0	508	480	
11	0	0	0	0	515	479	
12	0	0	0	0	517	479	
13	0	0	0	0	518	480	
14	0	0	0	0	513	482	
15	0	0	0	0	516	484	
0	0	0	0	0	518	486	
1	0	0	0	0	522	489	
2	0	0	0	0	531	494	
3	0	0	0	0	530	499	
4	0	0	0	0	518	502	
5	0	0	0	0	505	502	
6	0	0	0	0	497	501	
7	0	0	0	0	488	498	
8	0	0	0	0	482	491	
9	0	0	0	0	487	483	
10	0	0	0	0	500	479	
11	0	0	0	0	511	479	
12	0	0	0	0	516	479	
13	0	0	0	0	517	479	
14	0	0	0	0	516	480	
15	0	0	0	0	516	480	
0	0	0	0	0	517	481	
1	0	0	0	0	516	481	
2	0	0	0	0	518	485	
3	0	0	0	0	532	492	
4	0	0	0	0	530	497	
5	0	0	0	0	510	498	
6	0	0	0	0	501	498	
7	0	0	0	0	499	497	
8	0	0	0	0	486	492	
9	0	0	0	0	483	485	
10	0	0	0	0	487	480	
11	0	0	0	0	504	477	
12	0	0	0	0	514	477	
13	0	0	0	0	517	478	
14	0	0	0	0	516	479	
15	0	0	0	0	515	480	
0	0	0	0	0	516	481	
1	0	0	0	0	516	483	
2	0	0	0	0	513	485	
3	0	0	0	0	526	489	
4	0	0	0	0	531	495	
5	0	0	0	0	521	498	
6	0	0	0	0	507	499	
7	0	0	0	0	499	500	
8	0	0	0	0	496	498	
9	0	0	0	0	483	492	
10	0	0	0	0	482	485	
11	0	0	0	0	493	480	
12	0	0	0	0	507	478	
13	0	0	0	0	511	478	
14	0	0	0	0	516	479	
15	0	0	0	0	515	481	
0	0	0	0	0	519	483	
1	0	0	0	0	523	483	
2	0	0	0	0	520	483	
3	0	0	0	0	518	485	
4	0	0	0	0	529	491	
5	0	0	0	0	531	499	
6	0	0	0	0	517	503	
7	0	0	0	0	505	503	
8	0	0	0	0	499	502	
9	0	0	0	0	489	499	
10	0	0	0	0	482	493	
11	0	0	0	0	484	487	
12	0	0	0	0	496	485	
13	0	0	0	0	510	484	
14	0	0	0	0	513	486	
15	0	0	0	0	516	487	
0	0	0	0	0	515	487	
1	0	0	0	0	515	488	
2	0	0	0	0	515	489	
3	0	0	0	0	515	489	
4	0	0	0	0	520	493	
5	0	0	0	0	531	499	
6	0	0	0	0	528	504	
7	0	0	0	0	512	505	
8	0	0	0	0	503	505	
9	0	0	0	0	497	504	
10	0	0	0	0	486	499	
11	0	0	0	0	482	489	
12	0	0	0	0	489	483	
13	0	0	0	0	503	482	
14	0	0	0	0	513	483	
15	0	0	0	0	516	484	
0	0	0	0	0	519	484	
1	0	0	0	0	517	485	
2	0	0	0	0	516	486	
3	0	0	0	0	515	487	
4	0	0	0	0	514	489	
5	0	0	0	0	525	493	
6	0	0	0	0	532	499	
7	0	0	0	0	525	504	
8	0	0	0	0	507	504	
9	0	0	0	0	500	503	
10	0	0	0	0	496	500	
11	0	0	0	0	480	492	
12	0	0	0	0	483	487	
13	0	0	0	0	494	484	
14	0	0	0	0	508	483	
15	0	0	0	0	515	484	
0	0	0	0	0	515	485	
1	0	0	0	0	516	486	
2	0	0	0	0	514	488	
3	0	0	0	0	518	489	
4	0	0	0	0	515	491	
5	0	0	0	0	517	495	
6	0	0	0	0	528	501	
7	0	0	0	0	532	507	
8	0	0	0	0	520	510	
9	0	0	0	0	504	511	
10	0	0	0	0	500	511	
11	0	0	0	0	486	509	
12	0	0	0	0	480	503	
13	0	0	0	0	483	496	
14	0	0	0	0	498	495	
15	0	0	0	0	509	495	
0	0	0	0	0	513	496	
1	0	0	0	0	519	497	
2	0	0	0	0	518	497	
3	0	0	0	0	515	498	
4	0	0	0	0	517	500	
5	0	0	0	0	513	503	
6	0	0	0	0	519	508	
7	0	0	0	0	528	517	
8	0	0	0	0	529	523	
9	0	0	0	0	512	527	
10	0	0	0	0	500	528	
11	0	0	0	0	498	527	
12	0	0	0	0	484	524	
13	0	0	0	0	478	517	
14	0	0	0	0	487	512	
15	0	0	0	0	503	511	
0	0	0	0	0	509	511	
1	0	0	0	0	515	511	
2	0	0	0	0	516	513	
3	0	0	0	0	519	514	
4	0	0	0	0	517	515	
5	0	0	0	0	516	518	
6	0	0	0	0	517	520	
7	0	0	0	0	524	525	
8	0	0	0	0	534	531	
9	0	0	0	0	524	536	
10	0	0	0	0	511	536	
11	0	0	0	0	504	537	
12	0	0	0	0	499	533	
13	0	0	0	0	484	525	
14	0	0	0	0	485	518	
15	0	0	0	0	492	512	
0	0	0	0	0	507	509	
1	0	0	0	0	514	509	
2	0	0	0	0	519	510	
3	0	0	0	0	519	509	
4	0	0	0	0	518	508	
5	0	0	0	0	516	508	
6	0	0	0	0	514	509	
7	0	0	0	0	517	511	
8	0	0	0	0	527	516	
9	0	0	0	0	531	521	
10	0	0	0	0	518	524	
11	0	0	0	0	507	524	
12	0	0	0	0	501	523	
13	0	0	0	0	492	518	
14	0	0	0	0	483	509	
15	0	0	0	0	486	502	
0	0	0	0	0	499	499	
1	0	0	0	0	510	497	
2	0	0	0	0	514	496	
3	0	0	0	0	518	497	
4	0	0	0	0	519	496	
5	0	0	0	0	515	496	
6	0	0	0	0	518	496	
7	0	0	0	0	518	495	
8	0	0	0	0	517	496	
9	0	0	0	0	531	501	
10	0	0	0	0	531	506	
11	0	0	0	0	513	508	
12	0	0	0	0	503	507	
13	0	0	0	0	500	505	
14	0	0	0	0	490	501	
15	0	0	0	0	484	492	
0	0	0	0	0	490	486	
1	0	0	0	0	504	483	
2	0	0	0	0	513	481	
3	0	0	0	0	517	481	
4	0	0	0	0	517	480	
5	0	0	0	0	516	480	
6	0	0	0	0	518	481	
7	0	0	0	0	518	482	
8	0	0	0	0	518	482	
9	0	0	0	0	524	487	
10	0	0	0	0	531	492	
11	0	0	0	0	525	495	
12	0	0	0	0	510	494	
13	0	0	0	0	502	492	
14	0	0	0	0	497	489	
15	0	0	0	0	485	483	
0	0	0	0	0	482	473	
1	0	0	0	0	495	467	
2	0	0	0	0	507	465	
3	0	0	0	0	515	465	
4	0	0	0	0	517	465	
5	0	0	0	0	519	464	
6	0	0	0	0	516	463	
7	0	0	0	0	516	464	
8	0	0	0	0	514	466	
9	0	0	0	0	518	468	
10	0	0	0	0	529	472	
11	0	0	0	0	531	478	
12	0	0	0	0	519	480	
13	0	0	0	0	507	478	
14	0	0	0	0	502	476	
15	0	0	0	0	491	472	
0	0	0	0	0	481	464	
1	0	0	0	0	486	457	
2	0	0	0	0	497	453	
3	0	0	0	0	511	452	
4	0	0	0	0	515	452	
5	0	0	0	0	518	453	
6	0	0	0	0	517	454	
7	0	0	0	0	515	454	
8	0	0	0	0	515	456	
9	0	0	0	0	514	457	
10	0	0	0	0	523	460	
11	0	0	0	0	532	467	
12	0	0	0	0	532	472	
13	0	0	0	0	511	475	
14	0	0	0	0	499	475	
15	0	0	0	0	497	475	
0	0	0	0	0	487	471	
1	0	0	0	0	479	463	
2	0	0	0	0	487	459	
3	0	0	0	0	500	456	
4	0	0	0	0	510	455	
5	0	0	0	0	514	456	
6	0	0	0	0	516	458	
7	0	0	0	0	515	460	
8	0	0	0	0	517	462	
9	0	0	0	0	514	464	
10	0	0	0	0	516	467	
11	0	0	0	0	522	472	
12	0	0	0	0	534	477	
13	0	0	0	0	525	482	
14	0	0	0	0	509	484	
15	0	0	0	0	500	486	
0	0	0	0	0	497	484	
1	0	0	0	0	482	479	
2	0	0	0	0	480	473	
3	0	0	0	0	492	469	
4	0	0	0	0	505	468	
5	0	0	0	0	514	468	
6	0	0	0	0	514	470	
7	0	0	0	0	517	471	
8	0	0	0	0	513	473	
9	0	0	0	0	516	475	
10	0	0	0	0	517	478	
11	0	0	0	0	516	480	
12	0	0	0	0	528	487	
13	0	0	0	0	532	494	
14	0	0	0	0	518	498	
15	0	0	0	0	504	499	
0	0	0	0	0	499	500	
1	0	0	0	0	489	499	
2	0	0	0	0	481	495	
3	0	0	0	0	485	489	
4	0	0	0	0	500	487	
5	0	0	0	0	511	487	
6	0	0	0	0	513	489	
7	0	0	0	0	518	490	
8	0	0	0	0	514	491	
9	0	0	0	0	514	493	
10	0	0	0	0	515	496	
11	0	0	0	0	515	498	
12	0	0	0	0	521	502	
13	0	0	0	0	532	509	
14	0	0	0	0	528	515	
15	0	0	0	0	512	518	
0	0	0	0	0	503	519	
1	0	0	0	0	498	519	
2	0	0	0	0	486	517	
3	0	0	0	0	482	510	
4	0	0	0	0	490	504	
5	0	0	0	0	504	504	
6	0	0	0	0	512	504	
7	0	0	0	0	516	505	
8	0	0	0	0	517	507	
9	0	0	0	0	517	508	
10	0	0	0	0	516	508	
11	0	0	0	0	518	510	
12	0	0	0	0	516	511	
13	0	0	0	0	525	515	
14	0	0	0	0	534	522	
15	0	0	0	0	526	527	
0	0	0	0	0	508	528	
1	0	0	0	0	500	528	
2	0	0	0	0	498	527	
3	0	0	0	0	483	521	
4	0	0	0	0	481	515	
5	0	0	0	0	491	511	
6	0	0	0	0	505	510	
7	0	0	0	0	511	511	
8	0	0	0	0	515	512	
9	0	0	0	0	518	512	
10	0	0	0	0	516	513	
11	0	0	0	0	515	515	
12	0	0	0	0	515	516	
13	0	0	0	0	518	519	
14	0	0	0	0	524	524	
15	0	0	0	0	532	531	
0	0	0	0	0	522	534	
1	0	0	0	0	504	534	
2	0	0	0	0	500	535	
3	0	0	0	0	491	532	
4	0	0	0	0	481	526	
5	0	0	0	0	484	521	
6	0	0	0	0	496	518	
7	0	0	0	0	509	518	
8	0	0	0	0	511	519	
9	0	0	0	0	515	521	
10	0	0	0	0	518	523	
11	0	0	0	0	519	524	
12	0	0	0	0	519	526	
13	0	0	0	0	516	527	
14	0	0	0	0	519	530	
15	0	0	0	0	532	536	
0	0	0	0	0	529	540	
1	0	0	0	0	513	541	
2	0	0	0	0	503	541	
3	0	0	0	0	500	540	
4	0	0	0	0	487	537	
5	0	0	0	0	482	530	
6	0	0	0	0	490	525	
7	0	0	0	0	503	523	
8	0	0	0	0	510	523	
9	0	0	0	0	514	523	
10	0	0	0	0	517	524	
11	0	0	0	0	515	524	
12	0	0	0	0	518	524	
13	0	0	0	0	517	525	
14	0	0	0	0	515	526	
15	0	0	0	0	523	530	
0	0	0	0	0	530	536	
1	0	0	0	0	525	539	
2	0	0	0	0	510	540	
3	0	0	0	0	502	539	
4	0	0	0	0	501	537	
5	0	0	0	0	485	531	
6	0	0	0	0	480	526	
7	0	0	0	0	490	523	
8	0	0	0	0	506	521	
9	0	0	0	0	511	521	
10	0	0	0	0	514	521	
11	0	0	0	0	516	521	
12	0	0	0	0	514	520	
13	0	0	0	0	515	521	
14	0	0	0	0	516	523	
15	0	0	0	0	519	524	
0	0	0	0	0	527	529	
1	0	0	0	0	532	534	
2	0	0	0	0	520	537	
3	0	0	0	0	507	539	
4	0	0	0	0	502	538	
5	0	0	0	0	493	535	
6	0	0	0	0	486	529	
7	0	0	0	0	487	523	
8	0	0	0	0	497	519	
9	0	0	0	0	508	517	
10	0	0	0	0	513	517	
11	0	0	0	0	512	518	
12	0	0	0	0	516	518	
13	0	0	0	0	515	520	
14	0	0	0	0	515	522	
15	0	0	0	0	515	524	
0	0	0	0	0	517	527	
1	0	0	0	0	529	532	
2	0	0	0	0	531	537	
3	0	0	0	0	515	539	
4	0	0	0	0	503	539	
5	0	0	0	0	498	538	
6	0	0	0	0	487	534	
7	0	0	0	0	482	527	
8	0	0	0	0	488	522	
9	0	0	0	0	503	519	
10	0	0	0	0	512	518	
11	0	0	0	0	518	518	
12	0	0	0	0	518	518	
13	0	0	0	0	517	519	
14	0	0	0	0	513	521	
15	0	0	0	0	517	523	
0	0	0	0	0	517	523	
1	0	0	0	0	521	526	
2	0	0	0	0	533	531	
3	0	0	0	0	528	536	
4	0	0	0	0	511	536	
5	0	0	0	0	501	536	
6	0	0	0	0	498	534	
7	0	0	0	0	482	527	
8	0	0	0	0	480	522	
9	0	0	0	0	489	518	
10	0	0	0	0	505	516	
11	0	0	0	0	512	516	
12	0	0	0	0	515	516	
13	0	0	0	0	515	516	
14	0	0	0	0	518	516	
15	0	0	0	0	517	517	
0	0	0	0	0	515	518	
1	0	0	0	0	518	520	
2	0	0	0	0	527	525	
3	0	0	0	0	532	531	
4	0	0	0	0	521	534	
5	0	0	0	0	508	533	
6	0	0	0	0	501	532	
7	0	0	0	0	491	529	
8	0	0	0	0	486	523	
9	0	0	0	0	483	515	
10	0	0	0	0	496	511	
11	0	0	0	0	508	509	
12	0	0	0	0	513	509	
13	0	0	0	0	516	509	
14	0	0	0	0	516	509	
15	0	0	0	0	515	509	
0	0	0	0	0	516	510	
1	0	0	0	0	516	510	
2	0	0	0	0	519	513	
3	0	0	0	0	531	519	
4	0	0	0	0	528	524	
5	0	0	0	0	515	527	
6	0	0	0	0	505	526	
7	0	0	0	0	499	524	
8	0	0	0	0	487	519	
9	0	0	0	0	483	514	
10	0	0	0	0	487	509	
11	0	0	0	0	503	506	
12	0	0	0	0	508	506	
13	0	0	0	0	514	505	
14	0	0	0	0	516	505	
15	0	0	0	0	513	505	
0	0	0	0	0	516	505	
1	0	0	0	0	516	506	
2	0	0	0	0	516	506	
3	0	0	0	0	522	509	
4	0	0	0	0	533	514	
5	0	0	0	0	526	518	
6	0	0	0	0	508	519	
7	0	0	0	0	499	520	
8	0	0	0	0	496	519	
9	0	0	0	0	485	514	
10	0	0	0	0	482	507	
11	0	0	0	0	490	503	
12	0	0	0	0	504	501	
13	0	0	0	0	516	500	
14	0	0	0	0	517	500	
15	0	0	0	0	516	501	
0	0	0	0	0	515	502	
1	0	0	0	0	518	503	
2	0	0	0	0	517	504	
3	0	0	0	0	520	506	
4	0	0	0	0	529	510	
5	0	0	0	0	533	515	
6	0	0	0	0	519	518	
7	0	0	0	0	504	519	
8	0	0	0	0	501	518	
9	0	0	0	0	490	515	
10	0	0	0	0	479	508	
11	0	0	0	0	482	503	
12	0	0	0	0	496	499	
13	0	0	0	0	508	497	
14	0	0	0	0	514	496	
15	0	0	0	0	515	497	
0	0	0	0	0	516	498	
1	0	0	0	0	515	498	
2	0	0	0	0	515	499	
3	0	0	0	0	516	500	
4	0	0	0	0	519	503	
5	0	0	0	0	529	509	
6	0	0	0	0	530	514	
7	0	0	0	0	517	516	
8	0	0	0	0	504	516	
9	0	0	0	0	500	516	
10	0	0	0	0	488	512	
11	0	0	0	0	481	505	
12	0	0	0	0	490	500	
13	0	0	0	0	499	497	
14	0	0	0	0	511	497	
15	0	0	0	0	512	498	
0	0	0	0	0	517	499	
1	0	0	0	0	516	501	
2	0	0	0	0	517	502	
3	0	0	0	0	517	504	
4	0	0	0	0	516	504	
5	0	0	0	0	525	507	
6	0	0	0	0	532	513	
7	0	0	0	0	526	517	
8	0	0	0	0	510	518	
9	0	0	0	0	501	517	
10	0	0	0	0	496	515	
11	0	0	0	0	482	510	
12	0	0	0	0	480	502	
13	0	0	0	0	492	498	
14	0	0	0	0	505	497	
15	0	0	0	0	512	497	
0	0	0	0	0	517	497	
1	0	0	0	0	520	498	
2	0	0	0	0	519	499	
3	0	0	0	0	516	499	
4	0	0	0	0	516	501	
5	0	0	0	0	518	504	
6	0	0	0	0	527	506	
7	0	0	0	0	532	511	
8	0	0	0	0	521	515	
9	0	0	0	0	508	515	
10	0	0	0	0	501	514	
11	0	0	0	0	490	512	
12	0	0	0	0	483	505	
13	0	0	0	0	482	499	
14	0	0	0	0	497	496	
15	0	0	0	0	509	494	
0	0	0	0	0	516	493	
1	0	0	0	0	515	493	
2	0	0	0	0	514	493	
3	0	0	0	0	515	494	
4	0	0	0	0	518	495	
5	0	0	0	0	517	496	
6	0	0	0	0	519	498	
7	0	0	0	0	527	505	
8	0	0	0	0	532	511	
9	0	0	0	0	515	513	
10	0	0	0	0	501	513	
11	0	0	0	0	499	513	
12	0	0	0	0	489	509	
13	0	0	0	0	478	503	
14	0	0	0	0	481	499	
15	0	0	0	0	497	496	
0	0	0	0	0	507	497	
1	0	0	0	0	513	498	
2	0	0	0	0	516	498	
3	0	0	0	0	515	499	
4	0	0	0	0	512	499	
5	0	0	0	0	516	501	
6	0	0	0	0	517	502	
7	0	0	0	0	524	504	
8	0	0	0	0	534	508	
9	0	0	0	0	527	512	
10	0	0	0	0	510	513	
11	0	0	0	0	498	512	
12	0	0	0	0	495	512	
13	0	0	0	0	481	507	
14	0	0	0	0	480	499	
15	0	0	0	0	492	495	
0	0	0	0	0	505	492	
1	0	0	0	0	513	492	
2	0	0	0	0	518	494	
3	0	0	0	0	519	494	
4	0	0	0	0	518	495	
5	0	0	0	0	519	496	
6	0	0	0	0	520	498	
7	0	0	0	0	519	500	
8	0	0	0	0	526	505	
9	0	0	0	0	533	511	
10	0	0	0	0	524	515	
11	0	0	0	0	507	515	
12	0	0	0	0	501	514	
13	0	0	0	0	489	512	
14	0	0	0	0	484	506	
15	0	0	0	0	483	499	
0	0	0	0	0	498	496	
1	0	0	0	0	513	496	
2	0	0	0	0	520	497	
3	0	0	0	0	520	498	
4	0	0	0	0	523	499	
5	0	0	0	0	519	500	
6	0	0	0	0	518	503	
7	0	0	0	0	515	505	
8	0	0	0	0	516	508	
9	0	0	0	0	529	515	
10	0	0	0	0	530	521	
11	0	0	0	0	516	525	
12	0	0	0	0	504	525	
13	0	0	0	0	499	525	
14	0	0	0	0	487	523	
15	0	0	0	0	480	516	
0	0	0	0	0	489	511	
1	0	0	0	0	503	509	
2	0	0	0	0	513	508	
3	0	0	0	0	519	508	
4	0	0	0	0	516	509	
5	0	0	0	0	516	510	
6	0	0	0	0	515	510	
7	0	0	0	0	519	511	
8	0	0	0	0	519	511	
9	0	0	0	0	524	516	
10	0	0	0	0	532	521	
11	0	0	0	0	528	526	
12	0	0	0	0	512	527	
13	0	0	0	0	501	527	
14	0	0	0	0	498	525	
15	0	0	0	0	481	520	
0	0	0	0	0	480	512	
1	0	0	0	0	489	506	
2	0	0	0	0	504	504	
3	0	0	0	0	513	502	
4	0	0	0	0	515	502	
5	0	0	0	0	515	501	
6	0	0	0	0	515	502	
7	0	0	0	0	516	502	
8	0	0	0	0	514	502	
9	0	0	0	0	514	503	
10	0	0	0	0	526	506	
11	0	0	0	0	532	511	
12	0	0	0	0	523	513	
13	0	0	0	0	506	513	
14	0	0	0	0	502	512	
15	0	0	0	0	493	510	
0	0	0	0	0	477	502	
1	0	0	0	0	481	497	
2	0	0	0	0	494	492	
3	0	0	0	0	508	491	
4	0	0	0	0	515	489	
5	0	0	0	0	515	490	
6	0	0	0	0	516	491	
7	0	0	0	0	515	492	
8	0	0	0	0	516	493	
9	0	0	0	0	518	494	
10	0	0	0	0	519	496	
11	0	0	0	0	529	503	
12	0	0	0	0	531	508	
13	0	0	0	0	518	511	
14	0	0	0	0	502	510	
15	0	0	0	0	501	508	
0	0	0	0	0	487	504	
1	0	0	0	0	480	497	
2	0	0	0	0	487	491	
3	0	0	0	0	499	487	
4	0	0	0	0	511	486	
5	0	0	0	0	515	487	
6	0	0	0	0	518	489	
7	0	0	0	0	519	489	
8	0	0	0	0	515	490	
9	0	0	0	0	516	491	
10	0	0	0	0	515	492	
11	0	0	0	0	519	497	
12	0	0	0	0	531	503	
13	0	0	0	0	529	507	
14	0	0	0	0	511	509	
15	0	0	0	0	502	509	
0	0	0	0	0	499	508	
1	0	0	0	0	485	503	
2	0	0	0	0	479	495	
3	0	0	0	0	491	491	
4	0	0	0	0	504	489	
5	0	0	0	0	512	489	
6	0	0	0	0	515	491	
7	0	0	0	0	516	492	
8	0	0	0	0	516	494	
9	0	0	0	0	517	494	
10	0	0	0	0	519	495	
11	0	0	0	0	517	496	
12	0	0	0	0	524	502	
13	0	0	0	0	528	509	
14	0	0	0	0	518	512	
15	0	0	0	0	504	515	
0	0	0	0	0	495	517	
1	0	0	0	0	484	517	
2	0	0	0	0	476	512	
3	0	0	0	0	470	506	
4	0	0	0	0	481	504	
5	0	0	0	0	492	504	
6	0	0	0	0	501	505	
7	0	0	0	0	504	507	
8	0	0	0	0	505	509	
9	0	0	0	0	507	512	
10	0	0	0	0	513	517	
11	0	0	0	0	513	520	
12	0	0	0	0	516	525	
13	0	0	0	0	532	535	
14	0	0	0	0	541	543	
15	0	0	0	0	525	549	
0	0	0	0	0	514	553	
1	0	0	0	0	507	557	
2	0	0	0	0	495	556	
3	0	0	0	0	496	553	
4	0	0	0	0	504	548	
5	0	0	0	0	522	547	
6	0	0	0	0	539	549	
7	0	0	0	0	541	551	
8	0	0	0	0	537	553	
9	0	0	0	0	536	554	
10	0	0	0	0	536	552	
11	0	0	0	0	536	550	
12	0	0	0	0	536	546	
13	0	0	0	0	543	543	
14	0	0	0	0	548	541	
15	0	0	0	0	543	536	
0	0	0	0	0	520	529	
1	0	0	0	0	507	519	
2	0	0	0	0	496	509	
3	0	0	0	0	477	497	
4	0	0	0	0	477	482	
5	0	0	0	0	486	472	
6	0	0	0	0	505	467	
7	0	0	0	0	514	465	
8	0	0	0	0	511	464	
9	0	0	0	0	504	463	
10	0	0	0	0	503	462	
11	0	0	0	0	499	460	
12	0	0	0	0	495	457	
13	0	0	0	0	496	452	
14	0	0	0	0	505	450	
15	0	0	0	0	512	449	
0	0	0	0	0	506	446	
1	0	0	0	0	494	441	
2	0	0	0	0	491	437	
3	0	0	0	0	487	431	
4	0	0	0	0	483	423	
5	0	0	0	0	483	416	
6	0	0	0	0	495	413	
7	0	0	0	0	509	415	
8	0	0	0	0	515	417	
9	0	0	0	0	519	420	
10	0	0	0	0	520	422	
11	0	0	0	0	521	424	
12	0	0	0	0	520	427	
13	0	0	0	0	518	431	
14	0	0	0	0	520	436	
15	0	0	0	0	534	444	
0	0	0	0	0	534	452	
1	0	0	0	0	519	457	
2	0	0	0	0	504	461	
3	0	0	0	0	497	465	
4	0	0	0	0	483	465	
5	0	0	0	0	476	460	
6	0	0	0	0	481	457	
7	0	0	0	0	494	458	
8	0	0	0	0	503	460	
9	0	0	0	0	508	463	
10	0	0	0	0	510	466	
11	0	0	0	0	508	470	
12	0	0	0	0	507	474	
13	0	0	0	0	507	480	
14	0	0	0	0	508	485	
15	0	0	0	0	516	492	
0	0	0	0	0	526	502	
1	0	0	0	0	526	508	
2	0	0	0	0	509	512	
3	0	0	0	0	499	513	
4	0	0	0	0	497	513	
5	0	0	0	0	485	509	
6	0	0	0	0	480	503	
7	0	0	0	0	492	500	
8	0	0	0	0	507	499	
9	0	0	0	0	515	499	
10	0	0	0	0	520	501	
11	0	0	0	0	521	502	
12	0	0	0	0	520	504	
13	0	0	0	0	521	507	
14	0	0	0	0	520	510	
15	0	0	0	0	523	512	
0	0	0	0	0	531	516	
1	0	0	0	0	535	522	
2	0	0	0	0	526	526	
3	0	0	0	0	509	527	
4	0	0	0	0	505	526	
5	0	0	0	0	499	523	
6	0	0	0	0	483	515	
7	0	0	0	0	483	510	
8	0	0	0	0	497	507	
9	0	0	0	0	508	506	
10	0	0	0	0	515	507	
11	0	0	0	0	518	508	
12	0	0	0	0	519	510	
13	0	0	0	0	517	510	
14	0	0	0	0	516	512	
15	0	0	0	0	516	514	
0	0	0	0	0	519	518	
1	0	0	0	0	531	523	
2	0	0	0	0	536	528	
3	0	0	0	0	521	531	
4	0	0	0	0	506	531	
5	0	0	0	0	501	529	
6	0	0	0	0	487	525	
7	0	0	0	0	481	518	
8	0	0	0	0	484	512	
9	0	0	0	0	498	509	
10	0	0	0	0	510	509	
11	0	0	0	0	517	510	
12	0	0	0	0	520	512	
13	0	0	0	0	517	512	
14	0	0	0	0	517	513	
15	0	0	0	0	513	515	
0	0	0	0	0	513	516	
1	0	0	0	0	520	521	
2	0	0	0	0	530	527	
3	0	0	0	0	529	531	
4	0	0	0	0	512	532	
5	0	0	0	0	500	531	
6	0	0	0	0	499	530	
7	0	0	0	0	484	525	
8	0	0	0	0	480	516	
9	0	0	0	0	488	512	
10	0	0	0	0	504	510	
11	0	0	0	0	514	510	
12	0	0	0	0	518	511	
13	0	0	0	0	519	512	
14	0	0	0	0	516	513	
15	0	0	0	0	516	514	
0	0	0	0	0	516	515	
1	0	0	0	0	517	517	
2	0	0	0	0	526	521	
3	0	0	0	0	531	526	
4	0	0	0	0	523	530	
5	0	0	0	0	507	531	
6	0	0	0	0	500	531	
7	0	0	0	0	493	530	
8	0	0	0	0	483	524	
9	0	0	0	0	481	518	
10	0	0	0	0	495	515	
11	0	0	0	0	507	513	
12	0	0	0	0	515	512	
13	0	0	0	0	518	512	
14	0	0	0	0	519	514	
15	0	0	0	0	515	515	
0	0	0	0	0	515	516	
1	0	0	0	0	517	518	
2	0	0	0	0	518	521	
3	0	0	0	0	530	527	
4	0	0	0	0	531	532	
5	0	0	0	0	516	535	
6	0	0	0	0	504	534	
7	0	0	0	0	501	534	
8	0	0	0	0	489	530	
9	0	0	0	0	480	524	
10	0	0	0	0	484	518	
11	0	0	0	0	499	515	
12	0	0	0	0	509	516	
13	0	0	0	0	515	518	
14	0	0	0	0	515	519	
15	0	0	0	0	517	520	
0	0	0	0	0	516	520	
1	0	0	0	0	518	521	
2	0	0	0	0	515	522	
3	0	0	0	0	517	525	
4	0	0	0	0	530	531	
5	0	0	0	0	529	535	
6	0	0	0	0	513	537	
7	0	0	0	0	502	536	
8	0	0	0	0	499	536	
9	0	0	0	0	486	530	
10	0	0	0	0	481	524	
11	0	0	0	0	487	519	
12	0	0	0	0	506	518	
13	0	0	0	0	512	518	
14	0	0	0	0	515	519	
15	0	0	0	0	518	519	
0	0	0	0	0	515	521	
1	0	0	0	0	516	521	
2	0	0	0	0	515	522	
3	0	0	0	0	517	524	
4	0	0	0	0	526	528	
5	0	0	0	0	531	535	
6	0	0	0	0	524	539	
7	0	0	0	0	508	540	
8	0	0	0	0	501	540	
9	0	0	0	0	495	537	
10	0	0	0	0	480	531	
11	0	0	0	0	480	525	
12	0	0	0	0	493	520	
13	0	0	0	0	508	519	
14	0	0	0	0	515	521	
15	0	0	0	0	516	523	
0	0	0	0	0	519	525	
1	0	0	0	0	515	526	
2	0	0	0	0	515	527	
3	0	0	0	0	515	529	
4	0	0	0	0	518	531	
5	0	0	0	0	527	537	
6	0	0	0	0	534	543	
7	0	0	0	0	519	546	
8	0	0	0	0	505	546	
9	0	0	0	0	499	545	
10	0	0	0	0	487	541	
11	0	0	0	0	480	535	
12	0	0	0	0	483	529	
13	0	0	0	0	500	527	
14	0	0	0	0	512	526	
15	0	0	0	0	515	527	
0	0	0	0	0	516	529	
1	0	0	0	0	517	530	
2	0	0	0	0	515	532	
3	0	0	0	0	514	535	
4	0	0	0	0	515	537	
5	0	0	0	0	519	541	
6	0	0	0	0	532	547	
7	0	0	0	0	530	552	
8	0	0	0	0	511	554	
9	0	0	0	0	501	553	
10	0	0	0	0	499	552	
11	0	0	0	0	484	548	
12	0	0	0	0	479	541	
13	0	0	0	0	488	536	
14	0	0	0	0	504	535	
15	0	0	0	0	514	535	
0	0	0	0	0	515	536	
1	0	0	0	0	516	537	
2	0	0	0	0	518	539	
3	0	0	0	0	518	540	
4	0	0	0	0	517	541	
5	0	0	0	0	515	543	
6	0	0	0	0	523	548	
7	0	0	0	0	531	553	
8	0	0	0	0	527	557	
9	0	0	0	0	509	558	
10	0	0	0	0	502	557	
11	0	0	0	0	495	554	
12	0	0	0	0	481	548	
13	0	0	0	0	481	541	
14	0	0	0	0	493	537	
15	0	0	0	0	508	535	
0	0	0	0	0	515	534	
1	0	0	0	0	517	534	
2	0	0	0	0	518	535	
3	0	0	0	0	515	536	
4	0	0	0	0	517	536	
5	0	0	0	0	516	537	
6	0	0	0	0	516	539	
7	0	0	0	0	530	543	
8	0	0	0	0	532	548	
9	0	0	0	0	518	549	
10	0	0	0	0	502	549	
11	0	0	0	0	499	548	
12	0	0	0	0	490	545	
13	0	0	0	0	483	535	
14	0	0	0	0	485	529	
15	0	0	0	0	498	525	
0	0	0	0	0	513	524	
1	0	0	0	0	513	524	
2	0	0	0	0	518	525	
3	0	0	0	0	518	526	
4	0	0	0	0	518	526	
5	0	0	0	0	518	525	
6	0	0	0	0	516	525	
7	0	0	0	0	519	527	
8	0	0	0	0	531	534	
9	0	0	0	0	527	537	
10	0	0	0	0	511	539	
11	0	0	0	0	502	537	
12	0	0	0	0	499	535	
13	0	0	0	0	483	529	
14	0	0	0	0	483	521	
15	0	0	0	0	491	514	
0	0	0	0	0	506	511	
1	0	0	0	0	513	510	
2	0	0	0	0	516	509	
3	0	0	0	0	519	509	
4	0	0	0	0	519	510	
5	0	0	0	0	519	509	
6	0	0	0	0	517	510	
7	0	0	0	0	518	510	
8	0	0	0	0	521	512	
9	0	0	0	0	535	516	
10	0	0	0	0	525	518	
11	0	0	0	0	506	518	
12	0	0	0	0	500	516	
13	0	0	0	0	498	513	
14	0	0	0	0	481	505	
15	0	0	0	0	482	498	
0	0	0	0	0	493	493	
1	0	0	0	0	506	491	
2	0	0	0	0	514	490	
3	0	0	0	0	520	489	
4	0	0	0	0	517	490	
5	0	0	0	0	518	491	
6	0	0	0	0	519	491	
7	0	0	0	0	516	491	
8	0	0	0	0	519	492	
9	0	0	0	0	528	496	
10	0	0	0	0	532	502	
11	0	0	0	0	518	504	
12	0	0	0	0	504	503	
13	0	0	0	0	503	500	
14	0	0	0	0	490	496	
15	0	0	0	0	482	489	
0	0	0	0	0	484	482	
1	0	0	0	0	497	480	
2	0	0	0	0	512	479	
3	0	0	0	0	517	478	
4	0	0	0	0	517	477	
5	0	0	0	0	515	476	
6	0	0	0	0	514	477	
7	0	0	0	0	516	478	
8	0	0	0	0	516	479	
9	0	0	0	0	519	481	
10	0	0	0	0	531	487	
11	0	0	0	0	532	491	
12	0	0	0	0	512	493	
13	0	0	0	0	502	493	
14	0	0	0	0	501	491	
15	0	0	0	0	486	485	
0	0	0	0	0	482	476	
1	0	0	0	0	489	470	
2	0	0	0	0	503	466	
3	0	0	0	0	514	465	
4	0	0	0	0	516	466	
5	0	0	0	0	516	466	
6	0	0	0	0	516	469	
7	0	0	0	0	518	470	
8	0	0	0	0	517	471	
9	0	0	0	0	516	472	
10	0	0	0	0	525	476	
11	0	0	0	0	532	482	
12	0	0	0	0	522	487	
13	0	0	0	0	507	488	
14	0	0	0	0	500	488	
15	0	0	0	0	496	486	
0	0	0	0	0	483	480	
1	0	0	0	0	481	473	
2	0	0	0	0	492	469	
3	0	0	0	0	507	467	
4	0	0	0	0	511	467	
5	0	0	0	0	516	469	
6	0	0	0	0	516	470	
7	0	0	0	0	517	471	
8	0	0	0	0	516	472	
9	0	0	0	0	512	473	
10	0	0	0	0	515	476	
11	0	0	0	0	525	480	
12	0	0	0	0	530	486	
13	0	0	0	0	519	489	
14	0	0	0	0	505	489	
15	0	0	0	0	498	489	
0	0	0	0	0	489	486	
1	0	0	0	0	481	479	
2	0	0	0	0	483	472	
3	0	0	0	0	498	469	
4	0	0	0	0	511	468	
5	0	0	0	0	516	469	
6	0	0	0	0	519	471	
7	0	0	0	0	518	471	
8	0	0	0	0	519	471	
9	0	0	0	0	519	472	
10	0	0	0	0	516	474	
11	0	0	0	0	520	478	
12	0	0	0	0	531	486	
13	0	0	0	0	529	492	
14	0	0	0	0	512	494	
15	0	0	0	0	502	493	
0	0	0	0	0	499	492	
1	0	0	0	0	486	489	
2	0	0	0	0	483	481	
3	0	0	0	0	486	475	
4	0	0	0	0	500	474	
5	0	0	0	0	512	475	
6	0	0	0	0	519	475	
7	0	0	0	0	517	476	
8	0	0	0	0	517	477	
9	0	0	0	0	519	478	
10	0	0	0	0	518	480	
11	0	0	0	0	514	482	
12	0	0	0	0	523	487	
13	0	0	0	0	532	494	
14	0	0	0	0	525	499	
15	0	0	0	0	511	499	
0	0	0	0	0	502	498	
1	0	0	0	0	495	497	
2	0	0	0	0	480	489	
3	0	0	0	0	481	482	
4	0	0	0	0	490	478	
5	0	0	0	0	506	477	
6	0	0	0	0	515	477	
7	0	0	0	0	518	478	
8	0	0	0	0	518	478	
9	0	0	0	0	517	479	
10	0	0	0	0	517	481	
11	0	0	0	0	518	483	
12	0	0	0	0	515	486	
13	0	0	0	0	527	493	
14	0	0	0	0	533	499	
15	0	0	0	0	521	502	
0	0	0	0	0	507	501	
1	0	0	0	0	503	500	
2	0	0	0	0	487	496	
3	0	0	0	0	479	490	
4	0	0	0	0	480	483	
5	0	0	0	0	494	480	
6	0	0	0	0	508	479	
7	0	0	0	0	515	478	
8	0	0	0	0	521	478	
9	0	0	0	0	519	479	
10	0	0	0	0	519	481	
11	0	0	0	0	519	484	
12	0	0	0	0	518	486	
13	0	0	0	0	520	489	
14	0	0	0	0	532	495	
15	0	0	0	0	531	501	
0	0	0	0	0	512	504	
1	0	0	0	0	499	503	
2	0	0	0	0	496	502	
3	0	0	0	0	484	497	
4	0	0	0	0	478	488	
5	0	0	0	0	487	482	
6	0	0	0	0	499	480	
7	0	0	0	0	512	479	
8	0	0	0	0	516	479	
9	0	0	0	0	520	480	
10	0	0	0	0	517	481	
11	0	0	0	0	518	483	
12	0	0	0	0	521	487	
13	0	0	0	0	517	489	
14	0	0	0	0	525	494	
15	0	0	0	0	534	500	
0	0	0	0	0	527	505	
1	0	0	0	0	509	506	
2	0	0	0	0	498	506	
3	0	0	0	0	495	504	
4	0	0	0	0	479	499	
5	0	0	0	0	480	491	
6	0	0	0	0	491	485	
7	0	0	0	0	505	483	
8	0	0	0	0	513	483	
9	0	0	0	0	515	485	
10	0	0	0	0	519	487	
11	0	0	0	0	518	488	
12	0	0	0	0	519	489	
13	0	0	0	0	519	491	
14	0	0	0	0	521	494	
15	0	0	0	0	530	498	
0	0	0	0	0	534	505	
1	0	0	0	0	519	508	
2	0	0	0	0	502	509	
3	0	0	0	0	498	508	
4	0	0	0	0	489	504	
5	0	0	0	0	476	498	
6	0	0	0	0	481	490	
7	0	0	0	0	497	485	
8	0	0	0	0	509	484	
9	0	0	0	0	513	483	
10	0	0	0	0	518	485	
11	0	0	0	0	519	486	
12	0	0	0	0	519	487	
13	0	0	0	0	517	490	
14	0	0	0	0	518	492	
15	0	0	0	0	521	497	
0	0	0	0	0	534	503	
1	0	0	0	0	531	509	
2	0	0	0	0	511	511	
3	0	0	0	0	502	511	
4	0	0	0	0	495	509	
5	0	0	0	0	484	504	
6	0	0	0	0	483	495	
7	0	0	0	0	484	489	
8	0	0	0	0	499	487	
9	0	0	0	0	510	487	
10	0	0	0	0	514	487	
11	0	0	0	0	521	489	
12	0	0	0	0	520	491	
13	0	0	0	0	518	492	
14	0	0	0	0	519	494	
15	0	0	0	0	519	496	
0	0	0	0	0	526	500	
1	0	0	0	0	535	507	
2	0	0	0	0	526	511	
3	0	0	0	0	508	512	
4	0	0	0	0	499	511	
5	0	0	0	0	495	509	
6	0	0	0	0	480	503	
7	0	0	0	0	478	496	
8	0	0	0	0	489	490	
9	0	0	0	0	504	488	
10	0	0	0	0	512	487	
11	0	0	0	0	518	487	
12	0	0	0	0	521	488	
13	0	0	0	0	520	488	
14	0	0	0	0	518	490	
15	0	0	0	0	520	493	
0	0	0	0	0	521	496	
1	0	0	0	0	529	502	
2	0	0	0	0	532	506	
3	0	0	0	0	519	510	
4	0	0	0	0	504	510	
5	0	0	0	0	497	509	
6	0	0	0	0	488	505	
7	0	0	0	0	478	499	
8	0	0	0	0	481	492	
9	0	0	0	0	492	489	
10	0	0	0	0	507	487	
11	0	0	0	0	513	487	
12	0	0	0	0	518	489	
13	0	0	0	0	519	491	
14	0	0	0	0	518	492	
15	0	0	0	0	521	493	
0	0	0	0	0	523	495	
1	0	0	0	0	522	498	
2	0	0	0	0	533	504	
3	0	0	0	0	530	511	
4	0	0	0	0	515	514	
5	0	0	0	0	501	513	
6	0	0	0	0	498	512	
7	0	0	0	0	483	508	
8	0	0	0	0	475	499	
9	0	0	0	0	485	494	
10	0	0	0	0	498	490	
11	0	0	0	0	509	489	
12	0	0	0	0	515	491	
13	0	0	0	0	519	492	
14	0	0	0	0	520	494	
15	0	0	0	0	517	495	
0	0	0	0	0	520	496	
1	0	0	0	0	519	499	
2	0	0	0	0	526	502	
3	0	0	0	0	534	508	
4	0	0	0	0	528	514	
5	0	0	0	0	509	515	
6	0	0	0	0	499	515	
7	0	0	0	0	496	512	
8	0	0	0	0	479	506	
9	0	0	0	0	479	498	
10	0	0	0	0	489	492	
11	0	0	0	0	504	489	
12	0	0	0	0	511	489	
13	0	0	0	0	518	489	
14	0	0	0	0	521	491	
15	0	0	0	0	518	492	
0	0	0	0	0	518	495	
1	0	0	0	0	519	497	
2	0	0	0	0	522	501	
3	0	0	0	0	528	507	
4	0	0	0	0	535	512	
5	0	0	0	0	520	515	
6	0	0	0	0	505	515	
7	0	0	0	0	498	514	
8	0	0	0	0	488	512	
9	0	0	0	0	476	504	
10	0	0	0	0	481	499	
11	0	0	0	0	492	495	
12	0	0	0	0	509	492	
13	0	0	0	0	517	491	
14	0	0	0	0	519	492	
15	0	0	0	0	519	493	
0	0	0	0	0	516	494	
1	0	0	0	0	517	496	
2	0	0	0	0	518	499	
3	0	0	0	0	521	503	
4	0	0	0	0	532	509	
5	0	0	0	0	531	514	
6	0	0	0	0	515	517	
7	0	0	0	0	500	517	
8	0	0	0	0	498	517	
9	0	0	0	0	484	513	
10	0	0	0	0	480	505	
11	0	0	0	0	484	499	
12	0	0	0	0	500	495	
13	0	0	0	0	510	495	
14	0	0	0	0	516	494	
15	0	0	0	0	519	495	
0	0	0	0	0	517	497	
1	0	0	0	0	519	499	
2	0	0	0	0	520	501	
3	0	0	0	0	519	504	
4	0	0	0	0	523	508	
5	0	0	0	0	533	515	
6	0	0	0	0	524	519	
7	0	0	0	0	506	520	
8	0	0	0	0	499	520	
9	0	0	0	0	496	519	
10	0	0	0	0	481	514	
11	0	0	0	0	477	505	
12	0	0	0	0	489	499	
13	0	0	0	0	505	497	
14	0	0	0	0	513	497	
15	0	0	0	0	519	499	
0	0	0	0	0	521	500	
1	0	0	0	0	519	502	
2	0	0	0	0	519	503	
3	0	0	0	0	519	504	
4	0	0	0	0	519	506	
5	0	0	0	0	527	511	
6	0	0	0	0	534	517	
7	0	0	0	0	520	521	
8	0	0	0	0	507	523	
9	0	0	0	0	499	522	
10	0	0	0	0	487	518	
11	0	0	0	0	478	509	
12	0	0	0	0	477	501	
13	0	0	0	0	493	497	
14	0	0	0	0	506	496	
15	0	0	0	0	516	497	
0	0	0	0	0	517	499	
1	0	0	0	0	518	500	
2	0	0	0	0	520	502	
3	0	0	0	0	520	504	
4	0	0	0	0	517	505	
5	0	0	0	0	516	509	
6	0	0	0	0	530	515	
7	0	0	0	0	530	521	
8	0	0	0	0	513	524	
9	0	0	0	0	501	524	
10	0	0	0	0	498	524	
11	0	0	0	0	481	519	
12	0	0	0	0	475	511	
13	0	0	0	0	482	506	
14	0	0	0	0	497	503	
15	0	0	0	0	511	504	
0	0	0	0	0	516	505	
1	0	0	0	0	521	505	
2	0	0	0	0	521	505	
3	0	0	0	0	520	505	
4	0	0	0	0	521	507	
5	0	0	0	0	519	509	
6	0	0	0	0	523	513	
7	0	0	0	0	536	521	
8	0	0	0	0	531	526	
9	0	0	0	0	511	527	
10	0	0	0	0	501	527	
11	0	0	0	0	492	525	
12	0	0	0	0	481	519	
13	0	0	0	0	478	511	
14	0	0	0	0	487	507	
15	0	0	0	0	504	506	
0	0	0	0	0	514	505	
1	0	0	0	0	516	507	
2	0	0	0	0	521	507	
3	0	0	0	0	519	508	
4	0	0	0	0	521	509	
5	0	0	0	0	523	510	
6	0	0	0	0	519	514	
7	0	0	0	0	531	520	
8	0	0	0	0	536	527	
9	0	0	0	0	522	531	
10	0	0	0	0	505	532	
11	0	0	0	0	502	533	
12	0	0	0	0	491	530	
13	0	0	0	0	476	522	
14	0	0	0	0	479	516	
15	0	0	0	0	491	512	
0	0	0	0	0	507	510	
1	0	0	0	0	518	511	
2	0	0	0	0	517	512	
3	0	0	0	0	517	513	
4	0	0	0	0	518	513	
5	0	0	0	0	520	514	
6	0	0	0	0	519	515	
7	0	0	0	0	519	518	
8	0	0	0	0	533	524	
9	0	0	0	0	533	529	
10	0	0	0	0	516	533	
11	0	0	0	0	502	533	
12	0	0	0	0	499	531	
13	0	0	0	0	483	527	
14	0	0	0	0	480	519	
15	0	0	0	0	484	511	
0	0	0	0	0	498	508	
1	0	0	0	0	508	507	
2	0	0	0	0	515	508	
3	0	0	0	0	518	509	
4	0	0	0	0	520	511	
5	0	0	0	0	519	512	
6	0	0	0	0	519	513	
7	0	0	0	0	519	515	
8	0	0	0	0	524	519	
9	0	0	0	0	536	525	
10	0	0	0	0	528	529	
11	0	0	0	0	509	530	
12	0	0	0	0	500	529	
13	0	0	0	0	496	527	
14	0	0	0	0	478	520	
15	0	0	0	0	476	512	
0	0	0	0	0	485	505	
1	0	0	0	0	504	501	
2	0	0	0	0	512	500	
3	0	0	0	0	519	500	
4	0	0	0	0	519	500	
5	0	0	0	0	519	502	
6	0	0	0	0	516	503	
7	0	0	0	0	518	505	
8	0	0	0	0	520	508	
9	0	0	0	0	528	514	
10	0	0	0	0	533	521	
11	0	0	0	0	524	525	
12	0	0	0	0	507	526	
13	0	0	0	0	499	525	
14	0	0	0	0	491	521	
15	0	0	0	0	478	514	
0	0	0	0	0	478	505	
1	0	0	0	0	492	500	
2	0	0	0	0	506	499	
3	0	0	0	0	511	498	
4	0	0	0	0	518	499	
5	0	0	0	0	520	499	
6	0	0	0	0	521	500	
7	0	0	0	0	520	502	
8	0	0	0	0	518	502	
9	0	0	0	0	517	504	
10	0	0	0	0	529	511	
11	0	0	0	0	529	516	
12	0	0	0	0	512	520	
13	0	0	0	0	500	520	
14	0	0	0	0	496	519	
15	0	0	0	0	484	515	
0	0	0	0	0	478	508	
1	0	0	0	0	484	502	
2	0	0	0	0	500	499	
3	0	0	0	0	512	498	
4	0	0	0	0	519	498	
5	0	0	0	0	518	499	
6	0	0	0	0	519	501	
7	0	0	0	0	518	502	
8	0	0	0	0	519	504	
9	0	0	0	0	518	505	
10	0	0	0	0	526	509	
11	0	0	0	0	535	516	
12	0	0	0	0	529	521	
13	0	0	0	0	506	523	
14	0	0	0	0	499	523	
15	0	0	0	0	495	521	
0	0	0	0	0	479	516	
1	0	0	0	0	478	507	
2	0	0	0	0	484	503	
3	0	0	0	0	500	502	
4	0	0	0	0	507	503	
5	0	0	0	0	510	506	
6	0	0	0	0	511	508	
7	0	0	0	0	510	510	
8	0	0	0	0	508	513	
9	0	0	0	0	509	515	
10	0	0	0	0	505	518	
11	0	0	0	0	514	525	
12	0	0	0	0	523	534	
13	0	0	0	0	515	539	
14	0	0	0	0	498	541	
15	0	0	0	0	496	543	
0	0	0	0	0	491	544	
1	0	0	0	0	483	539	
2	0	0	0	0	487	534	
3	0	0	0	0	499	533	
4	0	0	0	0	515	535	
5	0	0	0	0	526	537	
6	0	0	0	0	531	540	
7	0	0	0	0	533	543	
8	0	0	0	0	535	546	
9	0	0	0	0	537	550	
10	0	0	0	0	540	554	
11	0	0	0	0	538	559	
12	0	0	0	0	549	566	
13	0	0	0	0	548	569	
14	0	0	0	0	528	568	
15	0	0	0	0	514	562	
0	0	0	0	0	511	556	
1	0	0	0	0	498	545	
2	0	0	0	0	491	529	
3	0	0	0	0	497	514	
4	0	0	0	0	504	502	
5	0	0	0	0	511	492	
6	0	0	0	0	511	485	
7	0	0	0	0	509	480	
8	0	0	0	0	514	475	
9	0	0	0	0	516	471	
10	0	0	0	0	521	470	
11	0	0	0	0	520	470	
12	0	0	0	0	525	474	
13	0	0	0	0	531	481	
14	0	0	0	0	515	485	
15	0	0	0	0	497	485	
0	0	0	0	0	486	481	
1	0	0	0	0	480	476	
2	0	0	0	0	461	467	
3	0	0	0	0	461	452	
4	0	0	0	0	472	440	
5	0	0	0	0	490	432	
6	0	0	0	0	505	428	
7	0	0	0	0	512	425	
8	0	0	0	0	514	426	
9	0	0	0	0	512	428	
10	0	0	0	0	519	431	
11	0	0	0	0	523	435	
12	0	0	0	0	523	440	
13	0	0	0	0	531	448	
14	0	0	0	0	537	457	
15	0	0	0	0	527	462	
0	0	0	0	0	507	464	
1	0	0	0	0	502	464	
2	0	0	0	0	497	464	
3	0	0	0	0	483	459	
4	0	0	0	0	480	453	
5	0	0	0	0	495	450	
6	0	0	0	0	510	451	
7	0	0	0	0	518	454	
8	0	0	0	0	522	457	
9	0	0	0	0	520	460	
10	0	0	0	0	519	463	
11	0	0	0	0	517	468	
12	0	0	0	0	515	472	
13	0	0	0	0	518	477	
14	0	0	0	0	526	487	
15	0	0	0	0	528	496	
0	0	0	0	0	511	502	
1	0	0	0	0	495	504	
2	0	0	0	0	491	505	
3	0	0	0	0	476	504	
4	0	0	0	0	469	498	
5	0	0	0	0	477	494	
6	0	0	0	0	492	492	
7	0	0	0	0	507	493	
8	0	0	0	0	512	496	
9	0	0	0	0	514	498	
10	0	0	0	0	515	501	
11	0	0	0	0	516	504	
12	0	0	0	0	519	508	
13	0	0	0	0	518	512	
14	0	0	0	0	523	517	
15	0	0	0	0	536	525	
0	0	0	0	0	531	531	
1	0	0	0	0	513	534	
2	0	0	0	0	504	534	
3	0	0	0	0	500	533	
4	0	0	0	0	484	529	
5	0	0	0	0	479	520	
6	0	0	0	0	489	515	
7	0	0	0	0	507	513	
8	0	0	0	0	516	512	
9	0	0	0	0	521	513	
10	0	0	0	0	522	515	
11	0	0	0	0	521	515	
12	0	0	0	0	522	517	
13	0	0	0	0	519	519	
14	0	0	0	0	520	521	
15	0	0	0	0	529	526	
0	0	0	0	0	538	533	
1	0	0	0	0	526	538	
2	0	0	0	0	504	539	
3	0	0	0	0	498	539	
4	0	0	0	0	492	537	
5	0	0	0	0	479	530	
6	0	0	0	0	476	522	
7	0	0	0	0	490	518	
8	0	0	0	0	508	517	
9	0	0	0	0	517	517	
10	0	0	0	0	519	518	
11	0	0	0	0	520	518	
12	0	0	0	0	522	518	
13	0	0	0	0	520	519	
14	0	0	0	0	520	521	
15	0	0	0	0	518	524	
0	0	0	0	0	532	531	
1	0	0	0	0	533	536	
2	0	0	0	0	518	539	
3	0	0	0	0	502	539	
4	0	0	0	0	494	539	
5	0	0	0	0	485	536	
6	0	0	0	0	478	528	
7	0	0	0	0	482	521	
8	0	0	0	0	500	517	
9	0	0	0	0	511	516	
10	0	0	0	0	517	516	
11	0	0	0	0	519	516	
12	0	0	0	0	517	518	
13	0	0	0	0	516	520	
14	0	0	0	0	519	522	
15	0	0	0	0	516	524	
0	0	0	0	0	523	527	
1	0	0	0	0	536	533	
2	0	0	0	0	530	538	
3	0	0	0	0	511	540	
4	0	0	0	0	501	540	
5	0	0	0	0	495	539	
6	0	0	0	0	481	535	
7	0	0	0	0	479	526	
8	0	0	0	0	487	519	
9	0	0	0	0	502	516	
10	0	0	0	0	513	516	
11	0	0	0	0	519	517	
12	0	0	0	0	521	517	
13	0	0	0	0	520	517	
14	0	0	0	0	520	519	
15	0	0	0	0	519	521	
0	0	0	0	0	519	523	
1	0	0	0	0	528	528	
2	0	0	0	0	535	535	
3	0	0	0	0	525	539	
4	0	0	0	0	507	540	
5	0	0	0	0	497	539	
6	0	0	0	0	492	538	
7	0	0	0	0	480	531	
8	0	0	0	0	479	524	
9	0	0	0	0	490	519	
10	0	0	0	0	505	517	
11	0	0	0	0	513	516	
12	0	0	0	0	516	517	
13	0	0	0	0	518	518	
14	0	0	0	0	519	519	
15	0	0	0	0	519	521	
0	0	0	0	0	519	522	
1	0	0	0	0	521	524	
2	0	0	0	0	534	530	
3	0	0	0	0	534	535	
4	0	0	0	0	516	538	
5	0	0	0	0	503	538	
6	0	0	0	0	498	537	
7	0	0	0	0	482	533	
8	0	0	0	0	474	526	
9	0	0	0	0	481	519	
10	0	0	0	0	499	516	
11	0	0	0	0	511	515	
12	0	0	0	0	516	516	
13	0	0	0	0	519	517	
14	0	0	0	0	520	519	
15	0	0	0	0	518	520	
0	0	0	0	0	519	523	
1	0	0	0	0	518	525	
2	0	0	0	0	519	530	
3	0	0	0	0	532	538	
4	0	0	0	0	530	544	
5	0	0	0	0	510	546	
6	0	0	0	0	499	545	
7	0	0	0	0	496	544	
8	0	0	0	0	482	539	
9	0	0	0	0	477	530	
10	0	0	0	0	487	524	
11	0	0	0	0	503	520	
12	0	0	0	0	511	519	
13	0	0	0	0	517	519	
14	0	0	0	0	521	519	
15	0	0	0	0	519	521	
0	0	0	0	0	521	523	
1	0	0	0	0	518	525	
2	0	0	0	0	519	529	
3	0	0	0	0	524	535	
4	0	0	0	0	533	541	
5	0	0	0	0	526	545	
6	0	0	0	0	505	547	
7	0	0	0	0	497	546	
8	0	0	0	0	492	544	
9	0	0	0	0	478	538	
10	0	0	0	0	478	531	
11	0	0	0	0	492	526	
12	0	0	0	0	505	525	
13	0	0	0	0	513	525	
14	0	0	0	0	520	527	
15	0	0	0	0	519	528	
0	0	0	0	0	518	530	
1	0	0	0	0	516	532	
2	0	0	0	0	518	536	
3	0	0	0	0	519	540	
4	0	0	0	0	530	546	
5	0	0	0	0	534	551	
6	0	0	0	0	519	556	
7	0	0	0	0	504	556	
8	0	0	0	0	497	555	
9	0	0	0	0	485	551	
10	0	0	0	0	478	545	
11	0	0	0	0	481	539	
12	0	0	0	0	495	535	
13	0	0	0	0	509	535	
14	0	0	0	0	515	536	
15	0	0	0	0	521	536	
0	0	0	0	0	519	537	
1	0	0	0	0	517	538	
2	0	0	0	0	519	541	
3	0	0	0	0	521	543	
4	0	0	0	0	519	547	
5	0	0	0	0	535	554	
6	0	0	0	0	531	559	
7	0	0	0	0	511	561	
8	0	0	0	0	502	562	
9	0	0	0	0	497	561	
10	0	0	0	0	482	556	
11	0	0	0	0	477	546	
12	0	0	0	0	482	540	
13	0	0	0	0	500	536	
14	0	0	0	0	512	535	
15	0	0	0	0	518	536	
0	0	0	0	0	519	536	
1	0	0	0	0	519	537	
2	0	0	0	0	519	539	
3	0	0	0	0	519	541	
4	0	0	0	0	517	543	
5	0	0	0	0	524	549	
6	0	0	0	0	536	555	
7	0	0	0	0	525	559	
8	0	0	0	0	507	559	
9	0	0	0	0	501	557	
10	0	0	0	0	495	554	
11	0	0	0	0	477	547	
12	0	0	0	0	472	537	
13	0	0	0	0	488	532	
14	0	0	0	0	507	531	
15	0	0	0	0	515	530	
0	0	0	0	0	521	530	
1	0	0	0	0	524	529	
2	0	0	0	0	518	529	
3	0	0	0	0	518	531	
4	0	0	0	0	520	531	
5	0	0	0	0	517	533	
6	0	0	0	0	529	539	
7	0	0	0	0	535	544	
8	0	0	0	0	519	547	
9	0	0	0	0	505	546	
10	0	0	0	0	498	544	
11	0	0	0	0	486	541	
12	0	0	0	0	477	532	
13	0	0	0	0	481	525	
14	0	0	0	0	497	520	
15	0	0	0	0	510	518	
0	0	0	0	0	516	516	
1	0	0	0	0	520	516	
2	0	0	0	0	521	516	
3	0	0	0	0	520	517	
4	0	0	0	0	520	518	
5	0	0	0	0	518	518	
6	0	0	0	0	519	520	
7	0	0	0	0	532	527	
8	0	0	0	0	531	531	
9	0	0	0	0	512	533	
10	0	0	0	0	499	531	
11	0	0	0	0	496	529	
12	0	0	0	0	482	524	
13	0	0	0	0	478	514	
14	0	0	0	0	486	505	
15	0	0	0	0	504	500	
0	0	0	0	0	513	498	
1	0	0	0	0	520	497	
2	0	0	0	0	520	497	
3	0	0	0	0	519	497	
4	0	0	0	0	518	497	
5	0	0	0	0	518	499	
6	0	0	0	0	519	501	
7	0	0	0	0	530	504	
8	0	0	0	0	538	511	
9	0	0	0	0	527	515	
10	0	0	0	0	507	515	
11	0	0	0	0	498	515	
12	0	0	0	0	493	512	
13	0	0	0	0	476	506	
14	0	0	0	0	479	496	
15	0	0	0	0	490	490	
0	0	0	0	0	505	487	
1	0	0	0	0	513	485	
2	0	0	0	0	518	485	
3	0	0	0	0	519	484	
4	0	0	0	0	519	484	
5	0	0	0	0	522	485	
6	0	0	0	0	520	486	
7	0	0	0	0	521	489	
8	0	0	0	0	533	495	
9	0	0	0	0	533	499	
10	0	0	0	0	519	503	
11	0	0	0	0	502	503	
12	0	0	0	0	497	502	
13	0	0	0	0	487	498	
14	0	0	0	0	477	488	
15	0	0	0	0	481	481	
0	0	0	0	0	495	476	
1	0	0	0	0	509	475	
2	0	0	0	0	513	475	
3	0	0	0	0	518	475	
4	0	0	0	0	519	476	
5	0	0	0	0	515	477	
6	0	0	0	0	521	478	
7	0	0	0	0	518	480	
8	0	0	0	0	521	484	
9	0	0	0	0	534	492	
10	0	0	0	0	531	498	
11	0	0	0	0	514	500	
12	0	0	0	0	500	499	
13	0	0	0	0	497	497	
14	0	0	0	0	480	494	
15	0	0	0	0	476	486	
0	0	0	0	0	485	480	
1	0	0	0	0	501	478	
2	0	0	0	0	510	477	
3	0	0	0	0	518	477	
4	0	0	0	0	518	478	
5	0	0	0	0	519	478	
6	0	0	0	0	520	480	
7	0	0	0	0	519	482	
8	0	0	0	0	519	485	
9	0	0	0	0	525	489	
10	0	0	0	0	531	496	
11	0	0	0	0	528	501	
12	0	0	0	0	505	503	
13	0	0	0	0	501	502	
14	0	0	0	0	494	500	
15	0	0	0	0	478	493	
0	0	0	0	0	476	485	
1	0	0	0	0	486	481	
2	0	0	0	0	504	480	
3	0	0	0	0	514	479	
4	0	0	0	0	517	480	
5	0	0	0	0	517	481	
6	0	0	0	0	518	482	
7	0	0	0	0	519	484	
8	0	0	0	0	519	486	
9	0	0	0	0	519	489	
10	0	0	0	0	531	495	
11	0	0	0	0	534	501	
12	0	0	0	0	519	504	
13	0	0	0	0	502	505	
14	0	0	0	0	499	504	
15	0	0	0	0	488	501	
0	0	0	0	0	476	493	
1	0	0	0	0	478	487	
2	0	0	0	0	495	484	
3	0	0	0	0	510	483	
4	0	0	0	0	515	483	
5	0	0	0	0	519	485	
6	0	0	0	0	519	486	
7	0	0	0	0	516	487	
8	0	0	0	0	519	490	
9	0	0	0	0	517	492	
10	0	0	0	0	521	496	
11	0	0	0	0	531	504	
12	0	0	0	0	530	509	
13	0	0	0	0	513	511	
14	0	0	0	0	503	511	
15	0	0	0	0	498	509	
0	0	0	0	0	481	504	
1	0	0	0	0	475	497	
2	0	0	0	0	486	491	
3	0	0	0	0	501	487	
4	0	0	0	0	511	487	
5	0	0	0	0	515	487	
6	0	0	0	0	518	489	
7	0	0	0	0	518	489	
8	0	0	0	0	519	490	
9	0	0	0	0	519	492	
10	0	0	0	0	519	495	
11	0	0	0	0	523	499	
12	0	0	0	0	534	506	
13	0	0	0	0	527	512	
14	0	0	0	0	509	514	
15	0	0	0	0	499	514	
0	0	0	0	0	494	512	
1	0	0	0	0	480	507	
2	0	0	0	0	476	499	
3	0	0	0	0	488	495	
4	0	0	0	0	505	494	
5	0	0	0	0	513	494	
6	0	0	0	0	518	494	
7	0	0	0	0	520	495	
8	0	0	0	0	519	496	
9	0	0	0	0	519	499	
10	0	0	0	0	518	500	
11	0	0	0	0	517	503	
12	0	0	0	0	527	508	
13	0	0	0	0	533	514	
14	0	0	0	0	521	517	
15	0	0	0	0	506	517	
0	0	0	0	0	497	516	
1	0	0	0	0	488	512	
2	0	0	0	0	476	504	
3	0	0	0	0	479	497	
4	0	0	0	0	494	494	
5	0	0	0	0	508	493	
6	0	0	0	0	514	493	
7	0	0	0	0	519	494	
8	0	0	0	0	518	496	
9	0	0	0	0	518	497	
10	0	0	0	0	520	500	
11	0	0	0	0	519	503	
12	0	0	0	0	519	506	
13	0	0	0	0	533	513	
14	0	0	0	0	533	519	
15	0	0	0	0	516	521	
0	0	0	0	0	502	520	
1	0	0	0	0	496	519	
2	0	0	0	0	482	515	
3	0	0	0	0	476	507	
4	0	0	0	0	482	500	
5	0	0	0	0	499	497	
6	0	0	0	0	510	497	
7	0	0	0	0	519	498	
8	0	0	0	0	520	499	
9	0	0	0	0	518	499	
10	0	0	0	0	520	501	
11	0	0	0	0	519	503	
12	0	0	0	0	518	505	
13	0	0	0	0	525	509	
14	0	0	0	0	537	515	
15	0	0	0	0	527	520	
0	0	0	0	0	508	520	
1	0	0	0	0	499	519	
2	0	0	0	0	495	518	
3	0	0	0	0	480	513	
4	0	0	0	0	477	505	
5	0	0	0	0	491	501	
6	0	0	0	0	506	499	
7	0	0	0	0	512	499	
8	0	0	0	0	516	500	
9	0	0	0	0	519	501	
10	0	0	0	0	519	502	
11	0	0	0	0	521	504	
12	0	0	0	0	519	506	
13	0	0	0	0	519	509	
14	0	0	0	0	531	515	
15	0	0	0	0	535	520	
0	0	0	0	0	519	524	
1	0	0	0	0	501	524	
2	0	0	0	0	500	524	
3	0	0	0	0	491	521	
4	0	0	0	0	476	514	
5	0	0	0	0	479	506	
6	0	0	0	0	494	502	
7	0	0	0	0	508	500	
8	0	0	0	0	514	500	
9	0	0	0	0	519	501	
10	0	0	0	0	518	503	
11	0	0	0	0	520	504	
12	0	0	0	0	520	505	
13	0	0	0	0	516	506	
14	0	0	0	0	519	509	
15	0	0	0	0	531	516	
0	0	0	0	0	531	521	
1	0	0	0	0	515	524	
2	0	0	0	0	500	524	
3	0	0	0	0	497	524	
4	0	0	0	0	481	519	
5	0	0	0	0	478	510	
6	0	0	0	0	484	504	
7	0	0	0	0	501	501	
8	0	0	0	0	513	500	
9	0	0	0	0	518	500	
10	0	0	0	0	521	500	
11	0	0	0	0	519	501	
12	0	0	0	0	519	502	
13	0	0	0	0	518	503	
14	0	0	0	0	515	504	
15	0	0	0	0	524	508	
0	0	0	0	0	534	514	
1	0	0	0	0	527	519	
2	0	0	0	0	509	521	
3	0	0	0	0	501	521	
4	0	0	0	0	497	520	
5	0	0	0	0	479	514	
6	0	0	0	0	476	505	
7	0	0	0	0	489	500	
8	0	0	0	0	504	498	
9	0	0	0	0	512	497	
10	0	0	0	0	517	498	
11	0	0	0	0	520	500	
12	0	0	0	0	519	501	
13	0	0	0	0	521	502	
14	0	0	0	0	521	503	
15	0	0	0	0	516	506	
0	0	0	0	0	529	512	
1	0	0	0	0	534	518	
2	0	0	0	0	522	522	
3	0	0	0	0	502	523	
4	0	0	0	0	496	522	
5	0	0	0	0	488	519	
6	0	0	0	0	478	511	
7	0	0	0	0	478	504	
8	0	0	0	0	491	499	
9	0	0	0	0	506	498	
10	0	0	0	0	514	497	
11	0	0	0	0	521	497	
12	0	0	0	0	523	498	
13	0	0	0	0	522	500	
14	0	0	0	0	519	502	
15	0	0	0	0	519	505	
0	0	0	0	0	519	511	
1	0	0	0	0	532	516	
2	0	0	0	0	534	521	
3	0	0	0	0	517	524	
4	0	0	0	0	503	525	
5	0	0	0	0	497	524	
6	0	0	0	0	483	520	
7	0	0	0	0	478	511	
8	0	0	0	0	485	504	
9	0	0	0	0	497	500	
10	0	0	0	0	511	498	
11	0	0	0	0	518	497	
12	0	0	0	0	519	498	
13	0	0	0	0	520	499	
14	0	0	0	0	519	501	
15	0	0	0	0	519	502	
0	0	0	0	0	517	504	
1	0	0	0	0	526	508	
2	0	0	0	0	536	514	
3	0	0	0	0	527	519	
4	0	0	0	0	507	520	
5	0	0	0	0	499	520	
6	0	0	0	0	496	519	
7	0	0	0	0	479	513	
8	0	0	0	0	476	504	
9	0	0	0	0	488	497	
10	0	0	0	0	505	495	
11	0	0	0	0	514	493	
12	0	0	0	0	517	494	
13	0	0	0	0	519	495	
14	0	0	0	0	518	496	
15	0	0	0	0	520	498	
0	0	0	0	0	518	499	
1	0	0	0	0	516	502	
2	0	0	0	0	527	507	
3	0	0	0	0	534	512	
4	0	0	0	0	520	516	
5	0	0	0	0	506	516	
6	0	0	0	0	499	515	
7	0	0	0	0	493	512	
8	0	0	0	0	476	503	
9	0	0	0	0	478	497	
10	0	0	0	0	493	493	
11	0	0	0	0	508	492	
12	0	0	0	0	513	492	
13	0	0	0	0	520	494	
14	0	0	0	0	521	496	
15	0	0	0	0	519	496	
0	0	0	0	0	523	496	
1	0	0	0	0	520	497	
2	0	0	0	0	521	500	
3	0	0	0	0	532	507	
4	0	0	0	0	534	513	
5	0	0	0	0	514	516	
6	0	0	0	0	500	516	
7	0	0	0	0	497	514	
8	0	0	0	0	483	510	
9	0	0	0	0	474	502	
10	0	0	0	0	480	495	
11	0	0	0	0	497	492	
12	0	0	0	0	509	491	
13	0	0	0	0	516	492	
14	0	0	0	0	519	494	
15	0	0	0	0	520	496	
0	0	0	0	0	519	497	
1	0	0	0	0	520	500	
2	0	0	0	0	517	502	
3	0	0	0	0	523	506	
4	0	0	0	0	537	511	
5	0	0	0	0	532	516	
6	0	0	0	0	508	517	
7	0	0	0	0	498	516	
8	0	0	0	0	495	515	
9	0	0	0	0	480	510	
10	0	0	0	0	477	502	
11	0	0	0	0	486	497	
12	0	0	0	0	501	494	
13	0	0	0	0	512	493	
14	0	0	0	0	515	494	
15	0	0	0	0	517	496	
0	0	0	0	0	517	497	
1	0	0	0	0	517	499	
2	0	0	0	0	517	501	
3	0	0	0	0	518	504	
4	0	0	0	0	531	509	
5	0	0	0	0	535	514	
6	0	0	0	0	524	518	
7	0	0	0	0	504	518	
8	0	0	0	0	497	517	
9	0	0	0	0	489	514	
10	0	0	0	0	474	507	
11	0	0	0	0	475	499	
12	0	0	0	0	489	493	
13	0	0	0	0	505	490	
14	0	0	0	0	517	489	
15	0	0	0	0	520	489	
0	0	0	0	0	520	491	
1	0	0	0	0	520	492	
2	0	0	0	0	522	494	
3	0	0	0	0	523	496	
4	0	0	0	0	519	499	
5	0	0	0	0	532	507	
6	0	0	0	0	536	513	
7	0	0	0	0	517	517	
8	0	0	0	0	502	517	
9	0	0	0	0	497	517	
10	0	0	0	0	484	514	
11	0	0	0	0	475	507	
12	0	0	0	0	482	501	
13	0	0	0	0	497	497	
14	0	0	0	0	511	496	
15	0	0	0	0	520	496	
0	0	0	0	0	526	497	
1	0	0	0	0	525	499	
2	0	0	0	0	524	499	
3	0	0	0	0	522	502	
4	0	0	0	0	518	504	
5	0	0	0	0	522	508	
6	0	0	0	0	538	515	
7	0	0	0	0	531	521	
8	0	0	0	0	512	523	
9	0	0	0	0	500	524	
10	0	0	0	0	496	523	
11	0	0	0	0	480	518	
12	0	0	0	0	477	510	
13	0	0	0	0	486	506	
14	0	0	0	0	503	503	
15	0	0	0	0	510	503	
0	0	0	0	0	518	503	
1	0	0	0	0	521	503	
2	0	0	0	0	520	504	
3	0	0	0	0	524	504	
4	0	0	0	0	521	505	
5	0	0	0	0	519	508	
6	0	0	0	0	530	512	
7	0	0	0	0	539	518	
8	0	0	0	0	524	522	
9	0	0	0	0	505	523	
10	0	0	0	0	498	522	
11	0	0	0	0	491	519	
12	0	0	0	0	473	511	
13	0	0	0	0	474	504	
14	0	0	0	0	487	499	
15	0	0	0	0	504	496	
0	0	0	0	0	512	496	
1	0	0	0	0	518	496	
2	0	0	0	0	518	497	
3	0	0	0	0	519	497	
4	0	0	0	0	521	498	
5	0	0	0	0	519	500	
6	0	0	0	0	523	503	
7	0	0	0	0	532	508	
8	0	0	0	0	534	513	
9	0	0	0	0	516	516	
10	0	0	0	0	502	515	
11	0	0	0	0	498	514	
12	0	0	0	0	484	510	
13	0	0	0	0	474	502	
14	0	0	0	0	480	493	
15	0	0	0	0	495	488	
0	0	0	0	0	509	485	
1	0	0	0	0	513	484	
2	0	0	0	0	520	485	
3	0	0	0	0	518	486	
4	0	0	0	0	520	487	
5	0	0	0	0	521	489	
6	0	0	0	0	518	492	
7	0	0	0	0	524	496	
8	0	0	0	0	532	502	
9	0	0	0	0	531	507	
10	0	0	0	0	510	508	
11	0	0	0	0	500	508	
12	0	0	0	0	496	507	
13	0	0	0	0	480	502	
14	0	0	0	0	474	494	
15	0	0	0	0	484	489	
0	0	0	0	0	502	487	
1	0	0	0	0	515	485	
2	0	0	0	0	518	485	
3	0	0	0	0	518	486	
4	0	0	0	0	517	487	
5	0	0	0	0	520	488	
6	0	0	0	0	519	489	
7	0	0	0	0	519	492	
8	0	0	0	0	527	497	
9	0	0	0	0	535	504	
10	0	0	0	0	523	510	
11	0	0	0	0	507	511	
12	0	0	0	0	500	510	
13	0	0	0	0	491	508	
14	0	0	0	0	476	502	
15	0	0	0	0	479	495	
0	0	0	0	0	492	491	
1	0	0	0	0	505	489	
2	0	0	0	0	512	489	
3	0	0	0	0	519	489	
4	0	0	0	0	519	491	
5	0	0	0	0	518	491	
6	0	0	0	0	516	492	
7	0	0	0	0	518	494	
8	0	0	0	0	519	496	
9	0	0	0	0	532	503	
10	0	0	0	0	535	508	
11	0	0	0	0	515	511	
12	0	0	0	0	500	512	
13	0	0	0	0	497	512	
14	0	0	0	0	478	511	
15	0	0	0	0	472	507	
0	0	0	0	0	473	503	
1	0	0	0	0	485	502	
2	0	0	0	0	498	502	
3	0	0	0	0	503	504	
4	0	0	0	0	507	505	
5	0	0	0	0	507	508	
6	0	0	0	0	506	510	
7	0	0	0	0	510	512	
8	0	0	0	0	510	516	
9	0	0	0	0	513	521	
10	0	0	0	0	530	529	
11	0	0	0	0	530	536	
12	0	0	0	0	512	540	
13	0	0	0	0	505	544	
14	0	0	0	0	504	546	
15	0	0	0	0	488	545	
0	0	0	0	0	486	540	
1	0	0	0	0	496	538	
2	0	0	0	0	515	537	
3	0	0	0	0	530	538	
4	0	0	0	0	540	539	
5	0	0	0	0	548	540	
6	0	0	0	0	543	542	
7	0	0	0	0	542	544	
8	0	0	0	0	539	546	
9	0	0	0	0	543	547	
10	0	0	0	0	550	549	
11	0	0	0	0	560	551	
12	0	0	0	0	546	551	
13	0	0	0	0	527	546	
14	0	0	0	0	517	537	
15	0	0	0	0	507	526	
0	0	0	0	0	489	509	
1	0	0	0	0	482	492	
2	0	0	0	0	490	479	
3	0	0	0	0	501	471	
4	0	0	0	0	512	467	
5	0	0	0	0	519	464	
6	0	0	0	0	515	464	
7	0	0	0	0	516	464	
8	0	0	0	0	508	466	
9	0	0	0	0	501	468	
10	0	0	0	0	502	469	
11	0	0	0	0	512	473	
12	0	0	0	0	518	475	
13	0	0	0	0	500	475	
14	0	0	0	0	483	471	
15	0	0	0	0	475	464	
0	0	0	0	0	465	455	
1	0	0	0	0	461	441	
2	0	0	0	0	468	430	
3	0	0	0	0	484	423	
4	0	0	0	0	498	418	
5	0	0	0	0	508	418	
6	0	0	0	0	516	419	
7	0	0	0	0	519	420	
8	0	0	0	0	521	423	
9	0	0	0	0	526	427	
10	0	0	0	0	525	432	
11	0	0	0	0	527	439	
12	0	0	0	0	540	448	
13	0	0	0	0	534	456	
14	0	0	0	0	511	461	
15	0	0	0	0	497	465	
0	0	0	0	0	491	467	
1	0	0	0	0	473	466	
2	0	0	0	0	465	463	
3	0	0	0	0	472	457	
4	0	0	0	0	487	458	
5	0	0	0	0	498	460	
6	0	0	0	0	505	463	
7	0	0	0	0	511	466	
8	0	0	0	0	514	472	
9	0	0	0	0	515	477	
10	0	0	0	0	518	483	
11	0	0	0	0	516	489	
12	0	0	0	0	529	497	
13	0	0	0	0	538	505	
14	0	0	0	0	527	512	
15	0	0	0	0	505	515	
0	0	0	0	0	498	517	
1	0	0	0	0	492	516	
2	0	0	0	0	474	511	
3	0	0	0	0	473	504	
4	0	0	0	0	489	499	
5	0	0	0	0	503	498	
6	0	0	0	0	513	498	
7	0	0	0	0	520	497	
8	0	0	0	0	526	498	
9	0	0	0	0	527	499	
10	0	0	0	0	529	502	
11	0	0	0	0	530	505	
12	0	0	0	0	529	511	
13	0	0	0	0	541	518	
14	0	0	0	0	542	524	
15	0	0	0	0	523	529	
0	0	0	0	0	506	530	
1	0	0	0	0	499	529	
2	0	0	0	0	485	526	
3	0	0	0	0	474	520	
4	0	0	0	0	478	512	
5	0	0	0	0	493	507	
6	0	0	0	0	507	505	
7	0	0	0	0	514	504	
8	0	0	0	0	519	504	
9	0	0	0	0	523	505	
10	0	0	0	0	523	506	
11	0	0	0	0	527	508	
12	0	0	0	0	525	511	
13	0	0	0	0	525	515	
14	0	0	0	0	538	524	
15	0	0	0	0	534	530	
0	0	0	0	0	513	533	
1	0	0	0	0	500	534	
2	0	0	0	0	495	533	
3	0	0	0	0	480	529	
4	0	0	0	0	477	523	
5	0	0	0	0	481	515	
6	0	0	0	0	497	512	
7	0	0	0	0	508	509	
8	0	0	0	0	515	508	
9	0	0	0	0	519	509	
10	0	0	0	0	521	509	
11	0	0	0	0	524	510	
12	0	0	0	0	527	512	
13	0	0	0	0	522	515	
14	0	0	0	0	529	520	
15	0	0	0	0	540	527	
0	0	0	0	0	528	532	
1	0	0	0	0	505	534	
2	0	0	0	0	497	534	
3	0	0	0	0	492	532	
4	0	0	0	0	475	527	
5	0	0	0	0	475	519	
6	0	0	0	0	485	512	
7	0	0	0	0	500	510	
8	0	0	0	0	509	508	
9	0	0	0	0	518	508	
10	0	0	0	0	519	508	
11	0	0	0	0	520	509	
12	0	0	0	0	523	510	
13	0	0	0	0	524	512	
14	0	0	0	0	522	515	
15	0	0	0	0	534	523	
0	0	0	0	0	538	529	
1	0	0	0	0	524	534	
2	0	0	0	0	506	535	
3	0	0	0	0	497	533	
4	0	0	0	0	484	529	
5	0	0	0	0	478	522	
6	0	0	0	0	478	514	
7	0	0	0	0	488	510	
8	0	0	0	0	504	508	
9	0	0	0	0	511	508	
10	0	0	0	0	516	508	
11	0	0	0	0	518	509	
12	0	0	0	0	518	510	
13	0	0	0	0	519	512	
14	0	0	0	0	521	514	
15	0	0	0	0	524	516	
0	0	0	0	0	535	524	
1	0	0	0	0	532	530	
2	0	0	0	0	515	534	
3	0	0	0	0	500	534	
4	0	0	0	0	498	533	
5	0	0	0	0	482	529	
6	0	0	0	0	475	521	
7	0	0	0	0	483	515	
8	0	0	0	0	498	513	
9	0	0	0	0	510	511	
10	0	0	0	0	516	510	
11	0	0	0	0	518	511	
12	0	0	0	0	519	511	
13	0	0	0	0	521	513	
14	0	0	0	0	523	515	
15	0	0	0	0	523	519	
0	0	0	0	0	527	522	
1	0	0	0	0	536	531	
2	0	0	0	0	527	536	
3	0	0	0	0	506	539	
4	0	0	0	0	497	539	
5	0	0	0	0	494	537	
6	0	0	0	0	478	531	
7	0	0	0	0	475	523	
8	0	0	0	0	484	518	
9	0	0	0	0	501	515	
10	0	0	0	0	511	513	
11	0	0	0	0	517	514	
12	0	0	0	0	519	515	
13	0	0	0	0	521	514	
14	0	0	0	0	523	515	
15	0	0	0	0	522	518	
0	0	0	0	0	523	521	
1	0	0	0	0	530	528	
2	0	0	0	0	538	534	
3	0	0	0	0	519	539	
4	0	0	0	0	504	540	
5	0	0	0	0	496	540	
6	0	0	0	0	485	538	
7	0	0	0	0	473	532	
8	0	0	0	0	478	525	
9	0	0	0	0	492	521	
10	0	0	0	0	504	519	
11	0	0	0	0	511	518	
12	0	0	0	0	517	518	
13	0	0	0	0	519	519	
14	0	0	0	0	521	519	
15	0	0	0	0	524	522	
0	0	0	0	0	524	524	
1	0	0	0	0	526	526	
2	0	0	0	0	535	535	
3	0	0	0	0	534	542	
4	0	0	0	0	514	545	
5	0	0	0	0	497	547	
6	0	0	0	0	494	548	
7	0	0	0	0	478	545	
8	0	0	0	0	475	538	
9	0	0	0	0	480	531	
10	0	0	0	0	496	527	
11	0	0	0	0	507	524	
12	0	0	0	0	513	523	
13	0	0	0	0	519	524	
14	0	0	0	0	520	524	
15	0	0	0	0	520	527	
0	0	0	0	0	524	529	
1	0	0	0	0	522	533	
2	0	0	0	0	530	539	
3	0	0	0	0	538	546	
4	0	0	0	0	530	553	
5	0	0	0	0	507	555	
6	0	0	0	0	497	556	
7	0	0	0	0	492	555	
8	0	0	0	0	477	549	
9	0	0	0	0	474	542	
10	0	0	0	0	486	536	
11	0	0	0	0	501	533	
12	0	0	0	0	508	531	
13	0	0	0	0	515	530	
14	0	0	0	0	519	531	
15	0	0	0	0	521	531	
0	0	0	0	0	520	534	
1	0	0	0	0	526	536	
2	0	0	0	0	525	540	
3	0	0	0	0	533	547	
4	0	0	0	0	538	555	
5	0	0	0	0	521	561	
6	0	0	0	0	503	563	
7	0	0	0	0	497	562	
8	0	0	0	0	486	559	
9	0	0	0	0	476	552	
10	0	0	0	0	478	543	
11	0	0	0	0	490	537	
12	0	0	0	0	502	534	
13	0	0	0	0	510	532	
14	0	0	0	0	519	532	
15	0	0	0	0	521	533	
0	0	0	0	0	522	533	
1	0	0	0	0	525	534	
2	0	0	0	0	527	535	
3	0	0	0	0	527	540	
4	0	0	0	0	537	547	
5	0	0	0	0	536	553	
6	0	0	0	0	515	555	
7	0	0	0	0	500	555	
8	0	0	0	0	496	553	
9	0	0	0	0	481	547	
10	0	0	0	0	475	540	
11	0	0	0	0	480	531	
12	0	0	0	0	496	526	
13	0	0	0	0	503	522	
14	0	0	0	0	514	520	
15	0	0	0	0	521	519	
0	0	0	0	0	522	519	
1	0	0	0	0	524	520	
2	0	0	0	0	527	522	
3	0	0	0	0	527	524	
4	0	0	0	0	533	529	
5	0	0	0	0	540	535	
6	0	0	0	0	529	541	
7	0	0	0	0	509	542	
8	0	0	0	0	496	541	
9	0	0	0	0	494	539	
10	0	0	0	0	478	532	
11	0	0	0	0	478	524	
12	0	0	0	0	485	515	
13	0	0	0	0	499	510	
14	0	0	0	0	509	507	
15	0	0	0	0	519	506	
0	0	0	0	0	523	506	
1	0	0	0	0	524	506	
2	0	0	0	0	527	506	
3	0	0	0	0	527	508	
4	0	0	0	0	528	512	
5	0	0	0	0	536	515	
6	0	0	0	0	541	519	
7	0	0	0	0	523	523	
8	0	0	0	0	504	523	
9	0	0	0	0	494	521	
10	0	0	0	0	486	518	
11	0	0	0	0	472	510	
12	0	0	0	0	477	499	
13	0	0	0	0	492	492	
14	0	0	0	0	504	487	
15	0	0	0	0	512	485	
0	0	0	0	0	519	484	
1	0	0	0	0	523	484	
2	0	0	0	0	522	483	
3	0	0	0	0	528	484	
4	0	0	0	0	526	487	
5	0	0	0	0	525	491	
6	0	0	0	0	542	496	
7	0	0	0	0	535	502	
8	0	0	0	0	516	505	
9	0	0	0	0	498	504	
10	0	0	0	0	494	504	
11	0	0	0	0	480	498	
12	0	0	0	0	470	490	
13	0	0	0	0	480	481	
14	0	0	0	0	494	476	
15	0	0	0	0	506	472	
0	0	0	0	0	511	471	
1	0	0	0	0	518	471	
2	0	0	0	0	520	471	
3	0	0	0	0	523	472	
4	0	0	0	0	525	473	
5	0	0	0	0	524	476	
6	0	0	0	0	530	481	
7	0	0	0	0	541	488	
8	0	0	0	0	531	494	
9	0	0	0	0	508	496	
10	0	0	0	0	496	496	
11	0	0	0	0	490	495	
12	0	0	0	0	475	488	
13	0	0	0	0	471	480	
14	0	0	0	0	484	472	
15	0	0	0	0	496	467	
0	0	0	0	0	509	464	
1	0	0	0	0	517	463	
2	0	0	0	0	519	464	
3	0	0	0	0	520	464	
4	0	0	0	0	527	466	
5	0	0	0	0	527	469	
6	0	0	0	0	524	472	
7	0	0	0	0	533	479	
8	0	0	0	0	539	485	
9	0	0	0	0	522	489	
10	0	0	0	0	504	491	
11	0	0	0	0	493	491	
12	0	0	0	0	485	488	
13	0	0	0	0	467	482	
14	0	0	0	0	474	474	
15	0	0	0	0	487	468	
0	0	0	0	0	499	465	
1	0	0	0	0	508	463	
2	0	0	0	0	516	462	
3	0	0	0	0	521	463	
4	0	0	0	0	521	464	
5	0	0	0	0	524	467	
6	0	0	0	0	525	471	
7	0	0	0	0	526	476	
8	0	0	0	0	539	483	
9	0	0	0	0	536	490	
10	0	0	0	0	515	494	
11	0	0	0	0	497	495	
12	0	0	0	0	492	493	
13	0	0	0	0	479	489	
14	0	0	0	0	470	482	
15	0	0	0	0	478	474	
0	0	0	0	0	492	470	
1	0	0	0	0	504	467	
2	0	0	0	0	512	465	
3	0	0	0	0	518	465	
4	0	0	0	0	521	467	
5	0	0	0	0	523	469	
6	0	0	0	0	526	472	
7	0	0	0	0	525	475	
8	0	0	0	0	531	481	
9	0	0	0	0	540	488	
10	0	0	0	0	534	496	
11	0	0	0	0	511	498	
12	0	0	0	0	497	498	
13	0	0	0	0	491	497	
14	0	0	0	0	474	491	
15	0	0	0	0	470	481	
0	0	0	0	0	483	477	
1	0	0	0	0	496	473	
2	0	0	0	0	507	471	
3	0	0	0	0	515	471	
4	0	0	0	0	522	472	
5	0	0	0	0	522	472	
6	0	0	0	0	524	474	
7	0	0	0	0	525	478	
8	0	0	0	0	526	481	
9	0	0	0	0	536	489	
10	0	0	0	0	540	495	
11	0	0	0	0	523	499	
12	0	0	0	0	505	501	
13	0	0	0	0	497	501	
14	0	0	0	0	486	499	
15	0	0	0	0	471	492	
0	0	0	0	0	473	484	
1	0	0	0	0	487	479	
2	0	0	0	0	499	476	
3	0	0	0	0	508	475	
4	0	0	0	0	516	476	
5	0	0	0	0	520	478	
6	0	0	0	0	523	480	
7	0	0	0	0	527	482	
8	0	0	0	0	528	485	
9	0	0	0	0	526	489	
10	0	0	0	0	536	496	
11	0	0	0	0	536	502	
12	0	0	0	0	519	506	
13	0	0	0	0	502	507	
14	0	0	0	0	496	506	
15	0	0	0	0	478	502	
0	0	0	0	0	470	495	
1	0	0	0	0	476	486	
2	0	0	0	0	490	482	
3	0	0	0	0	503	481	
4	0	0	0	0	513	480	
5	0	0	0	0	520	480	
6	0	0	0	0	521	481	
7	0	0	0	0	525	483	
8	0	0	0	0	530	487	
9	0	0	0	0	527	490	
10	0	0	0	0	531	496	
11	0	0	0	0	541	502	
12	0	0	0	0	533	508	
13	0	0	0	0	508	509	
14	0	0	0	0	498	510	
15	0	0	0	0	491	509	
0	0	0	0	0	475	504	
1	0	0	0	0	470	497	
2	0	0	0	0	480	489	
3	0	0	0	0	496	486	
4	0	0	0	0	506	483	
5	0	0	0	0	515	482	
6	0	0	0	0	519	483	
7	0	0	0	0	519	484	
8	0	0	0	0	524	486	
9	0	0	0	0	528	488	
10	0	0	0	0	527	492	
11	0	0	0	0	536	499	
12	0	0	0	0	540	505	
13	0	0	0	0	528	509	
14	0	0	0	0	505	510	
15	0	0	0	0	496	509	
0	0	0	0	0	484	507	
1	0	0	0	0	470	500	
2	0	0	0	0	477	492	
3	0	0	0	0	487	486	
4	0	0	0	0	504	483	
5	0	0	0	0	509	481	
6	0	0	0	0	517	481	
7	0	0	0	0	519	481	
8	0	0	0	0	522	482	
9	0	0	0	0	525	484	
10	0	0	0	0	527	488	
11	0	0	0	0	527	492	
12	0	0	0	0	537	499	
13	0	0	0	0	538	505	
14	0	0	0	0	518	511	
15	0	0	0	0	499	511	
0	0	0	0	0	496	510	
1	0	0	0	0	480	506	
2	0	0	0	0	470	499	
3	0	0	0	0	479	490	
4	0	0	0	0	493	486	
5	0	0	0	0	504	483	
6	0	0	0	0	511	482	
7	0	0	0	0	517	482	
8	0	0	0	0	520	483	
9	0	0	0	0	523	484	
10	0	0	0	0	525	487	
11	0	0	0	0	527	491	
12	0	0	0	0	529	496	
13	0	0	0	0	540	502	
14	0	0	0	0	532	510	
15	0	0	0	0	511	512	
0	0	0	0	0	497	511	
1	0	0	0	0	491	510	
2	0	0	0	0	476	506	
3	0	0	0	0	469	498	
4	0	0	0	0	481	492	
5	0	0	0	0	495	487	
6	0	0	0	0	507	483	
7	0	0	0	0	513	482	
8	0	0	0	0	518	483	
9	0	0	0	0	520	484	
10	0	0	0	0	526	487	
11	0	0	0	0	527	490	
12	0	0	0	0	527	493	
13	0	0	0	0	534	500	
14	0	0	0	0	540	507	
15	0	0	0	0	528	512	
0	0	0	0	0	508	513	
1	0	0	0	0	497	512	
2	0	0	0	0	489	510	
3	0	0	0	0	472	504	
4	0	0	0	0	474	495	
5	0	0	0	0	485	488	
6	0	0	0	0	500	486	
7	0	0	0	0	509	484	
8	0	0	0	0	515	484	
9	0	0	0	0	520	485	
10	0	0	0	0	521	486	
11	0	0	0	0	523	488	
12	0	0	0	0	525	491	
13	0	0	0	0	526	495	
14	0	0	0	0	538	502	
15	0	0	0	0	539	508	
0	0	0	0	0	519	511	
1	0	0	0	0	500	512	
2	0	0	0	0	494	511	
3	0	0	0	0	481	506	
4	0	0	0	0	470	499	
5	0	0	0	0	474	491	
6	0	0	0	0	489	487	
7	0	0	0	0	505	484	
8	0	0	0	0	511	482	
9	0	0	0	0	520	482	
10	0	0	0	0	521	483	
11	0	0	0	0	524	485	
12	0	0	0	0	528	487	
13	0	0	0	0	525	491	
14	0	0	0	0	529	499	
15	0	0	0	0	539	504	
0	0	0	0	0	534	511	
1	0	0	0	0	512	513	
2	0	0	0	0	498	513	
3	0	0	0	0	495	513	
4	0	0	0	0	476	507	
5	0	0	0	0	472	498	
6	0	0	0	0	480	491	
7	0	0	0	0	494	487	
8	0	0	0	0	504	485	
9	0	0	0	0	514	484	
10	0	0	0	0	521	484	
11	0	0	0	0	522	484	
12	0	0	0	0	524	486	
13	0	0	0	0	527	490	
14	0	0	0	0	527	494	
15	0	0	0	0	533	501	
0	0	0	0	0	540	508	
1	0	0	0	0	527	514	
2	0	0	0	0	505	516	
3	0	0	0	0	497	515	
4	0	0	0	0	487	512	
5	0	0	0	0	469	505	
6	0	0	0	0	473	497	
7	0	0	0	0	483	491	
8	0	0	0	0	497	487	
9	0	0	0	0	509	485	
10	0	0	0	0	518	485	
11	0	0	0	0	519	485	
12	0	0	0	0	522	487	
13	0	0	0	0	525	489	
14	0	0	0	0	526	494	
15	0	0	0	0	530	497	
0	0	0	0	0	539	504	
1	0	0	0	0	541	510	
2	0	0	0	0	523	514	
3	0	0	0	0	503	514	
4	0	0	0	0	495	512	
5	0	0	0	0	478	508	
6	0	0	0	0	470	500	
7	0	0	0	0	475	491	
8	0	0	0	0	488	486	
9	0	0	0	0	500	483	
10	0	0	0	0	508	483	
11	0	0	0	0	517	483	
12	0	0	0	0	521	483	
13	0	0	0	0	524	483	
14	0	0	0	0	530	486	
15	0	0	0	0	527	490	
0	0	0	0	0	530	497	
1	0	0	0	0	542	504	
2	0	0	0	0	535	511	
3	0	0	0	0	512	514	
4	0	0	0	0	496	515	
5	0	0	0	0	494	515	
6	0	0	0	0	475	510	
7	0	0	0	0	471	503	
8	0	0	0	0	480	493	
9	0	0	0	0	495	488	
10	0	0	0	0	504	486	
11	0	0	0	0	509	484	
12	0	0	0	0	517	484	
13	0	0	0	0	518	485	
14	0	0	0	0	525	487	
15	0	0	0	0	529	490	
0	0	0	0	0	526	494	
1	0	0	0	0	534	502	
2	0	0	0	0	543	510	
3	0	0	0	0	529	515	
4	0	0	0	0	505	517	
5	0	0	0	0	497	516	
6	0	0	0	0	492	513	
7	0	0	0	0	472	506	
8	0	0	0	0	473	498	
9	0	0	0	0	484	492	
10	0	0	0	0	496	488	
11	0	0	0	0	504	486	
12	0	0	0	0	516	484	
13	0	0	0	0	521	484	
14	0	0	0	0	523	484	
15	0	0	0	0	527	487	
0	0	0	0	0	529	490	
1	0	0	0	0	528	495	
2	0	0	0	0	539	503	
3	0	0	0	0	542	510	
4	0	0	0	0	522	515	
5	0	0	0	0	503	516	
6	0	0	0	0	492	515	
7	0	0	0	0	480	512	
8	0	0	0	0	468	505	
9	0	0	0	0	475	496	
10	0	0	0	0	487	490	
11	0	0	0	0	501	487	
12	0	0	0	0	509	483	
13	0	0	0	0	518	483	
14	0	0	0	0	520	483	
15	0	0	0	0	524	484	
0	0	0	0	0	527	487	
1	0	0	0	0	529	492	
2	0	0	0	0	530	497	
3	0	0	0	0	543	507	
4	0	0	0	0	537	515	
5	0	0	0	0	512	518	
6	0	0	0	0	499	518	
7	0	0	0	0	494	518	
8	0	0	0	0	476	512	
9	0	0	0	0	468	505	
10	0	0	0	0	479	496	
11	0	0	0	0	494	492	
12	0	0	0	0	504	490	
13	0	0	0	0	509	488	
14	0	0	0	0	516	488	
15	0	0	0	0	520	489	
0	0	0	0	0	526	491	
1	0	0	0	0	528	493	
2	0	0	0	0	529	496	
3	0	0	0	0	534	503	
4	0	0	0	0	543	511	
5	0	0	0	0	533	516	
6	0	0	0	0	507	518	
7	0	0	0	0	494	518	
8	0	0	0	0	492	517	
9	0	0	0	0	473	511	
10	0	0	0	0	473	503	
11	0	0	0	0	480	496	
12	0	0	0	0	497	491	
13	0	0	0	0	504	488	
14	0	0	0	0	515	487	
15	0	0	0	0	519	487	
0	0	0	0	0	521	488	
1	0	0	0	0	527	490	
2	0	0	0	0	529	493	
3	0	0	0	0	529	496	
4	0	0	0	0	539	504	
5	0	0	0	0	539	511	
6	0	0	0	0	522	516	
7	0	0	0	0	503	518	
8	0	0	0	0	497	517	
9	0	0	0	0	482	513	
10	0	0	0	0	470	505	
11	0	0	0	0	477	496	
12	0	0	0	0	487	490	
13	0	0	0	0	500	487	
14	0	0	0	0	508	484	
15	0	0	0	0	517	484	
0	0	0	0	0	518	485	
1	0	0	0	0	521	487	
2	0	0	0	0	530	488	
3	0	0	0	0	527	491	
4	0	0	0	0	529	496	
5	0	0	0	0	543	504	
6	0	0	0	0	536	511	
7	0	0	0	0	515	513	
8	0	0	0	0	500	514	
9	0	0	0	0	494	513	
10	0	0	0	0	477	508	
11	0	0	0	0	468	501	
12	0	0	0	0	479	493	
13	0	0	0	0	490	488	
14	0	0	0	0	504	486	
15	0	0	0	0	511	483	
0	0	0	0	0	519	483	
1	0	0	0	0	520	483	
2	0	0	0	0	522	485	
3	0	0	0	0	528	488	
4	0	0	0	0	529	491	
5	0	0	0	0	534	499	
6	0	0	0	0	543	506	
7	0	0	0	0	529	513	
8	0	0	0	0	508	516	
9	0	0	0	0	499	516	
10	0	0	0	0	495	515	
11	0	0	0	0	474	508	
12	0	0	0	0	470	500	
13	0	0	0	0	481	492	
14	0	0	0	0	494	488	
15	0	0	0	0	503	486	
0	0	0	0	0	513	485	
1	0	0	0	0	518	486	
2	0	0	0	0	518	487	
3	0	0	0	0	523	489	
4	0	0	0	0	527	494	
5	0	0	0	0	529	501	
6	0	0	0	0	539	507	
7	0	0	0	0	542	514	
8	0	0	0	0	523	520	
9	0	0	0	0	504	522	
10	0	0	0	0	495	521	
11	0	0	0	0	482	518	
12	0	0	0	0	469	510	
13	0	0	0	0	474	501	
14	0	0	0	0	485	494	
15	0	0	0	0	497	491	
0	0	0	0	0	508	488	
1	0	0	0	0	515	487	
2	0	0	0	0	520	487	
3	0	0	0	0	521	487	
4	0	0	0	0	527	490	
5	0	0	0	0	530	494	
6	0	0	0	0	532	500	
7	0	0	0	0	545	508	
8	0	0	0	0	540	515	
9	0	0	0	0	519	518	
10	0	0	0	0	502	518	
11	0	0	0	0	495	518	
12	0	0	0	0	478	513	
13	0	0	0	0	470	505	
14	0	0	0	0	478	496	
15	0	0	0	0	491	491	
0	0	0	0	0	501	488	
1	0	0	0	0	512	487	
2	0	0	0	0	521	487	
3	0	0	0	0	526	487	
4	0	0	0	0	528	487	
5	0	0	0	0	533	489	
6	0	0	0	0	531	493	
7	0	0	0	0	534	502	
8	0	0	0	0	542	510	
9	0	0	0	0	532	518	
10	0	0	0	0	508	521	
11	0	0	0	0	498	521	
12	0	0	0	0	492	521	
13	0	0	0	0	477	515	
14	0	0	0	0	470	508	
15	0	0	0	0	481	502	
0	0	0	0	0	494	500	
1	0	0	0	0	506	498	
2	0	0	0	0	512	497	
3	0	0	0	0	519	496	
4	0	0	0	0	523	496	
5	0	0	0	0	527	497	
6	0	0	0	0	527	501	
7	0	0	0	0	528	505	
8	0	0	0	0	536	513	
9	0	0	0	0	541	521	
10	0	0	0	0	529	526	
11	0	0	0	0	507	527	
12	0	0	0	0	499	526	
13	0	0	0	0	486	524	
14	0	0	0	0	470	517	
15	0	0	0	0	471	508	
0	0	0	0	0	483	503	
1	0	0	0	0	498	499	
2	0	0	0	0	502	497	
3	0	0	0	0	513	496	
4	0	0	0	0	518	495	
5	0	0	0	0	522	495	
6	0	0	0	0	524	496	
7	0	0	0	0	528	499	
8	0	0	0	0	529	502	
9	0	0	0	0	537	510	
10	0	0	0	0	536	515	
11	0	0	0	0	515	519	
12	0	0	0	0	500	518	
13	0	0	0	0	494	517	
14	0	0	0	0	478	511	
15	0	0	0	0	472	503	
0	0	0	0	0	477	494	
1	0	0	0	0	488	489	
2	0	0	0	0	502	486	
3	0	0	0	0	508	483	
4	0	0	0	0	515	484	
5	0	0	0	0	520	484	
6	0	0	0	0	521	485	
7	0	0	0	0	527	488	
8	0	0	0	0	527	491	
9	0	0	0	0	530	496	
10	0	0	0	0	542	504	
11	0	0	0	0	535	510	
12	0	0	0	0	511	512	
13	0	0	0	0	501	512	
14	0	0	0	0	495	512	
15	0	0	0	0	476	507	
0	0	0	0	0	473	498	
1	0	0	0	0	483	491	
2	0	0	0	0	497	486	
3	0	0	0	0	504	484	
4	0	0	0	0	513	483	
5	0	0	0	0	517	484	
6	0	0	0	0	517	486	
7	0	0	0	0	525	488	
8	0	0	0	0	527	491	
9	0	0	0	0	530	493	
10	0	0	0	0	537	500	
11	0	0	0	0	542	507	
12	0	0	0	0	526	512	
13	0	0	0	0	505	513	
14	0	0	0	0	497	512	
15	0	0	0	0	486	508	
0	0	0	0	0	472	502	
1	0	0	0	0	473	493	
2	0	0	0	0	486	487	
3	0	0	0	0	500	484	
4	0	0	0	0	506	482	
5	0	0	0	0	513	480	
6	0	0	0	0	518	481	
7	0	0	0	0	519	481	
8	0	0	0	0	527	484	
9	0	0	0	0	529	488	
10	0	0	0	0	532	492	
11	0	0	0	0	540	501	
12	0	0	0	0	539	508	
13	0	0	0	0	517	512	
14	0	0	0	0	499	514	
15	0	0	0	0	493	513	
0	0	0	0	0	478	510	
1	0	0	0	0	467	504	
2	0	0	0	0	470	497	
3	0	0	0	0	482	495	
4	0	0	0	0	492	494	
5	0	0	0	0	497	493	
6	0	0	0	0	504	494	
7	0	0	0	0	506	495	
8	0	0	0	0	509	498	
9	0	0	0	0	515	502	
10	0	0	0	0	519	507	
11	0	0	0	0	523	515	
12	0	0	0	0	540	525	
13	0	0	0	0	532	534	
14	0	0	0	0	512	539	
15	0	0	0	0	504	543	
0	0	0	0	0	499	546	
1	0	0	0	0	486	544	
2	0	0	0	0	480	541	
3	0	0	0	0	489	537	
4	0	0	0	0	506	536	
5	0	0	0	0	516	535	
6	0	0	0	0	529	536	
7	0	0	0	0	542	537	
8	0	0	0	0	547	539	
9	0	0	0	0	550	542	
10	0	0	0	0	546	546	
11	0	0	0	0	546	548	
12	0	0	0	0	553	552	
13	0	0	0	0	559	554	
14	0	0	0	0	543	553	
15	0	0	0	0	524	547	
0	0	0	0	0	513	539	
1	0	0	0	0	500	527	
2	0	0	0	0	477	511	
3	0	0	0	0	475	493	
4	0	0	0	0	481	479	
5	0	0	0	0	491	469	
6	0	0	0	0	504	463	
7	0	0	0	0	512	459	
8	0	0	0	0	520	456	
9	0	0	0	0	519	455	
10	0	0	0	0	517	457	
11	0	0	0	0	514	460	
12	0	0	0	0	517	462	
13	0	0	0	0	519	468	
14	0	0	0	0	518	472	
15	0	0	0	0	501	472	
0	0	0	0	0	485	466	
1	0	0	0	0	479	458	
2	0	0	0	0	466	447	
3	0	0	0	0	458	435	
4	0	0	0	0	466	421	
5	0	0	0	0	487	414	
6	0	0	0	0	499	409	
7	0	0	0	0	509	408	
8	0	0	0	0	519	409	
9	0	0	0	0	522	411	
10	0	0	0	0	523	415	
11	0	0	0	0	529	419	
12	0	0	0	0	531	423	
13	0	0	0	0	536	430	
14	0	0	0	0	547	440	
15	0	0	0	0	539	449	
0	0	0	0	0	514	452	
1	0	0	0	0	504	455	
2	0	0	0	0	499	455	
3	0	0	0	0	479	452	
4	0	0	0	0	470	444	
5	0	0	0	0	477	443	
6	0	0	0	0	491	441	
7	0	0	0	0	499	441	
8	0	0	0	0	508	441	
9	0	0	0	0	514	445	
10	0	0	0	0	515	448	
11	0	0	0	0	518	451	
12	0	0	0	0	519	458	
13	0	0	0	0	520	466	
14	0	0	0	0	527	476	
15	0	0	0	0	534	487	
0	0	0	0	0	521	496	
1	0	0	0	0	502	500	
2	0	0	0	0	491	502	
3	0	0	0	0	482	503	
4	0	0	0	0	467	498	
5	0	0	0	0	468	492	
6	0	0	0	0	483	487	
7	0	0	0	0	497	486	
8	0	0	0	0	505	486	
9	0	0	0	0	513	486	
10	0	0	0	0	520	487	
11	0	0	0	0	524	489	
12	0	0	0	0	526	493	
13	0	0	0	0	530	496	
14	0	0	0	0	536	501	
15	0	0	0	0	543	510	
0	0	0	0	0	545	518	
1	0	0	0	0	523	522	
2	0	0	0	0	508	523	
3	0	0	0	0	500	524	
4	0	0	0	0	483	520	
5	0	0	0	0	472	513	
6	0	0	0	0	479	504	
7	0	0	0	0	491	499	
8	0	0	0	0	504	496	
9	0	0	0	0	511	494	
10	0	0	0	0	519	495	
11	0	0	0	0	521	496	
12	0	0	0	0	521	497	
13	0	0	0	0	529	499	
14	0	0	0	0	529	502	
15	0	0	0	0	532	507	
0	0	0	0	0	540	517	
1	0	0	0	0	537	525	
2	0	0	0	0	513	528	
3	0	0	0	0	501	529	
4	0	0	0	0	496	529	
