# OpenSignals Text File Format. Version 1
# {"98:D3:41:FD:4F:50": {"position": 0, "device": "bitalino_rev", "device name": "98:D3:41:FD:4F:50", "device connection": "BTH98:D3:41:FD:4F:50", "sampling rate": 1000, "resolution": [4, 1, 1, 1, 1, 10, 10], "firmware version": 1282, "comments": "", "keywords": "", "mode": 0, "sync interval": 2, "date": "2025-7-2", "time": "12:19:20.187", "channels": [1, 2], "sensor": ["EMGBITREV", "ECGBIT"], "label": ["A1", "A2"], "column": ["nSeq", "I1", "I2", "O1", "O2", "A1", "A2"], "special": [{}, {}], "digital IO": [0, 0, 1, 1]}}
# EndOfHeader
0	0	0	0	0	510	486	
1	0	0	0	0	511	486	
2	0	0	0	0	515	486	
3	0	0	0	0	513	487	
4	0	0	0	0	523	490	
5	0	0	0	0	515	492	
6	0	0	0	0	511	493	
7	0	0	0	0	502	492	
8	0	0	0	0	499	492	
9	0	0	0	0	498	490	
10	0	0	0	0	502	488	
11	0	0	0	0	508	488	
12	0	0	0	0	509	489	
13	0	0	0	0	510	487	
14	0	0	0	0	509	489	
15	0	0	0	0	508	491	
0	0	0	0	0	511	492	
1	0	0	0	0	512	491	
2	0	0	0	0	513	491	
3	0	0	0	0	519	492	
4	0	0	0	0	517	497	
5	0	0	0	0	515	499	
6	0	0	0	0	507	500	
7	0	0	0	0	510	499	
8	0	0	0	0	502	498	
9	0	0	0	0	497	496	
10	0	0	0	0	502	493	
11	0	0	0	0	508	491	
12	0	0	0	0	508	492	
13	0	0	0	0	510	493	
14	0	0	0	0	509	493	
15	0	0	0	0	508	493	
0	0	0	0	0	509	494	
1	0	0	0	0	512	494	
2	0	0	0	0	512	493	
3	0	0	0	0	513	494	
4	0	0	0	0	519	495	
5	0	0	0	0	518	500	
6	0	0	0	0	514	501	
7	0	0	0	0	510	502	
8	0	0	0	0	504	503	
9	0	0	0	0	498	502	
10	0	0	0	0	498	501	
11	0	0	0	0	507	499	
12	0	0	0	0	507	497	
13	0	0	0	0	506	497	
14	0	0	0	0	508	497	
15	0	0	0	0	512	498	
0	0	0	0	0	513	499	
1	0	0	0	0	512	499	
2	0	0	0	0	512	499	
3	0	0	0	0	510	500	
4	0	0	0	0	516	503	
5	0	0	0	0	512	506	
6	0	0	0	0	517	507	
7	0	0	0	0	519	508	
8	0	0	0	0	511	508	
9	0	0	0	0	508	506	
10	0	0	0	0	502	504	
11	0	0	0	0	499	502	
12	0	0	0	0	502	499	
13	0	0	0	0	507	497	
14	0	0	0	0	508	496	
15	0	0	0	0	508	497	
0	0	0	0	0	510	498	
1	0	0	0	0	509	499	
2	0	0	0	0	512	499	
3	0	0	0	0	509	499	
4	0	0	0	0	514	499	
5	0	0	0	0	519	499	
6	0	0	0	0	515	503	
7	0	0	0	0	519	504	
8	0	0	0	0	513	503	
9	0	0	0	0	512	501	
10	0	0	0	0	504	502	
11	0	0	0	0	497	502	
12	0	0	0	0	500	500	
13	0	0	0	0	502	498	
14	0	0	0	0	505	497	
15	0	0	0	0	508	497	
0	0	0	0	0	510	499	
1	0	0	0	0	511	499	
2	0	0	0	0	512	500	
3	0	0	0	0	511	500	
4	0	0	0	0	511	500	
5	0	0	0	0	517	501	
6	0	0	0	0	524	504	
7	0	0	0	0	526	507	
8	0	0	0	0	519	507	
9	0	0	0	0	515	507	
10	0	0	0	0	509	506	
11	0	0	0	0	501	505	
12	0	0	0	0	497	505	
13	0	0	0	0	503	503	
14	0	0	0	0	504	501	
15	0	0	0	0	505	503	
0	0	0	0	0	507	504	
1	0	0	0	0	510	504	
2	0	0	0	0	512	503	
3	0	0	0	0	510	502	
4	0	0	0	0	510	502	
5	0	0	0	0	509	502	
6	0	0	0	0	514	502	
7	0	0	0	0	512	506	
8	0	0	0	0	515	508	
9	0	0	0	0	508	509	
10	0	0	0	0	503	508	
11	0	0	0	0	504	508	
12	0	0	0	0	497	508	
13	0	0	0	0	497	506	
14	0	0	0	0	502	503	
15	0	0	0	0	504	503	
0	0	0	0	0	507	504	
1	0	0	0	0	508	504	
2	0	0	0	0	512	506	
3	0	0	0	0	514	507	
4	0	0	0	0	513	507	
5	0	0	0	0	511	509	
6	0	0	0	0	516	510	
7	0	0	0	0	519	511	
8	0	0	0	0	517	515	
9	0	0	0	0	518	515	
10	0	0	0	0	511	515	
11	0	0	0	0	509	515	
12	0	0	0	0	502	513	
13	0	0	0	0	497	511	
14	0	0	0	0	500	509	
15	0	0	0	0	502	506	
0	0	0	0	0	506	506	
1	0	0	0	0	512	505	
2	0	0	0	0	511	505	
3	0	0	0	0	508	506	
4	0	0	0	0	506	508	
5	0	0	0	0	508	509	
6	0	0	0	0	507	510	
7	0	0	0	0	514	511	
8	0	0	0	0	520	512	
9	0	0	0	0	519	515	
10	0	0	0	0	513	517	
11	0	0	0	0	510	519	
12	0	0	0	0	504	520	
13	0	0	0	0	498	521	
14	0	0	0	0	496	519	
15	0	0	0	0	500	514	
0	0	0	0	0	506	510	
1	0	0	0	0	511	511	
2	0	0	0	0	513	510	
3	0	0	0	0	512	510	
4	0	0	0	0	513	509	
5	0	0	0	0	512	508	
6	0	0	0	0	516	508	
7	0	0	0	0	513	507	
8	0	0	0	0	518	506	
9	0	0	0	0	514	508	
10	0	0	0	0	526	507	
11	0	0	0	0	516	507	
12	0	0	0	0	509	506	
13	0	0	0	0	503	508	
14	0	0	0	0	496	507	
15	0	0	0	0	501	504	
0	0	0	0	0	504	502	
1	0	0	0	0	510	500	
2	0	0	0	0	510	500	
3	0	0	0	0	511	498	
4	0	0	0	0	510	498	
5	0	0	0	0	508	499	
6	0	0	0	0	510	498	
7	0	0	0	0	512	497	
8	0	0	0	0	511	498	
9	0	0	0	0	520	499	
10	0	0	0	0	520	501	
11	0	0	0	0	514	502	
12	0	0	0	0	511	503	
13	0	0	0	0	509	504	
14	0	0	0	0	502	503	
15	0	0	0	0	498	502	
0	0	0	0	0	502	500	
1	0	0	0	0	507	497	
2	0	0	0	0	508	497	
3	0	0	0	0	508	496	
4	0	0	0	0	508	497	
5	0	0	0	0	508	496	
6	0	0	0	0	510	497	
7	0	0	0	0	512	497	
8	0	0	0	0	513	497	
9	0	0	0	0	518	496	
10	0	0	0	0	522	497	
11	0	0	0	0	523	500	
12	0	0	0	0	518	500	
13	0	0	0	0	511	500	
14	0	0	0	0	508	499	
15	0	0	0	0	498	499	
0	0	0	0	0	496	498	
1	0	0	0	0	502	496	
2	0	0	0	0	510	494	
3	0	0	0	0	509	496	
4	0	0	0	0	508	496	
5	0	0	0	0	509	496	
6	0	0	0	0	512	496	
7	0	0	0	0	511	495	
8	0	0	0	0	515	495	
9	0	0	0	0	514	494	
10	0	0	0	0	521	492	
11	0	0	0	0	524	493	
12	0	0	0	0	526	493	
13	0	0	0	0	521	492	
14	0	0	0	0	515	490	
15	0	0	0	0	511	489	
0	0	0	0	0	507	487	
1	0	0	0	0	507	483	
2	0	0	0	0	511	481	
3	0	0	0	0	510	481	
4	0	0	0	0	511	485	
5	0	0	0	0	514	488	
6	0	0	0	0	515	492	
7	0	0	0	0	515	495	
8	0	0	0	0	511	499	
9	0	0	0	0	507	503	
10	0	0	0	0	509	504	
11	0	0	0	0	511	506	
12	0	0	0	0	511	514	
13	0	0	0	0	506	519	
14	0	0	0	0	495	525	
15	0	0	0	0	491	530	
0	0	0	0	0	487	534	
1	0	0	0	0	483	537	
2	0	0	0	0	487	539	
3	0	0	0	0	491	540	
4	0	0	0	0	490	544	
5	0	0	0	0	489	551	
6	0	0	0	0	483	560	
7	0	0	0	0	485	568	
8	0	0	0	0	487	572	
9	0	0	0	0	491	574	
10	0	0	0	0	492	574	
11	0	0	0	0	496	574	
12	0	0	0	0	501	572	
13	0	0	0	0	516	572	
14	0	0	0	0	514	567	
15	0	0	0	0	510	560	
0	0	0	0	0	512	553	
1	0	0	0	0	510	543	
2	0	0	0	0	512	532	
3	0	0	0	0	516	517	
4	0	0	0	0	525	504	
5	0	0	0	0	524	492	
6	0	0	0	0	525	481	
7	0	0	0	0	533	471	
8	0	0	0	0	536	460	
9	0	0	0	0	533	454	
10	0	0	0	0	534	448	
11	0	0	0	0	532	441	
12	0	0	0	0	532	436	
13	0	0	0	0	525	436	
14	0	0	0	0	520	439	
15	0	0	0	0	513	442	
0	0	0	0	0	504	444	
1	0	0	0	0	501	447	
2	0	0	0	0	493	450	
3	0	0	0	0	495	453	
4	0	0	0	0	501	455	
5	0	0	0	0	505	460	
6	0	0	0	0	511	464	
7	0	0	0	0	514	468	
8	0	0	0	0	513	473	
9	0	0	0	0	515	477	
10	0	0	0	0	515	481	
11	0	0	0	0	519	484	
12	0	0	0	0	521	487	
13	0	0	0	0	525	491	
14	0	0	0	0	523	497	
15	0	0	0	0	521	499	
0	0	0	0	0	517	500	
1	0	0	0	0	511	502	
2	0	0	0	0	505	503	
3	0	0	0	0	502	503	
4	0	0	0	0	504	503	
5	0	0	0	0	507	502	
6	0	0	0	0	511	504	
7	0	0	0	0	514	507	
8	0	0	0	0	515	508	
9	0	0	0	0	515	508	
10	0	0	0	0	514	508	
11	0	0	0	0	513	508	
12	0	0	0	0	512	507	
13	0	0	0	0	515	508	
14	0	0	0	0	520	508	
15	0	0	0	0	522	512	
0	0	0	0	0	514	513	
1	0	0	0	0	507	514	
2	0	0	0	0	504	513	
3	0	0	0	0	495	512	
4	0	0	0	0	488	511	
5	0	0	0	0	493	505	
6	0	0	0	0	496	505	
7	0	0	0	0	499	506	
8	0	0	0	0	506	507	
9	0	0	0	0	504	508	
10	0	0	0	0	505	509	
11	0	0	0	0	508	511	
12	0	0	0	0	507	511	
13	0	0	0	0	511	512	
14	0	0	0	0	516	513	
15	0	0	0	0	514	515	
0	0	0	0	0	517	519	
1	0	0	0	0	511	519	
2	0	0	0	0	507	519	
3	0	0	0	0	503	518	
4	0	0	0	0	498	518	
5	0	0	0	0	497	515	
6	0	0	0	0	503	512	
7	0	0	0	0	504	512	
8	0	0	0	0	509	512	
9	0	0	0	0	508	512	
10	0	0	0	0	509	512	
11	0	0	0	0	509	512	
12	0	0	0	0	510	512	
13	0	0	0	0	509	512	
14	0	0	0	0	514	511	
15	0	0	0	0	519	511	
0	0	0	0	0	518	515	
1	0	0	0	0	517	516	
2	0	0	0	0	510	518	
3	0	0	0	0	508	519	
4	0	0	0	0	505	519	
5	0	0	0	0	498	519	
6	0	0	0	0	497	518	
7	0	0	0	0	504	515	
8	0	0	0	0	506	516	
9	0	0	0	0	511	516	
10	0	0	0	0	512	518	
11	0	0	0	0	511	518	
12	0	0	0	0	511	518	
13	0	0	0	0	513	518	
14	0	0	0	0	509	518	
15	0	0	0	0	515	519	
0	0	0	0	0	522	520	
1	0	0	0	0	519	524	
2	0	0	0	0	515	524	
3	0	0	0	0	512	525	
4	0	0	0	0	507	525	
5	0	0	0	0	499	524	
6	0	0	0	0	498	523	
7	0	0	0	0	504	520	
8	0	0	0	0	504	518	
9	0	0	0	0	505	519	
10	0	0	0	0	508	519	
11	0	0	0	0	508	519	
12	0	0	0	0	511	519	
13	0	0	0	0	509	519	
14	0	0	0	0	511	519	
15	0	0	0	0	511	519	
0	0	0	0	0	518	520	
1	0	0	0	0	519	522	
2	0	0	0	0	521	525	
3	0	0	0	0	513	527	
4	0	0	0	0	508	527	
5	0	0	0	0	501	527	
6	0	0	0	0	502	528	
7	0	0	0	0	500	527	
8	0	0	0	0	503	524	
9	0	0	0	0	505	523	
10	0	0	0	0	508	524	
11	0	0	0	0	510	524	
12	0	0	0	0	513	524	
13	0	0	0	0	513	523	
14	0	0	0	0	512	523	
15	0	0	0	0	512	524	
0	0	0	0	0	513	524	
1	0	0	0	0	519	524	
2	0	0	0	0	519	529	
3	0	0	0	0	518	531	
4	0	0	0	0	512	532	
5	0	0	0	0	508	533	
6	0	0	0	0	501	534	
7	0	0	0	0	495	533	
8	0	0	0	0	496	531	
9	0	0	0	0	507	529	
10	0	0	0	0	507	529	
11	0	0	0	0	508	530	
12	0	0	0	0	510	529	
13	0	0	0	0	512	530	
14	0	0	0	0	514	532	
15	0	0	0	0	510	533	
0	0	0	0	0	510	534	
1	0	0	0	0	515	537	
2	0	0	0	0	520	539	
3	0	0	0	0	522	543	
4	0	0	0	0	516	543	
5	0	0	0	0	510	544	
6	0	0	0	0	508	545	
7	0	0	0	0	502	545	
8	0	0	0	0	499	543	
9	0	0	0	0	503	541	
10	0	0	0	0	509	538	
11	0	0	0	0	506	539	
12	0	0	0	0	509	540	
13	0	0	0	0	508	543	
14	0	0	0	0	506	543	
15	0	0	0	0	511	543	
0	0	0	0	0	511	544	
1	0	0	0	0	515	544	
2	0	0	0	0	516	546	
3	0	0	0	0	515	551	
4	0	0	0	0	516	551	
5	0	0	0	0	510	553	
6	0	0	0	0	508	553	
7	0	0	0	0	504	554	
8	0	0	0	0	498	554	
9	0	0	0	0	499	552	
10	0	0	0	0	502	549	
11	0	0	0	0	508	549	
12	0	0	0	0	509	549	
13	0	0	0	0	511	550	
14	0	0	0	0	510	550	
15	0	0	0	0	511	551	
0	0	0	0	0	509	550	
1	0	0	0	0	512	549	
2	0	0	0	0	513	550	
3	0	0	0	0	520	551	
4	0	0	0	0	519	556	
5	0	0	0	0	519	556	
6	0	0	0	0	513	556	
7	0	0	0	0	509	555	
8	0	0	0	0	504	555	
9	0	0	0	0	497	553	
10	0	0	0	0	501	548	
11	0	0	0	0	501	545	
12	0	0	0	0	503	545	
13	0	0	0	0	509	543	
14	0	0	0	0	511	543	
15	0	0	0	0	512	542	
0	0	0	0	0	512	542	
1	0	0	0	0	512	541	
2	0	0	0	0	510	540	
3	0	0	0	0	514	539	
4	0	0	0	0	519	539	
5	0	0	0	0	519	540	
6	0	0	0	0	514	540	
7	0	0	0	0	510	539	
8	0	0	0	0	506	539	
9	0	0	0	0	499	537	
10	0	0	0	0	498	535	
11	0	0	0	0	502	529	
12	0	0	0	0	505	526	
13	0	0	0	0	506	524	
14	0	0	0	0	508	522	
15	0	0	0	0	511	519	
0	0	0	0	0	509	517	
1	0	0	0	0	510	514	
2	0	0	0	0	511	513	
3	0	0	0	0	512	511	
4	0	0	0	0	514	509	
5	0	0	0	0	524	512	
6	0	0	0	0	524	509	
7	0	0	0	0	515	509	
8	0	0	0	0	508	508	
9	0	0	0	0	503	506	
10	0	0	0	0	496	503	
11	0	0	0	0	495	499	
12	0	0	0	0	504	495	
13	0	0	0	0	505	492	
14	0	0	0	0	508	491	
15	0	0	0	0	508	491	
0	0	0	0	0	507	490	
1	0	0	0	0	510	489	
2	0	0	0	0	512	487	
3	0	0	0	0	513	485	
4	0	0	0	0	514	482	
5	0	0	0	0	519	480	
6	0	0	0	0	515	482	
7	0	0	0	0	514	482	
8	0	0	0	0	510	483	
9	0	0	0	0	506	485	
10	0	0	0	0	499	485	
11	0	0	0	0	497	484	
12	0	0	0	0	499	482	
13	0	0	0	0	506	479	
14	0	0	0	0	505	478	
15	0	0	0	0	509	477	
0	0	0	0	0	511	477	
1	0	0	0	0	510	476	
2	0	0	0	0	510	476	
3	0	0	0	0	510	475	
4	0	0	0	0	513	473	
5	0	0	0	0	515	472	
6	0	0	0	0	520	472	
7	0	0	0	0	520	476	
8	0	0	0	0	518	479	
9	0	0	0	0	514	480	
10	0	0	0	0	507	478	
11	0	0	0	0	501	477	
12	0	0	0	0	498	475	
13	0	0	0	0	502	471	
14	0	0	0	0	505	472	
15	0	0	0	0	505	473	
0	0	0	0	0	508	473	
1	0	0	0	0	508	474	
2	0	0	0	0	508	476	
3	0	0	0	0	511	475	
4	0	0	0	0	510	476	
5	0	0	0	0	511	476	
6	0	0	0	0	515	475	
7	0	0	0	0	524	479	
8	0	0	0	0	526	478	
9	0	0	0	0	516	478	
10	0	0	0	0	511	475	
11	0	0	0	0	510	475	
12	0	0	0	0	502	475	
13	0	0	0	0	499	473	
14	0	0	0	0	503	471	
15	0	0	0	0	505	471	
0	0	0	0	0	509	472	
1	0	0	0	0	510	472	
2	0	0	0	0	510	473	
3	0	0	0	0	511	472	
4	0	0	0	0	513	471	
5	0	0	0	0	511	471	
6	0	0	0	0	512	471	
7	0	0	0	0	519	472	
8	0	0	0	0	520	478	
9	0	0	0	0	518	480	
10	0	0	0	0	509	481	
11	0	0	0	0	508	481	
12	0	0	0	0	501	481	
13	0	0	0	0	497	479	
14	0	0	0	0	498	478	
15	0	0	0	0	503	476	
0	0	0	0	0	505	477	
1	0	0	0	0	508	477	
2	0	0	0	0	510	477	
3	0	0	0	0	511	478	
4	0	0	0	0	512	478	
5	0	0	0	0	512	477	
6	0	0	0	0	514	477	
7	0	0	0	0	514	477	
8	0	0	0	0	519	476	
9	0	0	0	0	521	479	
10	0	0	0	0	516	483	
11	0	0	0	0	509	484	
12	0	0	0	0	506	487	
13	0	0	0	0	499	489	
14	0	0	0	0	496	489	
15	0	0	0	0	502	487	
0	0	0	0	0	506	485	
1	0	0	0	0	508	485	
2	0	0	0	0	508	486	
3	0	0	0	0	511	486	
4	0	0	0	0	511	486	
5	0	0	0	0	508	484	
6	0	0	0	0	511	486	
7	0	0	0	0	512	486	
8	0	0	0	0	514	487	
9	0	0	0	0	521	493	
10	0	0	0	0	519	492	
11	0	0	0	0	515	493	
12	0	0	0	0	510	493	
13	0	0	0	0	505	494	
14	0	0	0	0	498	493	
15	0	0	0	0	498	492	
0	0	0	0	0	501	490	
1	0	0	0	0	507	489	
2	0	0	0	0	509	489	
3	0	0	0	0	511	491	
4	0	0	0	0	511	491	
5	0	0	0	0	510	491	
6	0	0	0	0	513	491	
7	0	0	0	0	512	491	
8	0	0	0	0	511	492	
9	0	0	0	0	523	492	
10	0	0	0	0	521	496	
11	0	0	0	0	518	496	
12	0	0	0	0	512	496	
13	0	0	0	0	508	497	
14	0	0	0	0	501	497	
15	0	0	0	0	497	498	
0	0	0	0	0	496	498	
1	0	0	0	0	505	496	
2	0	0	0	0	507	494	
3	0	0	0	0	508	494	
4	0	0	0	0	509	494	
5	0	0	0	0	510	495	
6	0	0	0	0	509	497	
7	0	0	0	0	509	497	
8	0	0	0	0	512	497	
9	0	0	0	0	518	498	
10	0	0	0	0	519	499	
11	0	0	0	0	521	502	
12	0	0	0	0	518	502	
13	0	0	0	0	513	502	
14	0	0	0	0	509	503	
15	0	0	0	0	500	504	
0	0	0	0	0	496	502	
1	0	0	0	0	497	499	
2	0	0	0	0	503	497	
3	0	0	0	0	507	499	
4	0	0	0	0	512	499	
5	0	0	0	0	512	500	
6	0	0	0	0	511	500	
7	0	0	0	0	512	500	
8	0	0	0	0	515	502	
9	0	0	0	0	512	502	
10	0	0	0	0	516	503	
11	0	0	0	0	521	504	
12	0	0	0	0	523	505	
13	0	0	0	0	514	505	
14	0	0	0	0	510	505	
15	0	0	0	0	504	506	
0	0	0	0	0	496	507	
1	0	0	0	0	496	506	
2	0	0	0	0	504	503	
3	0	0	0	0	504	501	
4	0	0	0	0	505	502	
5	0	0	0	0	507	504	
6	0	0	0	0	507	505	
7	0	0	0	0	511	505	
8	0	0	0	0	512	506	
9	0	0	0	0	510	505	
10	0	0	0	0	513	504	
11	0	0	0	0	517	504	
12	0	0	0	0	518	507	
13	0	0	0	0	516	508	
14	0	0	0	0	513	509	
15	0	0	0	0	510	509	
0	0	0	0	0	503	508	
1	0	0	0	0	499	507	
2	0	0	0	0	499	505	
3	0	0	0	0	505	502	
4	0	0	0	0	507	502	
5	0	0	0	0	510	503	
6	0	0	0	0	508	503	
7	0	0	0	0	508	503	
8	0	0	0	0	508	504	
9	0	0	0	0	510	504	
10	0	0	0	0	512	503	
11	0	0	0	0	513	504	
12	0	0	0	0	516	504	
13	0	0	0	0	523	507	
14	0	0	0	0	519	507	
15	0	0	0	0	511	508	
0	0	0	0	0	509	508	
1	0	0	0	0	503	507	
2	0	0	0	0	499	505	
3	0	0	0	0	505	502	
4	0	0	0	0	509	499	
5	0	0	0	0	508	499	
6	0	0	0	0	512	499	
7	0	0	0	0	512	499	
8	0	0	0	0	511	499	
9	0	0	0	0	514	499	
10	0	0	0	0	510	499	
11	0	0	0	0	513	499	
12	0	0	0	0	518	498	
13	0	0	0	0	518	502	
14	0	0	0	0	517	503	
15	0	0	0	0	510	504	
0	0	0	0	0	507	505	
1	0	0	0	0	500	505	
2	0	0	0	0	495	504	
3	0	0	0	0	499	502	
4	0	0	0	0	507	500	
5	0	0	0	0	507	498	
6	0	0	0	0	509	497	
7	0	0	0	0	510	498	
8	0	0	0	0	507	499	
9	0	0	0	0	510	499	
10	0	0	0	0	510	500	
11	0	0	0	0	512	501	
12	0	0	0	0	512	501	
13	0	0	0	0	518	502	
14	0	0	0	0	518	505	
15	0	0	0	0	517	506	
0	0	0	0	0	514	507	
1	0	0	0	0	508	507	
2	0	0	0	0	504	508	
3	0	0	0	0	500	507	
4	0	0	0	0	498	505	
5	0	0	0	0	503	503	
6	0	0	0	0	506	502	
7	0	0	0	0	509	502	
8	0	0	0	0	508	504	
9	0	0	0	0	512	505	
10	0	0	0	0	513	505	
11	0	0	0	0	515	504	
12	0	0	0	0	517	504	
13	0	0	0	0	519	504	
14	0	0	0	0	524	504	
15	0	0	0	0	523	505	
0	0	0	0	0	517	506	
1	0	0	0	0	509	507	
2	0	0	0	0	505	508	
3	0	0	0	0	496	508	
4	0	0	0	0	492	507	
5	0	0	0	0	497	505	
6	0	0	0	0	504	504	
7	0	0	0	0	505	505	
8	0	0	0	0	508	504	
9	0	0	0	0	510	504	
10	0	0	0	0	512	505	
11	0	0	0	0	510	505	
12	0	0	0	0	510	506	
13	0	0	0	0	509	507	
14	0	0	0	0	514	508	
15	0	0	0	0	515	510	
0	0	0	0	0	518	513	
1	0	0	0	0	511	513	
2	0	0	0	0	510	513	
3	0	0	0	0	505	513	
4	0	0	0	0	497	512	
5	0	0	0	0	497	512	
6	0	0	0	0	504	510	
7	0	0	0	0	502	508	
8	0	0	0	0	509	509	
9	0	0	0	0	513	509	
10	0	0	0	0	514	511	
11	0	0	0	0	515	512	
12	0	0	0	0	514	514	
13	0	0	0	0	512	516	
14	0	0	0	0	512	515	
15	0	0	0	0	518	515	
0	0	0	0	0	517	519	
1	0	0	0	0	517	522	
2	0	0	0	0	511	523	
3	0	0	0	0	508	523	
4	0	0	0	0	501	521	
5	0	0	0	0	496	519	
6	0	0	0	0	495	518	
7	0	0	0	0	499	514	
8	0	0	0	0	499	515	
9	0	0	0	0	505	514	
10	0	0	0	0	508	515	
11	0	0	0	0	512	515	
12	0	0	0	0	512	516	
13	0	0	0	0	510	516	
14	0	0	0	0	510	516	
15	0	0	0	0	513	517	
0	0	0	0	0	521	519	
1	0	0	0	0	520	521	
2	0	0	0	0	514	521	
3	0	0	0	0	511	522	
4	0	0	0	0	508	523	
5	0	0	0	0	500	520	
6	0	0	0	0	499	518	
7	0	0	0	0	499	517	
8	0	0	0	0	505	515	
9	0	0	0	0	509	513	
10	0	0	0	0	511	513	
11	0	0	0	0	514	513	
12	0	0	0	0	511	510	
13	0	0	0	0	510	509	
14	0	0	0	0	512	510	
15	0	0	0	0	515	510	
0	0	0	0	0	517	511	
1	0	0	0	0	521	513	
2	0	0	0	0	525	516	
3	0	0	0	0	518	517	
4	0	0	0	0	512	515	
5	0	0	0	0	501	515	
6	0	0	0	0	496	513	
7	0	0	0	0	500	511	
8	0	0	0	0	505	507	
9	0	0	0	0	509	504	
10	0	0	0	0	505	504	
11	0	0	0	0	509	504	
12	0	0	0	0	512	505	
13	0	0	0	0	513	504	
14	0	0	0	0	512	503	
15	0	0	0	0	510	504	
0	0	0	0	0	513	504	
1	0	0	0	0	519	504	
2	0	0	0	0	520	507	
3	0	0	0	0	520	508	
4	0	0	0	0	509	510	
5	0	0	0	0	507	510	
6	0	0	0	0	497	510	
7	0	0	0	0	497	510	
8	0	0	0	0	499	510	
9	0	0	0	0	505	506	
10	0	0	0	0	506	505	
11	0	0	0	0	507	506	
12	0	0	0	0	509	506	
13	0	0	0	0	509	504	
14	0	0	0	0	511	504	
15	0	0	0	0	512	505	
0	0	0	0	0	513	504	
1	0	0	0	0	515	504	
2	0	0	0	0	521	504	
3	0	0	0	0	519	507	
4	0	0	0	0	519	508	
5	0	0	0	0	509	508	
6	0	0	0	0	508	507	
7	0	0	0	0	499	506	
8	0	0	0	0	496	505	
9	0	0	0	0	496	502	
10	0	0	0	0	504	501	
11	0	0	0	0	505	503	
12	0	0	0	0	512	504	
13	0	0	0	0	511	504	
14	0	0	0	0	513	504	
15	0	0	0	0	515	503	
0	0	0	0	0	517	503	
1	0	0	0	0	516	501	
2	0	0	0	0	520	501	
3	0	0	0	0	527	502	
4	0	0	0	0	526	503	
5	0	0	0	0	521	502	
6	0	0	0	0	519	500	
7	0	0	0	0	514	498	
8	0	0	0	0	505	495	
9	0	0	0	0	501	493	
10	0	0	0	0	505	492	
11	0	0	0	0	506	493	
12	0	0	0	0	508	496	
13	0	0	0	0	511	499	
14	0	0	0	0	514	502	
15	0	0	0	0	515	506	
0	0	0	0	0	512	510	
1	0	0	0	0	512	513	
2	0	0	0	0	510	515	
3	0	0	0	0	513	518	
4	0	0	0	0	512	523	
5	0	0	0	0	510	525	
6	0	0	0	0	497	527	
7	0	0	0	0	496	531	
8	0	0	0	0	487	535	
9	0	0	0	0	483	537	
10	0	0	0	0	486	540	
11	0	0	0	0	488	540	
12	0	0	0	0	489	545	
13	0	0	0	0	489	552	
14	0	0	0	0	493	560	
15	0	0	0	0	495	566	
0	0	0	0	0	493	568	
1	0	0	0	0	492	567	
2	0	0	0	0	492	565	
3	0	0	0	0	496	563	
4	0	0	0	0	504	562	
5	0	0	0	0	513	564	
6	0	0	0	0	509	563	
7	0	0	0	0	507	560	
8	0	0	0	0	510	554	
9	0	0	0	0	507	546	
10	0	0	0	0	510	537	
11	0	0	0	0	512	527	
12	0	0	0	0	524	513	
13	0	0	0	0	518	503	
14	0	0	0	0	529	491	
15	0	0	0	0	532	480	
0	0	0	0	0	532	471	
1	0	0	0	0	537	463	
2	0	0	0	0	537	458	
3	0	0	0	0	532	455	
4	0	0	0	0	535	452	
5	0	0	0	0	532	451	
6	0	0	0	0	528	451	
7	0	0	0	0	514	452	
8	0	0	0	0	510	454	
9	0	0	0	0	502	457	
10	0	0	0	0	492	460	
11	0	0	0	0	487	463	
12	0	0	0	0	494	462	
13	0	0	0	0	500	467	
14	0	0	0	0	504	475	
15	0	0	0	0	508	480	
0	0	0	0	0	508	485	
1	0	0	0	0	512	489	
2	0	0	0	0	514	492	
3	0	0	0	0	514	496	
4	0	0	0	0	518	498	
5	0	0	0	0	524	500	
6	0	0	0	0	521	504	
7	0	0	0	0	521	505	
8	0	0	0	0	517	507	
9	0	0	0	0	513	508	
10	0	0	0	0	505	509	
11	0	0	0	0	498	509	
12	0	0	0	0	499	508	
13	0	0	0	0	507	507	
14	0	0	0	0	510	509	
15	0	0	0	0	513	511	
0	0	0	0	0	513	513	
1	0	0	0	0	519	515	
2	0	0	0	0	518	515	
3	0	0	0	0	518	515	
4	0	0	0	0	517	515	
5	0	0	0	0	518	516	
6	0	0	0	0	522	517	
7	0	0	0	0	521	520	
8	0	0	0	0	516	522	
9	0	0	0	0	507	523	
10	0	0	0	0	505	523	
11	0	0	0	0	496	521	
12	0	0	0	0	492	520	
13	0	0	0	0	495	518	
14	0	0	0	0	503	513	
15	0	0	0	0	501	514	
0	0	0	0	0	506	515	
1	0	0	0	0	507	516	
2	0	0	0	0	507	516	
3	0	0	0	0	507	515	
4	0	0	0	0	508	515	
5	0	0	0	0	509	515	
6	0	0	0	0	515	517	
7	0	0	0	0	519	519	
8	0	0	0	0	518	521	
9	0	0	0	0	512	523	
10	0	0	0	0	507	522	
11	0	0	0	0	503	523	
12	0	0	0	0	496	522	
13	0	0	0	0	493	521	
14	0	0	0	0	501	518	
15	0	0	0	0	503	517	
0	0	0	0	0	507	517	
1	0	0	0	0	509	518	
2	0	0	0	0	508	518	
3	0	0	0	0	511	520	
4	0	0	0	0	512	521	
5	0	0	0	0	512	521	
6	0	0	0	0	513	521	
7	0	0	0	0	519	520	
8	0	0	0	0	519	524	
9	0	0	0	0	517	525	
10	0	0	0	0	511	524	
11	0	0	0	0	511	524	
12	0	0	0	0	504	523	
13	0	0	0	0	498	522	
14	0	0	0	0	500	520	
15	0	0	0	0	507	519	
0	0	0	0	0	507	521	
1	0	0	0	0	508	521	
2	0	0	0	0	508	523	
3	0	0	0	0	507	524	
4	0	0	0	0	508	526	
5	0	0	0	0	511	526	
6	0	0	0	0	512	525	
7	0	0	0	0	515	523	
8	0	0	0	0	519	524	
9	0	0	0	0	522	527	
10	0	0	0	0	516	529	
11	0	0	0	0	512	529	
12	0	0	0	0	507	530	
13	0	0	0	0	503	529	
14	0	0	0	0	499	526	
15	0	0	0	0	497	525	
0	0	0	0	0	505	523	
1	0	0	0	0	511	523	
2	0	0	0	0	507	524	
3	0	0	0	0	507	524	
4	0	0	0	0	509	525	
5	0	0	0	0	511	526	
6	0	0	0	0	510	528	
7	0	0	0	0	511	530	
8	0	0	0	0	517	529	
9	0	0	0	0	524	527	
10	0	0	0	0	520	528	
11	0	0	0	0	512	527	
12	0	0	0	0	511	526	
13	0	0	0	0	505	528	
14	0	0	0	0	496	528	
15	0	0	0	0	495	527	
0	0	0	0	0	502	523	
1	0	0	0	0	505	523	
2	0	0	0	0	510	524	
3	0	0	0	0	512	526	
4	0	0	0	0	513	527	
5	0	0	0	0	514	528	
6	0	0	0	0	512	528	
7	0	0	0	0	512	529	
8	0	0	0	0	513	528	
9	0	0	0	0	518	527	
10	0	0	0	0	516	530	
11	0	0	0	0	516	534	
12	0	0	0	0	509	537	
13	0	0	0	0	514	537	
14	0	0	0	0	505	537	
15	0	0	0	0	496	537	
0	0	0	0	0	495	536	
1	0	0	0	0	503	532	
2	0	0	0	0	505	533	
3	0	0	0	0	508	534	
4	0	0	0	0	510	536	
5	0	0	0	0	512	536	
6	0	0	0	0	512	535	
7	0	0	0	0	512	534	
8	0	0	0	0	509	535	
9	0	0	0	0	516	534	
10	0	0	0	0	521	535	
11	0	0	0	0	519	538	
12	0	0	0	0	512	540	
13	0	0	0	0	511	541	
14	0	0	0	0	508	542	
15	0	0	0	0	499	543	
0	0	0	0	0	497	543	
1	0	0	0	0	502	543	
2	0	0	0	0	501	540	
3	0	0	0	0	507	541	
4	0	0	0	0	512	540	
5	0	0	0	0	512	541	
6	0	0	0	0	511	542	
7	0	0	0	0	510	542	
8	0	0	0	0	510	542	
9	0	0	0	0	511	543	
10	0	0	0	0	516	544	
11	0	0	0	0	523	545	
12	0	0	0	0	519	548	
13	0	0	0	0	515	551	
14	0	0	0	0	510	551	
15	0	0	0	0	505	552	
0	0	0	0	0	498	553	
1	0	0	0	0	498	551	
2	0	0	0	0	504	547	
3	0	0	0	0	506	548	
4	0	0	0	0	511	548	
5	0	0	0	0	510	547	
6	0	0	0	0	513	547	
7	0	0	0	0	512	546	
8	0	0	0	0	513	547	
9	0	0	0	0	512	548	
10	0	0	0	0	512	548	
11	0	0	0	0	518	548	
12	0	0	0	0	519	551	
13	0	0	0	0	517	551	
14	0	0	0	0	511	552	
15	0	0	0	0	510	553	
0	0	0	0	0	500	552	
1	0	0	0	0	495	551	
2	0	0	0	0	496	549	
3	0	0	0	0	501	547	
4	0	0	0	0	507	547	
5	0	0	0	0	507	546	
6	0	0	0	0	507	546	
7	0	0	0	0	511	545	
8	0	0	0	0	512	545	
9	0	0	0	0	510	543	
10	0	0	0	0	510	542	
11	0	0	0	0	513	541	
12	0	0	0	0	522	540	
13	0	0	0	0	519	541	
14	0	0	0	0	518	539	
15	0	0	0	0	508	539	
0	0	0	0	0	510	538	
1	0	0	0	0	500	536	
2	0	0	0	0	496	535	
3	0	0	0	0	498	532	
4	0	0	0	0	505	527	
5	0	0	0	0	504	527	
6	0	0	0	0	508	525	
7	0	0	0	0	508	524	
8	0	0	0	0	509	523	
9	0	0	0	0	512	522	
10	0	0	0	0	513	521	
11	0	0	0	0	512	520	
12	0	0	0	0	515	517	
13	0	0	0	0	523	516	
14	0	0	0	0	522	516	
15	0	0	0	0	515	515	
0	0	0	0	0	513	512	
1	0	0	0	0	507	510	
2	0	0	0	0	498	507	
3	0	0	0	0	492	504	
4	0	0	0	0	500	499	
5	0	0	0	0	505	498	
6	0	0	0	0	507	497	
7	0	0	0	0	507	497	
8	0	0	0	0	511	496	
9	0	0	0	0	509	494	
10	0	0	0	0	507	491	
11	0	0	0	0	508	489	
12	0	0	0	0	513	486	
13	0	0	0	0	521	485	
14	0	0	0	0	519	487	
15	0	0	0	0	520	488	
0	0	0	0	0	514	489	
1	0	0	0	0	512	487	
2	0	0	0	0	503	483	
3	0	0	0	0	498	482	
4	0	0	0	0	498	481	
5	0	0	0	0	501	480	
6	0	0	0	0	504	479	
7	0	0	0	0	507	477	
8	0	0	0	0	506	476	
9	0	0	0	0	511	476	
10	0	0	0	0	513	477	
11	0	0	0	0	515	476	
12	0	0	0	0	512	477	
13	0	0	0	0	513	479	
14	0	0	0	0	519	479	
15	0	0	0	0	518	482	
0	0	0	0	0	517	482	
1	0	0	0	0	512	481	
2	0	0	0	0	505	480	
3	0	0	0	0	499	479	
4	0	0	0	0	496	477	
5	0	0	0	0	500	473	
6	0	0	0	0	506	473	
7	0	0	0	0	510	473	
8	0	0	0	0	507	472	
9	0	0	0	0	511	472	
10	0	0	0	0	510	472	
11	0	0	0	0	513	473	
12	0	0	0	0	512	472	
13	0	0	0	0	514	471	
14	0	0	0	0	519	470	
15	0	0	0	0	523	469	
0	0	0	0	0	518	471	
1	0	0	0	0	516	474	
2	0	0	0	0	508	475	
3	0	0	0	0	504	476	
4	0	0	0	0	497	477	
5	0	0	0	0	494	477	
6	0	0	0	0	502	474	
7	0	0	0	0	505	472	
8	0	0	0	0	507	472	
9	0	0	0	0	512	472	
10	0	0	0	0	513	473	
11	0	0	0	0	511	473	
12	0	0	0	0	513	473	
13	0	0	0	0	511	473	
14	0	0	0	0	514	473	
15	0	0	0	0	521	474	
0	0	0	0	0	519	479	
1	0	0	0	0	520	480	
2	0	0	0	0	512	481	
3	0	0	0	0	509	480	
4	0	0	0	0	500	480	
5	0	0	0	0	496	481	
6	0	0	0	0	499	481	
7	0	0	0	0	503	479	
8	0	0	0	0	505	478	
9	0	0	0	0	510	478	
10	0	0	0	0	508	480	
11	0	0	0	0	513	480	
12	0	0	0	0	511	479	
13	0	0	0	0	509	479	
14	0	0	0	0	511	480	
15	0	0	0	0	513	481	
0	0	0	0	0	524	483	
1	0	0	0	0	522	486	
2	0	0	0	0	520	487	
3	0	0	0	0	515	487	
4	0	0	0	0	508	487	
5	0	0	0	0	497	488	
6	0	0	0	0	492	488	
7	0	0	0	0	497	488	
8	0	0	0	0	504	487	
9	0	0	0	0	505	487	
10	0	0	0	0	509	487	
11	0	0	0	0	506	487	
12	0	0	0	0	510	487	
13	0	0	0	0	511	488	
14	0	0	0	0	512	489	
15	0	0	0	0	510	489	
0	0	0	0	0	516	491	
1	0	0	0	0	523	494	
2	0	0	0	0	521	496	
3	0	0	0	0	515	496	
4	0	0	0	0	513	496	
5	0	0	0	0	504	496	
6	0	0	0	0	497	497	
7	0	0	0	0	496	496	
8	0	0	0	0	504	495	
9	0	0	0	0	508	492	
10	0	0	0	0	508	492	
11	0	0	0	0	509	493	
12	0	0	0	0	510	494	
13	0	0	0	0	511	495	
14	0	0	0	0	515	495	
15	0	0	0	0	513	495	
0	0	0	0	0	513	494	
1	0	0	0	0	522	492	
2	0	0	0	0	518	494	
3	0	0	0	0	519	496	
4	0	0	0	0	511	497	
5	0	0	0	0	508	496	
6	0	0	0	0	502	497	
7	0	0	0	0	494	496	
8	0	0	0	0	497	496	
9	0	0	0	0	502	494	
10	0	0	0	0	503	494	
11	0	0	0	0	507	496	
12	0	0	0	0	508	497	
13	0	0	0	0	511	496	
14	0	0	0	0	510	496	
15	0	0	0	0	511	495	
0	0	0	0	0	511	496	
1	0	0	0	0	512	497	
2	0	0	0	0	519	497	
3	0	0	0	0	519	500	
4	0	0	0	0	519	502	
5	0	0	0	0	514	502	
6	0	0	0	0	510	503	
7	0	0	0	0	501	502	
8	0	0	0	0	496	500	
9	0	0	0	0	499	499	
10	0	0	0	0	504	496	
11	0	0	0	0	508	497	
12	0	0	0	0	510	497	
13	0	0	0	0	510	499	
14	0	0	0	0	511	499	
15	0	0	0	0	511	497	
0	0	0	0	0	511	497	
1	0	0	0	0	513	496	
2	0	0	0	0	515	496	
3	0	0	0	0	520	497	
4	0	0	0	0	520	501	
5	0	0	0	0	515	503	
6	0	0	0	0	506	503	
7	0	0	0	0	506	503	
8	0	0	0	0	497	503	
9	0	0	0	0	495	502	
10	0	0	0	0	503	499	
11	0	0	0	0	506	496	
12	0	0	0	0	507	496	
13	0	0	0	0	508	497	
14	0	0	0	0	508	497	
15	0	0	0	0	510	497	
0	0	0	0	0	512	497	
1	0	0	0	0	511	497	
2	0	0	0	0	514	497	
3	0	0	0	0	519	498	
4	0	0	0	0	519	500	
5	0	0	0	0	520	502	
6	0	0	0	0	515	502	
7	0	0	0	0	509	503	
8	0	0	0	0	499	503	
9	0	0	0	0	497	504	
10	0	0	0	0	499	502	
11	0	0	0	0	504	500	
12	0	0	0	0	506	500	
13	0	0	0	0	511	501	
14	0	0	0	0	509	501	
15	0	0	0	0	512	501	
0	0	0	0	0	511	502	
1	0	0	0	0	512	501	
2	0	0	0	0	514	500	
3	0	0	0	0	512	498	
4	0	0	0	0	518	498	
5	0	0	0	0	519	501	
6	0	0	0	0	516	502	
7	0	0	0	0	511	502	
8	0	0	0	0	510	502	
9	0	0	0	0	501	500	
10	0	0	0	0	496	500	
11	0	0	0	0	499	499	
12	0	0	0	0	505	496	
13	0	0	0	0	505	497	
14	0	0	0	0	509	498	
15	0	0	0	0	509	499	
0	0	0	0	0	509	499	
1	0	0	0	0	511	499	
2	0	0	0	0	511	500	
3	0	0	0	0	514	500	
4	0	0	0	0	517	499	
5	0	0	0	0	520	500	
6	0	0	0	0	522	503	
7	0	0	0	0	515	504	
8	0	0	0	0	511	505	
9	0	0	0	0	506	505	
10	0	0	0	0	497	505	
11	0	0	0	0	495	504	
12	0	0	0	0	503	501	
13	0	0	0	0	503	500	
14	0	0	0	0	506	499	
15	0	0	0	0	509	499	
0	0	0	0	0	512	499	
1	0	0	0	0	510	500	
2	0	0	0	0	511	501	
3	0	0	0	0	511	501	
4	0	0	0	0	512	500	
5	0	0	0	0	520	499	
6	0	0	0	0	521	499	
7	0	0	0	0	526	502	
8	0	0	0	0	519	504	
9	0	0	0	0	515	502	
10	0	0	0	0	504	502	
11	0	0	0	0	496	501	
12	0	0	0	0	498	499	
13	0	0	0	0	501	497	
14	0	0	0	0	500	498	
15	0	0	0	0	507	500	
0	0	0	0	0	510	501	
1	0	0	0	0	509	501	
2	0	0	0	0	511	501	
3	0	0	0	0	512	501	
4	0	0	0	0	509	501	
5	0	0	0	0	509	501	
6	0	0	0	0	518	502	
7	0	0	0	0	519	505	
8	0	0	0	0	515	507	
9	0	0	0	0	510	508	
10	0	0	0	0	507	508	
11	0	0	0	0	498	508	
12	0	0	0	0	494	507	
13	0	0	0	0	499	506	
14	0	0	0	0	504	504	
15	0	0	0	0	507	504	
0	0	0	0	0	510	504	
1	0	0	0	0	510	504	
2	0	0	0	0	512	504	
3	0	0	0	0	513	505	
4	0	0	0	0	512	505	
5	0	0	0	0	512	505	
6	0	0	0	0	516	505	
7	0	0	0	0	522	507	
8	0	0	0	0	521	509	
9	0	0	0	0	515	511	
10	0	0	0	0	511	511	
11	0	0	0	0	507	512	
12	0	0	0	0	496	511	
13	0	0	0	0	498	511	
14	0	0	0	0	498	507	
15	0	0	0	0	505	507	
0	0	0	0	0	507	507	
1	0	0	0	0	508	507	
2	0	0	0	0	508	507	
3	0	0	0	0	508	508	
4	0	0	0	0	509	508	
5	0	0	0	0	508	508	
6	0	0	0	0	510	508	
7	0	0	0	0	518	508	
8	0	0	0	0	518	513	
9	0	0	0	0	521	514	
10	0	0	0	0	512	514	
11	0	0	0	0	508	514	
12	0	0	0	0	502	514	
13	0	0	0	0	496	514	
14	0	0	0	0	497	512	
15	0	0	0	0	502	510	
0	0	0	0	0	506	508	
1	0	0	0	0	510	508	
2	0	0	0	0	511	508	
3	0	0	0	0	508	507	
4	0	0	0	0	510	506	
5	0	0	0	0	511	506	
6	0	0	0	0	514	505	
7	0	0	0	0	515	505	
8	0	0	0	0	519	505	
9	0	0	0	0	519	507	
10	0	0	0	0	519	508	
11	0	0	0	0	513	508	
12	0	0	0	0	510	509	
13	0	0	0	0	497	510	
14	0	0	0	0	496	509	
15	0	0	0	0	497	507	
0	0	0	0	0	502	503	
1	0	0	0	0	508	503	
2	0	0	0	0	509	503	
3	0	0	0	0	511	503	
4	0	0	0	0	512	501	
5	0	0	0	0	513	499	
6	0	0	0	0	515	499	
7	0	0	0	0	511	498	
8	0	0	0	0	518	498	
9	0	0	0	0	523	498	
10	0	0	0	0	522	500	
11	0	0	0	0	518	500	
12	0	0	0	0	512	501	
13	0	0	0	0	505	500	
14	0	0	0	0	498	499	
15	0	0	0	0	497	498	
0	0	0	0	0	504	496	
1	0	0	0	0	505	495	
2	0	0	0	0	507	496	
3	0	0	0	0	506	497	
4	0	0	0	0	510	497	
5	0	0	0	0	511	498	
6	0	0	0	0	512	498	
7	0	0	0	0	511	499	
8	0	0	0	0	513	499	
9	0	0	0	0	517	498	
10	0	0	0	0	519	500	
11	0	0	0	0	519	502	
12	0	0	0	0	513	503	
13	0	0	0	0	511	503	
14	0	0	0	0	501	503	
15	0	0	0	0	493	504	
0	0	0	0	0	497	503	
1	0	0	0	0	505	499	
2	0	0	0	0	508	498	
3	0	0	0	0	510	499	
4	0	0	0	0	512	500	
5	0	0	0	0	510	500	
6	0	0	0	0	509	500	
7	0	0	0	0	512	499	
8	0	0	0	0	514	499	
9	0	0	0	0	515	497	
10	0	0	0	0	525	496	
11	0	0	0	0	524	496	
12	0	0	0	0	521	496	
13	0	0	0	0	516	495	
14	0	0	0	0	516	493	
15	0	0	0	0	507	491	
0	0	0	0	0	506	489	
1	0	0	0	0	504	487	
2	0	0	0	0	508	483	
3	0	0	0	0	509	483	
4	0	0	0	0	510	483	
5	0	0	0	0	511	484	
6	0	0	0	0	511	487	
7	0	0	0	0	510	491	
8	0	0	0	0	513	496	
9	0	0	0	0	515	499	
10	0	0	0	0	517	501	
11	0	0	0	0	525	504	
12	0	0	0	0	522	509	
13	0	0	0	0	513	512	
14	0	0	0	0	508	515	
15	0	0	0	0	498	518	
0	0	0	0	0	491	520	
1	0	0	0	0	489	521	
2	0	0	0	0	493	521	
3	0	0	0	0	492	522	
4	0	0	0	0	496	524	
5	0	0	0	0	497	526	
6	0	0	0	0	495	529	
7	0	0	0	0	491	534	
8	0	0	0	0	491	539	
9	0	0	0	0	494	543	
10	0	0	0	0	494	547	
11	0	0	0	0	503	547	
12	0	0	0	0	502	548	
13	0	0	0	0	500	549	
14	0	0	0	0	495	548	
15	0	0	0	0	493	546	
0	0	0	0	0	494	544	
1	0	0	0	0	490	540	
2	0	0	0	0	495	535	
3	0	0	0	0	508	527	
4	0	0	0	0	515	523	
5	0	0	0	0	521	518	
6	0	0	0	0	527	510	
7	0	0	0	0	530	502	
8	0	0	0	0	529	493	
9	0	0	0	0	533	482	
10	0	0	0	0	531	473	
11	0	0	0	0	536	465	
12	0	0	0	0	544	458	
13	0	0	0	0	543	456	
14	0	0	0	0	535	453	
15	0	0	0	0	525	451	
0	0	0	0	0	518	449	
1	0	0	0	0	509	449	
2	0	0	0	0	498	448	
3	0	0	0	0	499	448	
4	0	0	0	0	498	448	
5	0	0	0	0	499	451	
6	0	0	0	0	499	455	
7	0	0	0	0	501	461	
8	0	0	0	0	505	467	
9	0	0	0	0	508	472	
10	0	0	0	0	509	476	
11	0	0	0	0	511	480	
12	0	0	0	0	520	483	
13	0	0	0	0	523	485	
14	0	0	0	0	524	491	
15	0	0	0	0	519	494	
0	0	0	0	0	513	497	
1	0	0	0	0	508	499	
2	0	0	0	0	500	501	
3	0	0	0	0	497	503	
4	0	0	0	0	505	502	
5	0	0	0	0	506	500	
6	0	0	0	0	511	501	
7	0	0	0	0	511	504	
8	0	0	0	0	513	505	
9	0	0	0	0	514	508	
10	0	0	0	0	515	510	
11	0	0	0	0	516	511	
12	0	0	0	0	517	511	
13	0	0	0	0	524	511	
14	0	0	0	0	526	514	
15	0	0	0	0	523	515	
0	0	0	0	0	516	515	
1	0	0	0	0	513	515	
2	0	0	0	0	504	516	
3	0	0	0	0	496	516	
4	0	0	0	0	495	514	
5	0	0	0	0	500	511	
6	0	0	0	0	503	509	
7	0	0	0	0	503	508	
8	0	0	0	0	504	509	
9	0	0	0	0	507	508	
10	0	0	0	0	509	508	
11	0	0	0	0	508	508	
12	0	0	0	0	508	507	
13	0	0	0	0	512	506	
14	0	0	0	0	518	507	
15	0	0	0	0	518	511	
0	0	0	0	0	516	513	
1	0	0	0	0	510	513	
2	0	0	0	0	508	512	
3	0	0	0	0	502	512	
4	0	0	0	0	497	512	
5	0	0	0	0	497	511	
6	0	0	0	0	499	508	
7	0	0	0	0	502	508	
8	0	0	0	0	506	509	
9	0	0	0	0	506	510	
10	0	0	0	0	505	510	
11	0	0	0	0	509	511	
12	0	0	0	0	508	512	
13	0	0	0	0	511	512	
14	0	0	0	0	513	513	
15	0	0	0	0	521	514	
0	0	0	0	0	523	517	
1	0	0	0	0	518	517	
2	0	0	0	0	511	516	
3	0	0	0	0	508	516	
4	0	0	0	0	499	515	
5	0	0	0	0	495	513	
6	0	0	0	0	504	511	
7	0	0	0	0	503	509	
8	0	0	0	0	507	510	
9	0	0	0	0	508	510	
10	0	0	0	0	509	510	
11	0	0	0	0	511	511	
12	0	0	0	0	511	512	
13	0	0	0	0	511	512	
14	0	0	0	0	512	512	
15	0	0	0	0	518	512	
0	0	0	0	0	518	515	
1	0	0	0	0	521	515	
2	0	0	0	0	511	515	
3	0	0	0	0	509	516	
4	0	0	0	0	502	518	
5	0	0	0	0	498	518	
6	0	0	0	0	497	516	
7	0	0	0	0	504	515	
8	0	0	0	0	507	515	
9	0	0	0	0	509	516	
10	0	0	0	0	510	516	
11	0	0	0	0	510	516	
12	0	0	0	0	512	516	
13	0	0	0	0	512	515	
14	0	0	0	0	512	516	
15	0	0	0	0	510	516	
0	0	0	0	0	517	516	
1	0	0	0	0	519	519	
2	0	0	0	0	518	520	
3	0	0	0	0	510	521	
4	0	0	0	0	508	522	
5	0	0	0	0	502	521	
6	0	0	0	0	497	519	
7	0	0	0	0	502	518	
8	0	0	0	0	504	515	
9	0	0	0	0	507	515	
10	0	0	0	0	511	515	
11	0	0	0	0	512	515	
12	0	0	0	0	512	515	
13	0	0	0	0	512	516	
14	0	0	0	0	512	518	
15	0	0	0	0	510	518	
0	0	0	0	0	515	519	
1	0	0	0	0	519	519	
2	0	0	0	0	521	522	
3	0	0	0	0	515	523	
4	0	0	0	0	509	524	
5	0	0	0	0	505	524	
6	0	0	0	0	498	523	
7	0	0	0	0	495	523	
8	0	0	0	0	499	520	
9	0	0	0	0	504	519	
10	0	0	0	0	510	518	
11	0	0	0	0	510	519	
12	0	0	0	0	511	519	
13	0	0	0	0	509	521	
14	0	0	0	0	512	521	
15	0	0	0	0	513	521	
0	0	0	0	0	512	521	
1	0	0	0	0	521	522	
2	0	0	0	0	520	525	
3	0	0	0	0	521	527	
4	0	0	0	0	513	528	
5	0	0	0	0	510	528	
6	0	0	0	0	502	527	
7	0	0	0	0	496	527	
8	0	0	0	0	499	526	
9	0	0	0	0	502	525	
10	0	0	0	0	504	526	
11	0	0	0	0	506	527	
12	0	0	0	0	509	529	
13	0	0	0	0	510	531	
14	0	0	0	0	512	532	
15	0	0	0	0	512	532	
0	0	0	0	0	512	534	
1	0	0	0	0	512	535	
2	0	0	0	0	521	535	
3	0	0	0	0	518	539	
4	0	0	0	0	516	540	
5	0	0	0	0	511	541	
6	0	0	0	0	510	541	
7	0	0	0	0	502	541	
8	0	0	0	0	497	540	
9	0	0	0	0	501	538	
10	0	0	0	0	505	536	
11	0	0	0	0	506	536	
12	0	0	0	0	508	537	
13	0	0	0	0	511	537	
14	0	0	0	0	512	538	
15	0	0	0	0	510	537	
0	0	0	0	0	512	537	
1	0	0	0	0	514	537	
2	0	0	0	0	515	537	
3	0	0	0	0	520	539	
4	0	0	0	0	521	540	
5	0	0	0	0	513	539	
6	0	0	0	0	509	540	
7	0	0	0	0	507	539	
8	0	0	0	0	499	540	
9	0	0	0	0	495	539	
10	0	0	0	0	503	536	
11	0	0	0	0	504	534	
12	0	0	0	0	507	533	
13	0	0	0	0	510	532	
14	0	0	0	0	508	532	
15	0	0	0	0	510	532	
0	0	0	0	0	510	533	
1	0	0	0	0	511	532	
2	0	0	0	0	511	532	
3	0	0	0	0	517	531	
4	0	0	0	0	517	534	
5	0	0	0	0	518	535	
6	0	0	0	0	511	534	
7	0	0	0	0	505	534	
8	0	0	0	0	503	534	
9	0	0	0	0	501	530	
10	0	0	0	0	499	527	
11	0	0	0	0	503	522	
12	0	0	0	0	505	519	
13	0	0	0	0	511	518	
14	0	0	0	0	511	517	
15	0	0	0	0	512	515	
0	0	0	0	0	515	513	
1	0	0	0	0	512	511	
2	0	0	0	0	511	510	
3	0	0	0	0	512	508	
4	0	0	0	0	519	507	
5	0	0	0	0	518	508	
6	0	0	0	0	515	507	
7	0	0	0	0	512	506	
8	0	0	0	0	509	505	
9	0	0	0	0	502	502	
10	0	0	0	0	498	499	
11	0	0	0	0	498	496	
12	0	0	0	0	503	490	
13	0	0	0	0	505	488	
14	0	0	0	0	507	485	
15	0	0	0	0	510	483	
0	0	0	0	0	510	483	
1	0	0	0	0	508	481	
2	0	0	0	0	510	481	
3	0	0	0	0	510	479	
4	0	0	0	0	514	479	
5	0	0	0	0	517	480	
6	0	0	0	0	519	483	
7	0	0	0	0	513	483	
8	0	0	0	0	512	483	
9	0	0	0	0	506	483	
10	0	0	0	0	499	482	
11	0	0	0	0	496	480	
12	0	0	0	0	504	477	
13	0	0	0	0	503	474	
14	0	0	0	0	504	472	
15	0	0	0	0	511	471	
0	0	0	0	0	512	470	
1	0	0	0	0	513	468	
2	0	0	0	0	513	468	
3	0	0	0	0	513	468	
4	0	0	0	0	514	467	
5	0	0	0	0	519	467	
6	0	0	0	0	518	471	
7	0	0	0	0	521	472	
8	0	0	0	0	511	472	
9	0	0	0	0	509	471	
10	0	0	0	0	500	470	
11	0	0	0	0	496	469	
12	0	0	0	0	499	467	
13	0	0	0	0	504	463	
14	0	0	0	0	504	462	
15	0	0	0	0	505	462	
0	0	0	0	0	510	462	
1	0	0	0	0	511	462	
2	0	0	0	0	513	462	
3	0	0	0	0	512	463	
4	0	0	0	0	511	463	
5	0	0	0	0	513	462	
6	0	0	0	0	519	463	
7	0	0	0	0	519	467	
8	0	0	0	0	520	468	
9	0	0	0	0	513	469	
10	0	0	0	0	508	468	
11	0	0	0	0	501	467	
12	0	0	0	0	498	467	
13	0	0	0	0	499	467	
14	0	0	0	0	506	464	
15	0	0	0	0	508	465	
0	0	0	0	0	511	465	
1	0	0	0	0	510	465	
2	0	0	0	0	510	464	
3	0	0	0	0	508	465	
4	0	0	0	0	510	467	
5	0	0	0	0	512	466	
6	0	0	0	0	513	467	
7	0	0	0	0	520	469	
8	0	0	0	0	521	472	
9	0	0	0	0	514	473	
10	0	0	0	0	511	473	
11	0	0	0	0	511	475	
12	0	0	0	0	499	475	
13	0	0	0	0	495	475	
14	0	0	0	0	500	473	
15	0	0	0	0	507	471	
0	0	0	0	0	507	472	
1	0	0	0	0	512	472	
2	0	0	0	0	515	471	
3	0	0	0	0	510	472	
4	0	0	0	0	512	473	
5	0	0	0	0	510	474	
6	0	0	0	0	510	475	
7	0	0	0	0	517	475	
8	0	0	0	0	518	478	
9	0	0	0	0	521	479	
10	0	0	0	0	513	480	
11	0	0	0	0	510	480	
12	0	0	0	0	504	480	
13	0	0	0	0	496	481	
14	0	0	0	0	497	482	
15	0	0	0	0	504	482	
0	0	0	0	0	506	481	
1	0	0	0	0	508	480	
2	0	0	0	0	511	481	
3	0	0	0	0	510	482	
4	0	0	0	0	513	483	
5	0	0	0	0	510	483	
6	0	0	0	0	509	483	
7	0	0	0	0	513	483	
8	0	0	0	0	521	483	
9	0	0	0	0	521	485	
10	0	0	0	0	513	486	
11	0	0	0	0	510	486	
12	0	0	0	0	508	486	
13	0	0	0	0	504	486	
14	0	0	0	0	499	486	
15	0	0	0	0	500	485	
0	0	0	0	0	502	483	
1	0	0	0	0	504	484	
2	0	0	0	0	510	486	
3	0	0	0	0	513	486	
4	0	0	0	0	511	486	
5	0	0	0	0	511	487	
6	0	0	0	0	512	488	
7	0	0	0	0	511	488	
8	0	0	0	0	516	487	
9	0	0	0	0	524	488	
10	0	0	0	0	522	491	
11	0	0	0	0	513	492	
12	0	0	0	0	508	491	
13	0	0	0	0	507	492	
14	0	0	0	0	498	493	
15	0	0	0	0	497	492	
0	0	0	0	0	502	492	
1	0	0	0	0	505	490	
2	0	0	0	0	506	490	
3	0	0	0	0	510	491	
4	0	0	0	0	511	491	
5	0	0	0	0	509	491	
6	0	0	0	0	511	490	
7	0	0	0	0	511	492	
8	0	0	0	0	510	492	
9	0	0	0	0	516	493	
10	0	0	0	0	517	494	
11	0	0	0	0	522	494	
12	0	0	0	0	512	495	
13	0	0	0	0	511	496	
14	0	0	0	0	503	496	
15	0	0	0	0	497	496	
0	0	0	0	0	499	494	
1	0	0	0	0	505	492	
2	0	0	0	0	509	491	
3	0	0	0	0	506	490	
4	0	0	0	0	510	491	
5	0	0	0	0	511	492	
6	0	0	0	0	510	492	
7	0	0	0	0	510	491	
8	0	0	0	0	512	490	
9	0	0	0	0	512	491	
10	0	0	0	0	520	494	
11	0	0	0	0	518	499	
12	0	0	0	0	515	502	
13	0	0	0	0	511	503	
14	0	0	0	0	507	502	
15	0	0	0	0	503	501	
0	0	0	0	0	498	500	
1	0	0	0	0	498	499	
2	0	0	0	0	506	496	
3	0	0	0	0	507	497	
4	0	0	0	0	511	497	
5	0	0	0	0	512	497	
6	0	0	0	0	512	496	
7	0	0	0	0	512	497	
8	0	0	0	0	511	498	
9	0	0	0	0	512	497	
10	0	0	0	0	514	496	
11	0	0	0	0	521	496	
12	0	0	0	0	522	499	
13	0	0	0	0	515	499	
14	0	0	0	0	510	499	
15	0	0	0	0	505	499	
0	0	0	0	0	498	500	
1	0	0	0	0	495	499	
2	0	0	0	0	502	497	
3	0	0	0	0	508	495	
4	0	0	0	0	505	495	
5	0	0	0	0	507	496	
6	0	0	0	0	509	497	
7	0	0	0	0	511	498	
8	0	0	0	0	509	499	
9	0	0	0	0	512	499	
10	0	0	0	0	513	499	
11	0	0	0	0	518	499	
12	0	0	0	0	519	501	
13	0	0	0	0	522	502	
14	0	0	0	0	511	504	
15	0	0	0	0	506	503	
0	0	0	0	0	506	503	
1	0	0	0	0	496	502	
2	0	0	0	0	494	501	
3	0	0	0	0	510	499	
4	0	0	0	0	507	498	
5	0	0	0	0	508	498	
6	0	0	0	0	511	499	
7	0	0	0	0	510	499	
8	0	0	0	0	510	499	
9	0	0	0	0	512	498	
10	0	0	0	0	509	498	
11	0	0	0	0	512	499	
12	0	0	0	0	522	499	
13	0	0	0	0	520	502	
14	0	0	0	0	519	504	
15	0	0	0	0	512	504	
0	0	0	0	0	505	505	
1	0	0	0	0	498	506	
2	0	0	0	0	497	505	
3	0	0	0	0	501	503	
4	0	0	0	0	505	499	
5	0	0	0	0	504	498	
6	0	0	0	0	506	500	
7	0	0	0	0	508	500	
8	0	0	0	0	512	499	
9	0	0	0	0	514	499	
10	0	0	0	0	515	499	
11	0	0	0	0	513	499	
12	0	0	0	0	513	499	
13	0	0	0	0	520	499	
14	0	0	0	0	521	504	
15	0	0	0	0	515	505	
0	0	0	0	0	512	505	
1	0	0	0	0	506	504	
2	0	0	0	0	497	504	
3	0	0	0	0	495	502	
4	0	0	0	0	503	499	
5	0	0	0	0	507	497	
6	0	0	0	0	510	496	
7	0	0	0	0	509	497	
8	0	0	0	0	512	498	
9	0	0	0	0	516	499	
10	0	0	0	0	512	500	
11	0	0	0	0	511	502	
12	0	0	0	0	512	503	
13	0	0	0	0	517	503	
14	0	0	0	0	521	507	
15	0	0	0	0	524	508	
0	0	0	0	0	519	507	
1	0	0	0	0	513	507	
2	0	0	0	0	508	506	
3	0	0	0	0	502	505	
4	0	0	0	0	504	503	
5	0	0	0	0	507	499	
6	0	0	0	0	503	498	
7	0	0	0	0	503	498	
8	0	0	0	0	507	499	
9	0	0	0	0	509	499	
10	0	0	0	0	510	499	
11	0	0	0	0	509	500	
12	0	0	0	0	510	499	
13	0	0	0	0	513	499	
14	0	0	0	0	517	499	
15	0	0	0	0	514	501	
0	0	0	0	0	514	502	
1	0	0	0	0	507	504	
2	0	0	0	0	506	506	
3	0	0	0	0	498	508	
4	0	0	0	0	496	508	
5	0	0	0	0	495	507	
6	0	0	0	0	499	504	
7	0	0	0	0	504	505	
8	0	0	0	0	506	506	
9	0	0	0	0	510	508	
10	0	0	0	0	513	508	
11	0	0	0	0	514	509	
12	0	0	0	0	514	510	
13	0	0	0	0	515	510	
14	0	0	0	0	516	509	
15	0	0	0	0	521	511	
0	0	0	0	0	517	514	
1	0	0	0	0	517	514	
2	0	0	0	0	513	515	
3	0	0	0	0	507	515	
4	0	0	0	0	498	514	
5	0	0	0	0	497	512	
6	0	0	0	0	502	509	
7	0	0	0	0	504	507	
8	0	0	0	0	505	506	
9	0	0	0	0	510	505	
10	0	0	0	0	510	505	
11	0	0	0	0	507	506	
12	0	0	0	0	510	506	
13	0	0	0	0	511	507	
14	0	0	0	0	513	507	
15	0	0	0	0	516	508	
0	0	0	0	0	518	511	
1	0	0	0	0	517	516	
2	0	0	0	0	513	518	
3	0	0	0	0	509	518	
4	0	0	0	0	503	518	
5	0	0	0	0	498	518	
6	0	0	0	0	499	515	
7	0	0	0	0	503	511	
8	0	0	0	0	502	510	
9	0	0	0	0	510	510	
10	0	0	0	0	510	509	
11	0	0	0	0	512	510	
12	0	0	0	0	513	510	
13	0	0	0	0	514	510	
14	0	0	0	0	512	510	
15	0	0	0	0	513	510	
0	0	0	0	0	521	510	
1	0	0	0	0	521	510	
2	0	0	0	0	518	509	
3	0	0	0	0	511	509	
4	0	0	0	0	509	510	
5	0	0	0	0	501	509	
6	0	0	0	0	497	508	
7	0	0	0	0	498	507	
8	0	0	0	0	503	504	
9	0	0	0	0	507	505	
10	0	0	0	0	511	504	
11	0	0	0	0	512	504	
12	0	0	0	0	513	503	
13	0	0	0	0	514	502	
14	0	0	0	0	516	500	
15	0	0	0	0	513	498	
0	0	0	0	0	514	497	
1	0	0	0	0	519	498	
2	0	0	0	0	516	501	
3	0	0	0	0	515	502	
4	0	0	0	0	511	502	
5	0	0	0	0	508	503	
6	0	0	0	0	498	503	
7	0	0	0	0	496	503	
8	0	0	0	0	502	499	
9	0	0	0	0	504	496	
10	0	0	0	0	505	498	
11	0	0	0	0	510	499	
12	0	0	0	0	512	500	
13	0	0	0	0	511	500	
14	0	0	0	0	514	499	
15	0	0	0	0	511	499	
0	0	0	0	0	510	499	
1	0	0	0	0	514	499	
2	0	0	0	0	524	503	
3	0	0	0	0	520	504	
4	0	0	0	0	512	505	
5	0	0	0	0	508	506	
6	0	0	0	0	505	507	
7	0	0	0	0	495	507	
8	0	0	0	0	497	506	
9	0	0	0	0	505	504	
10	0	0	0	0	504	504	
11	0	0	0	0	508	504	
12	0	0	0	0	511	504	
13	0	0	0	0	512	502	
14	0	0	0	0	516	501	
15	0	0	0	0	516	499	
0	0	0	0	0	515	498	
1	0	0	0	0	519	498	
2	0	0	0	0	526	497	
3	0	0	0	0	525	499	
4	0	0	0	0	525	499	
5	0	0	0	0	516	498	
6	0	0	0	0	515	496	
7	0	0	0	0	509	496	
8	0	0	0	0	502	496	
9	0	0	0	0	503	493	
10	0	0	0	0	507	490	
11	0	0	0	0	509	488	
12	0	0	0	0	508	489	
13	0	0	0	0	512	491	
14	0	0	0	0	511	494	
15	0	0	0	0	513	498	
0	0	0	0	0	513	502	
1	0	0	0	0	515	503	
2	0	0	0	0	515	505	
3	0	0	0	0	521	509	
4	0	0	0	0	520	515	
5	0	0	0	0	513	518	
6	0	0	0	0	503	519	
7	0	0	0	0	497	522	
8	0	0	0	0	487	523	
9	0	0	0	0	480	525	
10	0	0	0	0	485	529	
11	0	0	0	0	490	529	
12	0	0	0	0	490	533	
13	0	0	0	0	492	536	
14	0	0	0	0	492	540	
15	0	0	0	0	492	543	
0	0	0	0	0	491	548	
1	0	0	0	0	486	556	
2	0	0	0	0	483	561	
3	0	0	0	0	488	566	
4	0	0	0	0	492	571	
5	0	0	0	0	501	572	
6	0	0	0	0	494	572	
7	0	0	0	0	496	569	
8	0	0	0	0	497	566	
9	0	0	0	0	500	560	
10	0	0	0	0	502	552	
11	0	0	0	0	515	544	
12	0	0	0	0	521	534	
13	0	0	0	0	524	526	
14	0	0	0	0	528	518	
15	0	0	0	0	526	510	
0	0	0	0	0	529	502	
1	0	0	0	0	534	492	
2	0	0	0	0	536	483	
3	0	0	0	0	539	476	
4	0	0	0	0	543	468	
5	0	0	0	0	551	464	
6	0	0	0	0	540	463	
7	0	0	0	0	523	461	
8	0	0	0	0	514	461	
9	0	0	0	0	500	462	
10	0	0	0	0	494	463	
11	0	0	0	0	495	464	
12	0	0	0	0	501	465	
13	0	0	0	0	506	468	
14	0	0	0	0	510	472	
15	0	0	0	0	512	476	
0	0	0	0	0	513	481	
1	0	0	0	0	513	483	
2	0	0	0	0	518	486	
3	0	0	0	0	516	488	
4	0	0	0	0	521	491	
5	0	0	0	0	528	497	
6	0	0	0	0	531	500	
7	0	0	0	0	523	504	
8	0	0	0	0	515	505	
9	0	0	0	0	510	505	
10	0	0	0	0	504	505	
11	0	0	0	0	500	505	
12	0	0	0	0	502	505	
13	0	0	0	0	512	504	
14	0	0	0	0	515	504	
15	0	0	0	0	515	505	
0	0	0	0	0	517	505	
1	0	0	0	0	516	507	
2	0	0	0	0	516	507	
3	0	0	0	0	512	508	
4	0	0	0	0	511	507	
5	0	0	0	0	513	508	
6	0	0	0	0	512	512	
7	0	0	0	0	516	513	
8	0	0	0	0	508	513	
9	0	0	0	0	507	511	
10	0	0	0	0	504	510	
11	0	0	0	0	495	510	
12	0	0	0	0	492	508	
13	0	0	0	0	498	504	
14	0	0	0	0	501	503	
15	0	0	0	0	503	503	
0	0	0	0	0	504	506	
1	0	0	0	0	505	509	
2	0	0	0	0	508	512	
3	0	0	0	0	508	514	
4	0	0	0	0	507	515	
5	0	0	0	0	509	515	
6	0	0	0	0	513	516	
7	0	0	0	0	518	519	
8	0	0	0	0	515	521	
9	0	0	0	0	508	523	
10	0	0	0	0	505	523	
11	0	0	0	0	499	521	
12	0	0	0	0	496	519	
13	0	0	0	0	498	519	
14	0	0	0	0	503	517	
15	0	0	0	0	504	518	
0	0	0	0	0	510	516	
1	0	0	0	0	512	516	
2	0	0	0	0	511	516	
3	0	0	0	0	510	516	
4	0	0	0	0	510	516	
5	0	0	0	0	511	516	
6	0	0	0	0	514	516	
7	0	0	0	0	520	517	
8	0	0	0	0	522	520	
9	0	0	0	0	515	522	
10	0	0	0	0	512	522	
11	0	0	0	0	510	522	
12	0	0	0	0	503	522	
13	0	0	0	0	498	521	
14	0	0	0	0	499	520	
15	0	0	0	0	505	517	
0	0	0	0	0	503	518	
1	0	0	0	0	505	518	
2	0	0	0	0	505	518	
3	0	0	0	0	508	519	
4	0	0	0	0	511	519	
5	0	0	0	0	514	520	
6	0	0	0	0	512	520	
7	0	0	0	0	519	521	
8	0	0	0	0	524	524	
9	0	0	0	0	519	526	
10	0	0	0	0	514	527	
11	0	0	0	0	508	526	
12	0	0	0	0	508	526	
13	0	0	0	0	502	525	
14	0	0	0	0	501	524	
15	0	0	0	0	502	520	
0	0	0	0	0	505	519	
1	0	0	0	0	508	519	
2	0	0	0	0	509	519	
3	0	0	0	0	508	519	
4	0	0	0	0	508	520	
5	0	0	0	0	509	519	
6	0	0	0	0	516	520	
7	0	0	0	0	514	520	
8	0	0	0	0	520	521	
9	0	0	0	0	516	525	
10	0	0	0	0	519	527	
11	0	0	0	0	513	528	
12	0	0	0	0	511	528	
13	0	0	0	0	500	528	
14	0	0	0	0	500	528	
15	0	0	0	0	498	527	
0	0	0	0	0	505	524	
1	0	0	0	0	507	523	
2	0	0	0	0	510	523	
3	0	0	0	0	506	523	
4	0	0	0	0	510	523	
5	0	0	0	0	512	523	
6	0	0	0	0	512	525	
7	0	0	0	0	512	526	
8	0	0	0	0	515	527	
9	0	0	0	0	518	527	
10	0	0	0	0	521	529	
11	0	0	0	0	517	530	
12	0	0	0	0	511	530	
13	0	0	0	0	506	532	
14	0	0	0	0	502	533	
15	0	0	0	0	500	532	
0	0	0	0	0	505	530	
1	0	0	0	0	504	527	
2	0	0	0	0	507	525	
3	0	0	0	0	511	526	
4	0	0	0	0	510	527	
5	0	0	0	0	510	527	
6	0	0	0	0	510	529	
7	0	0	0	0	510	530	
8	0	0	0	0	514	530	
9	0	0	0	0	518	529	
10	0	0	0	0	520	532	
11	0	0	0	0	521	535	
12	0	0	0	0	513	536	
13	0	0	0	0	509	536	
14	0	0	0	0	503	536	
15	0	0	0	0	498	535	
0	0	0	0	0	498	533	
1	0	0	0	0	503	530	
2	0	0	0	0	501	529	
3	0	0	0	0	508	531	
4	0	0	0	0	509	531	
5	0	0	0	0	510	532	
6	0	0	0	0	511	534	
7	0	0	0	0	513	535	
8	0	0	0	0	512	536	
9	0	0	0	0	510	539	
10	0	0	0	0	516	541	
11	0	0	0	0	519	545	
12	0	0	0	0	518	547	
13	0	0	0	0	512	547	
14	0	0	0	0	511	547	
15	0	0	0	0	503	548	
0	0	0	0	0	499	547	
1	0	0	0	0	502	544	
2	0	0	0	0	505	542	
3	0	0	0	0	506	542	
4	0	0	0	0	511	543	
5	0	0	0	0	512	543	
6	0	0	0	0	510	544	
7	0	0	0	0	508	545	
8	0	0	0	0	511	545	
9	0	0	0	0	511	545	
10	0	0	0	0	515	545	
11	0	0	0	0	524	546	
12	0	0	0	0	521	550	
13	0	0	0	0	516	550	
14	0	0	0	0	510	550	
15	0	0	0	0	507	550	
0	0	0	0	0	500	549	
1	0	0	0	0	499	547	
2	0	0	0	0	499	543	
3	0	0	0	0	505	540	
4	0	0	0	0	506	540	
5	0	0	0	0	507	539	
6	0	0	0	0	508	538	
7	0	0	0	0	506	538	
8	0	0	0	0	510	538	
9	0	0	0	0	512	539	
10	0	0	0	0	511	539	
11	0	0	0	0	514	539	
12	0	0	0	0	515	542	
13	0	0	0	0	519	543	
14	0	0	0	0	513	543	
15	0	0	0	0	512	542	
0	0	0	0	0	507	540	
1	0	0	0	0	497	538	
2	0	0	0	0	498	536	
3	0	0	0	0	504	533	
4	0	0	0	0	508	531	
5	0	0	0	0	506	530	
6	0	0	0	0	509	530	
7	0	0	0	0	510	529	
8	0	0	0	0	511	527	
9	0	0	0	0	508	526	
10	0	0	0	0	511	526	
11	0	0	0	0	510	524	
12	0	0	0	0	516	522	
13	0	0	0	0	520	523	
14	0	0	0	0	519	521	
15	0	0	0	0	512	520	
0	0	0	0	0	505	518	
1	0	0	0	0	499	515	
2	0	0	0	0	502	512	
3	0	0	0	0	500	508	
4	0	0	0	0	505	502	
5	0	0	0	0	509	500	
6	0	0	0	0	509	500	
7	0	0	0	0	509	500	
8	0	0	0	0	509	499	
9	0	0	0	0	512	498	
10	0	0	0	0	511	496	
11	0	0	0	0	509	495	
12	0	0	0	0	511	494	
13	0	0	0	0	516	493	
14	0	0	0	0	520	495	
15	0	0	0	0	513	495	
0	0	0	0	0	512	494	
1	0	0	0	0	505	494	
2	0	0	0	0	500	491	
3	0	0	0	0	496	488	
4	0	0	0	0	501	487	
5	0	0	0	0	505	484	
6	0	0	0	0	507	483	
7	0	0	0	0	508	482	
8	0	0	0	0	510	482	
9	0	0	0	0	508	482	
10	0	0	0	0	511	481	
11	0	0	0	0	512	481	
12	0	0	0	0	512	481	
13	0	0	0	0	516	481	
14	0	0	0	0	517	483	
15	0	0	0	0	520	483	
0	0	0	0	0	516	483	
1	0	0	0	0	512	482	
2	0	0	0	0	507	480	
3	0	0	0	0	499	479	
4	0	0	0	0	499	476	
5	0	0	0	0	505	473	
6	0	0	0	0	506	472	
7	0	0	0	0	506	471	
8	0	0	0	0	508	472	
9	0	0	0	0	512	472	
10	0	0	0	0	510	472	
11	0	0	0	0	512	472	
12	0	0	0	0	512	472	
13	0	0	0	0	513	472	
14	0	0	0	0	517	473	
15	0	0	0	0	519	476	
0	0	0	0	0	519	477	
1	0	0	0	0	512	477	
2	0	0	0	0	509	478	
3	0	0	0	0	504	478	
4	0	0	0	0	498	477	
5	0	0	0	0	500	476	
6	0	0	0	0	506	472	
7	0	0	0	0	505	472	
8	0	0	0	0	509	472	
9	0	0	0	0	509	472	
10	0	0	0	0	512	472	
11	0	0	0	0	511	473	
12	0	0	0	0	511	473	
13	0	0	0	0	511	475	
14	0	0	0	0	515	476	
15	0	0	0	0	520	477	
0	0	0	0	0	521	481	
1	0	0	0	0	518	482	
2	0	0	0	0	509	482	
3	0	0	0	0	510	483	
4	0	0	0	0	500	484	
5	0	0	0	0	497	483	
6	0	0	0	0	501	481	
7	0	0	0	0	508	477	
8	0	0	0	0	508	477	
9	0	0	0	0	510	477	
10	0	0	0	0	508	477	
11	0	0	0	0	511	479	
12	0	0	0	0	512	480	
13	0	0	0	0	511	481	
14	0	0	0	0	512	481	
15	0	0	0	0	516	481	
0	0	0	0	0	522	485	
1	0	0	0	0	524	486	
2	0	0	0	0	514	487	
3	0	0	0	0	508	486	
4	0	0	0	0	504	487	
5	0	0	0	0	498	487	
6	0	0	0	0	497	485	
7	0	0	0	0	503	483	
8	0	0	0	0	505	481	
9	0	0	0	0	506	481	
10	0	0	0	0	511	483	
11	0	0	0	0	512	484	
12	0	0	0	0	510	485	
13	0	0	0	0	511	486	
14	0	0	0	0	510	486	
15	0	0	0	0	511	486	
0	0	0	0	0	517	486	
1	0	0	0	0	518	488	
2	0	0	0	0	519	489	
3	0	0	0	0	515	489	
4	0	0	0	0	511	490	
5	0	0	0	0	502	490	
6	0	0	0	0	497	489	
7	0	0	0	0	499	488	
8	0	0	0	0	504	487	
9	0	0	0	0	504	487	
10	0	0	0	0	508	487	
11	0	0	0	0	508	488	
12	0	0	0	0	513	489	
13	0	0	0	0	513	489	
14	0	0	0	0	512	490	
15	0	0	0	0	512	490	
0	0	0	0	0	514	491	
1	0	0	0	0	523	492	
2	0	0	0	0	519	494	
3	0	0	0	0	518	495	
4	0	0	0	0	512	495	
5	0	0	0	0	506	494	
6	0	0	0	0	500	494	
7	0	0	0	0	496	492	
8	0	0	0	0	502	492	
9	0	0	0	0	504	490	
10	0	0	0	0	507	489	
11	0	0	0	0	506	490	
12	0	0	0	0	505	490	
13	0	0	0	0	508	491	
14	0	0	0	0	517	490	
15	0	0	0	0	511	489	
0	0	0	0	0	513	489	
1	0	0	0	0	517	489	
2	0	0	0	0	523	492	
3	0	0	0	0	520	495	
4	0	0	0	0	515	497	
5	0	0	0	0	509	499	
6	0	0	0	0	502	499	
7	0	0	0	0	498	498	
8	0	0	0	0	497	495	
9	0	0	0	0	502	491	
10	0	0	0	0	504	492	
11	0	0	0	0	510	492	
12	0	0	0	0	511	493	
13	0	0	0	0	510	494	
14	0	0	0	0	512	494	
15	0	0	0	0	511	495	
0	0	0	0	0	512	495	
1	0	0	0	0	512	495	
2	0	0	0	0	518	496	
3	0	0	0	0	515	499	
4	0	0	0	0	518	500	
5	0	0	0	0	512	501	
6	0	0	0	0	511	501	
7	0	0	0	0	503	500	
8	0	0	0	0	496	498	
9	0	0	0	0	502	496	
10	0	0	0	0	505	492	
11	0	0	0	0	505	493	
12	0	0	0	0	508	494	
13	0	0	0	0	510	495	
14	0	0	0	0	509	496	
15	0	0	0	0	511	496	
0	0	0	0	0	512	497	
1	0	0	0	0	512	496	
2	0	0	0	0	513	497	
3	0	0	0	0	523	498	
4	0	0	0	0	523	501	
5	0	0	0	0	518	502	
6	0	0	0	0	511	502	
7	0	0	0	0	509	502	
8	0	0	0	0	503	501	
9	0	0	0	0	499	499	
10	0	0	0	0	501	494	
11	0	0	0	0	504	492	
12	0	0	0	0	507	492	
13	0	0	0	0	510	493	
14	0	0	0	0	508	495	
15	0	0	0	0	509	496	
0	0	0	0	0	509	497	
1	0	0	0	0	512	496	
2	0	0	0	0	513	497	
3	0	0	0	0	513	498	
4	0	0	0	0	518	500	
5	0	0	0	0	518	504	
6	0	0	0	0	511	505	
7	0	0	0	0	512	505	
8	0	0	0	0	505	506	
9	0	0	0	0	499	505	
10	0	0	0	0	498	503	
11	0	0	0	0	504	500	
12	0	0	0	0	504	498	
13	0	0	0	0	509	497	
14	0	0	0	0	511	497	
15	0	0	0	0	509	497	
0	0	0	0	0	509	499	
1	0	0	0	0	510	499	
2	0	0	0	0	514	497	
3	0	0	0	0	512	498	
4	0	0	0	0	519	499	
5	0	0	0	0	516	503	
6	0	0	0	0	516	504	
7	0	0	0	0	509	502	
8	0	0	0	0	510	503	
9	0	0	0	0	502	503	
10	0	0	0	0	494	504	
11	0	0	0	0	497	504	
12	0	0	0	0	505	500	
13	0	0	0	0	508	500	
14	0	0	0	0	505	502	
15	0	0	0	0	510	502	
0	0	0	0	0	512	502	
1	0	0	0	0	513	502	
2	0	0	0	0	515	503	
3	0	0	0	0	515	502	
4	0	0	0	0	517	502	
5	0	0	0	0	519	502	
6	0	0	0	0	522	505	
7	0	0	0	0	518	506	
8	0	0	0	0	512	506	
9	0	0	0	0	510	505	
10	0	0	0	0	500	504	
11	0	0	0	0	499	501	
12	0	0	0	0	501	496	
13	0	0	0	0	504	494	
14	0	0	0	0	505	493	
15	0	0	0	0	508	494	
0	0	0	0	0	510	496	
1	0	0	0	0	511	498	
2	0	0	0	0	510	498	
3	0	0	0	0	509	499	
4	0	0	0	0	507	500	
5	0	0	0	0	513	502	
6	0	0	0	0	518	503	
7	0	0	0	0	521	507	
8	0	0	0	0	511	508	
9	0	0	0	0	510	508	
10	0	0	0	0	504	509	
11	0	0	0	0	498	507	
12	0	0	0	0	499	505	
13	0	0	0	0	504	502	
14	0	0	0	0	505	502	
15	0	0	0	0	507	501	
0	0	0	0	0	510	502	
1	0	0	0	0	510	501	
2	0	0	0	0	513	500	
3	0	0	0	0	515	499	
4	0	0	0	0	513	499	
5	0	0	0	0	512	500	
6	0	0	0	0	519	500	
7	0	0	0	0	520	504	
8	0	0	0	0	521	506	
9	0	0	0	0	514	505	
10	0	0	0	0	511	505	
11	0	0	0	0	502	505	
12	0	0	0	0	495	504	
13	0	0	0	0	498	503	
14	0	0	0	0	504	502	
15	0	0	0	0	508	502	
0	0	0	0	0	512	503	
1	0	0	0	0	512	503	
2	0	0	0	0	512	502	
3	0	0	0	0	515	502	
4	0	0	0	0	513	502	
5	0	0	0	0	520	502	
6	0	0	0	0	519	502	
7	0	0	0	0	521	503	
8	0	0	0	0	518	507	
9	0	0	0	0	513	508	
10	0	0	0	0	508	508	
11	0	0	0	0	507	507	
12	0	0	0	0	499	506	
13	0	0	0	0	498	504	
14	0	0	0	0	500	501	
15	0	0	0	0	501	498	
0	0	0	0	0	504	498	
1	0	0	0	0	506	499	
2	0	0	0	0	506	499	
3	0	0	0	0	508	500	
4	0	0	0	0	508	501	
5	0	0	0	0	506	502	
6	0	0	0	0	505	502	
7	0	0	0	0	515	503	
8	0	0	0	0	518	508	
9	0	0	0	0	519	509	
10	0	0	0	0	514	510	
11	0	0	0	0	508	510	
12	0	0	0	0	506	509	
13	0	0	0	0	501	507	
14	0	0	0	0	502	506	
15	0	0	0	0	504	504	
0	0	0	0	0	508	503	
1	0	0	0	0	508	504	
2	0	0	0	0	510	507	
3	0	0	0	0	512	507	
4	0	0	0	0	511	508	
5	0	0	0	0	510	508	
6	0	0	0	0	509	508	
7	0	0	0	0	512	508	
8	0	0	0	0	517	510	
9	0	0	0	0	516	512	
10	0	0	0	0	518	514	
11	0	0	0	0	512	515	
12	0	0	0	0	509	515	
13	0	0	0	0	501	515	
14	0	0	0	0	496	515	
15	0	0	0	0	497	513	
0	0	0	0	0	504	510	
1	0	0	0	0	504	510	
2	0	0	0	0	507	511	
3	0	0	0	0	508	512	
4	0	0	0	0	508	513	
5	0	0	0	0	511	514	
6	0	0	0	0	509	515	
7	0	0	0	0	511	515	
8	0	0	0	0	516	513	
9	0	0	0	0	520	514	
10	0	0	0	0	519	516	
11	0	0	0	0	513	516	
12	0	0	0	0	511	516	
13	0	0	0	0	510	516	
14	0	0	0	0	500	515	
15	0	0	0	0	498	513	
0	0	0	0	0	499	511	
1	0	0	0	0	505	507	
2	0	0	0	0	508	505	
3	0	0	0	0	513	503	
4	0	0	0	0	514	504	
5	0	0	0	0	514	504	
6	0	0	0	0	511	504	
7	0	0	0	0	512	503	
8	0	0	0	0	508	503	
9	0	0	0	0	511	503	
10	0	0	0	0	522	507	
11	0	0	0	0	522	508	
12	0	0	0	0	516	508	
13	0	0	0	0	512	509	
14	0	0	0	0	511	508	
15	0	0	0	0	501	507	
0	0	0	0	0	502	505	
1	0	0	0	0	505	502	
2	0	0	0	0	505	500	
3	0	0	0	0	511	499	
4	0	0	0	0	510	498	
5	0	0	0	0	509	497	
6	0	0	0	0	510	497	
7	0	0	0	0	511	497	
8	0	0	0	0	511	497	
9	0	0	0	0	510	496	
10	0	0	0	0	518	496	
11	0	0	0	0	517	498	
12	0	0	0	0	517	499	
13	0	0	0	0	511	499	
14	0	0	0	0	507	499	
15	0	0	0	0	506	499	
0	0	0	0	0	499	498	
1	0	0	0	0	499	497	
2	0	0	0	0	502	495	
3	0	0	0	0	505	496	
4	0	0	0	0	509	497	
5	0	0	0	0	512	498	
6	0	0	0	0	513	499	
7	0	0	0	0	512	499	
8	0	0	0	0	512	499	
9	0	0	0	0	509	500	
10	0	0	0	0	511	501	
11	0	0	0	0	515	502	
12	0	0	0	0	517	504	
13	0	0	0	0	516	505	
14	0	0	0	0	508	505	
15	0	0	0	0	508	504	
0	0	0	0	0	505	505	
1	0	0	0	0	497	503	
2	0	0	0	0	503	499	
3	0	0	0	0	506	498	
4	0	0	0	0	510	498	
5	0	0	0	0	516	497	
6	0	0	0	0	516	496	
7	0	0	0	0	519	495	
8	0	0	0	0	520	494	
9	0	0	0	0	520	493	
10	0	0	0	0	516	492	
11	0	0	0	0	525	491	
12	0	0	0	0	526	491	
13	0	0	0	0	525	491	
14	0	0	0	0	519	488	
15	0	0	0	0	515	488	
0	0	0	0	0	510	491	
1	0	0	0	0	501	493	
2	0	0	0	0	500	495	
3	0	0	0	0	504	497	
4	0	0	0	0	506	499	
5	0	0	0	0	507	502	
6	0	0	0	0	505	507	
7	0	0	0	0	505	510	
8	0	0	0	0	508	511	
9	0	0	0	0	505	513	
10	0	0	0	0	502	515	
11	0	0	0	0	499	519	
12	0	0	0	0	504	522	
13	0	0	0	0	500	530	
14	0	0	0	0	503	535	
15	0	0	0	0	497	539	
0	0	0	0	0	495	542	
1	0	0	0	0	485	547	
2	0	0	0	0	480	551	
3	0	0	0	0	479	555	
4	0	0	0	0	477	559	
5	0	0	0	0	480	563	
6	0	0	0	0	483	566	
7	0	0	0	0	483	568	
8	0	0	0	0	488	569	
9	0	0	0	0	495	568	
10	0	0	0	0	502	564	
11	0	0	0	0	507	560	
12	0	0	0	0	514	555	
13	0	0	0	0	524	550	
14	0	0	0	0	527	545	
15	0	0	0	0	530	539	
0	0	0	0	0	525	530	
1	0	0	0	0	527	518	
2	0	0	0	0	518	506	
3	0	0	0	0	519	495	
4	0	0	0	0	523	483	
5	0	0	0	0	528	471	
6	0	0	0	0	531	462	
7	0	0	0	0	536	454	
8	0	0	0	0	535	448	
9	0	0	0	0	531	444	
10	0	0	0	0	518	441	
11	0	0	0	0	516	441	
12	0	0	0	0	514	442	
13	0	0	0	0	514	443	
14	0	0	0	0	519	448	
15	0	0	0	0	518	455	
0	0	0	0	0	511	460	
1	0	0	0	0	512	463	
2	0	0	0	0	508	467	
3	0	0	0	0	501	470	
4	0	0	0	0	502	471	
5	0	0	0	0	507	472	
6	0	0	0	0	511	473	
7	0	0	0	0	514	476	
8	0	0	0	0	514	480	
9	0	0	0	0	515	484	
10	0	0	0	0	515	486	
11	0	0	0	0	515	489	
12	0	0	0	0	516	492	
13	0	0	0	0	517	493	
14	0	0	0	0	519	496	
15	0	0	0	0	522	501	
0	0	0	0	0	524	504	
1	0	0	0	0	515	507	
2	0	0	0	0	513	510	
3	0	0	0	0	504	511	
4	0	0	0	0	499	512	
5	0	0	0	0	502	512	
6	0	0	0	0	508	509	
7	0	0	0	0	510	510	
8	0	0	0	0	512	510	
9	0	0	0	0	510	509	
10	0	0	0	0	510	509	
11	0	0	0	0	508	507	
12	0	0	0	0	510	506	
13	0	0	0	0	507	506	
14	0	0	0	0	510	508	
15	0	0	0	0	515	509	
0	0	0	0	0	516	512	
1	0	0	0	0	513	513	
2	0	0	0	0	505	514	
3	0	0	0	0	503	514	
4	0	0	0	0	500	514	
5	0	0	0	0	496	511	
6	0	0	0	0	495	511	
7	0	0	0	0	499	510	
8	0	0	0	0	499	511	
9	0	0	0	0	504	511	
10	0	0	0	0	506	512	
11	0	0	0	0	509	513	
12	0	0	0	0	508	513	
13	0	0	0	0	509	514	
14	0	0	0	0	507	514	
15	0	0	0	0	511	513	
0	0	0	0	0	521	515	
1	0	0	0	0	523	518	
2	0	0	0	0	515	519	
3	0	0	0	0	508	518	
4	0	0	0	0	503	518	
5	0	0	0	0	496	517	
6	0	0	0	0	496	515	
7	0	0	0	0	500	513	
8	0	0	0	0	505	512	
9	0	0	0	0	509	511	
10	0	0	0	0	510	513	
11	0	0	0	0	512	513	
12	0	0	0	0	511	513	
13	0	0	0	0	511	513	
14	0	0	0	0	513	512	
15	0	0	0	0	515	511	
0	0	0	0	0	519	512	
1	0	0	0	0	516	516	
2	0	0	0	0	515	517	
3	0	0	0	0	511	517	
4	0	0	0	0	509	518	
5	0	0	0	0	505	519	
6	0	0	0	0	497	519	
7	0	0	0	0	499	519	
8	0	0	0	0	501	516	
9	0	0	0	0	503	518	
10	0	0	0	0	511	518	
11	0	0	0	0	510	519	
12	0	0	0	0	510	520	
13	0	0	0	0	512	520	
14	0	0	0	0	512	520	
15	0	0	0	0	511	521	
0	0	0	0	0	515	520	
1	0	0	0	0	519	522	
2	0	0	0	0	519	525	
3	0	0	0	0	515	526	
4	0	0	0	0	512	526	
5	0	0	0	0	512	526	
6	0	0	0	0	503	524	
7	0	0	0	0	497	521	
8	0	0	0	0	499	516	
9	0	0	0	0	506	515	
10	0	0	0	0	506	515	
11	0	0	0	0	507	515	
12	0	0	0	0	513	515	
13	0	0	0	0	513	517	
14	0	0	0	0	510	518	
15	0	0	0	0	510	519	
0	0	0	0	0	513	518	
1	0	0	0	0	517	518	
2	0	0	0	0	520	519	
3	0	0	0	0	519	521	
4	0	0	0	0	514	524	
5	0	0	0	0	510	525	
6	0	0	0	0	505	526	
7	0	0	0	0	499	527	
8	0	0	0	0	500	525	
9	0	0	0	0	503	522	
10	0	0	0	0	502	522	
11	0	0	0	0	509	523	
12	0	0	0	0	510	523	
13	0	0	0	0	511	521	
14	0	0	0	0	511	521	
15	0	0	0	0	511	522	
0	0	0	0	0	511	523	
1	0	0	0	0	510	525	
2	0	0	0	0	515	526	
3	0	0	0	0	516	531	
4	0	0	0	0	517	532	
5	0	0	0	0	512	531	
6	0	0	0	0	511	531	
7	0	0	0	0	504	531	
8	0	0	0	0	499	531	
9	0	0	0	0	496	530	
10	0	0	0	0	506	527	
11	0	0	0	0	507	528	
12	0	0	0	0	508	529	
13	0	0	0	0	514	530	
14	0	0	0	0	514	530	
15	0	0	0	0	511	530	
0	0	0	0	0	512	531	
1	0	0	0	0	514	531	
2	0	0	0	0	517	531	
3	0	0	0	0	523	531	
4	0	0	0	0	517	535	
5	0	0	0	0	513	536	
6	0	0	0	0	510	536	
7	0	0	0	0	507	535	
8	0	0	0	0	500	535	
9	0	0	0	0	496	535	
10	0	0	0	0	498	534	
11	0	0	0	0	503	532	
12	0	0	0	0	508	534	
13	0	0	0	0	511	536	
14	0	0	0	0	510	535	
15	0	0	0	0	509	536	
0	0	0	0	0	508	537	
1	0	0	0	0	510	539	
2	0	0	0	0	511	540	
3	0	0	0	0	518	541	
4	0	0	0	0	519	545	
5	0	0	0	0	523	545	
6	0	0	0	0	513	547	
7	0	0	0	0	511	548	
8	0	0	0	0	508	548	
9	0	0	0	0	497	549	
10	0	0	0	0	497	547	
11	0	0	0	0	500	542	
12	0	0	0	0	506	543	
13	0	0	0	0	506	543	
14	0	0	0	0	510	543	
15	0	0	0	0	510	544	
0	0	0	0	0	512	545	
1	0	0	0	0	512	543	
2	0	0	0	0	510	543	
3	0	0	0	0	511	544	
4	0	0	0	0	516	545	
5	0	0	0	0	519	547	
6	0	0	0	0	518	547	
7	0	0	0	0	511	548	
8	0	0	0	0	509	550	
9	0	0	0	0	503	548	
10	0	0	0	0	497	547	
11	0	0	0	0	497	546	
12	0	0	0	0	504	542	
13	0	0	0	0	507	540	
14	0	0	0	0	510	540	
15	0	0	0	0	506	540	
0	0	0	0	0	512	540	
1	0	0	0	0	512	537	
2	0	0	0	0	510	537	
3	0	0	0	0	504	537	
4	0	0	0	0	511	536	
5	0	0	0	0	518	537	
6	0	0	0	0	521	539	
7	0	0	0	0	519	537	
8	0	0	0	0	512	536	
9	0	0	0	0	509	534	
10	0	0	0	0	504	532	
11	0	0	0	0	499	529	
12	0	0	0	0	499	526	
13	0	0	0	0	510	521	
14	0	0	0	0	508	520	
15	0	0	0	0	509	518	
0	0	0	0	0	509	515	
1	0	0	0	0	511	514	
2	0	0	0	0	511	512	
3	0	0	0	0	511	511	
4	0	0	0	0	509	509	
5	0	0	0	0	515	506	
6	0	0	0	0	519	508	
7	0	0	0	0	523	507	
8	0	0	0	0	515	506	
9	0	0	0	0	509	503	
10	0	0	0	0	505	502	
11	0	0	0	0	496	500	
12	0	0	0	0	495	499	
13	0	0	0	0	499	494	
14	0	0	0	0	506	491	
15	0	0	0	0	508	488	
0	0	0	0	0	510	488	
1	0	0	0	0	509	487	
2	0	0	0	0	510	487	
3	0	0	0	0	510	487	
4	0	0	0	0	508	486	
5	0	0	0	0	511	484	
6	0	0	0	0	518	483	
7	0	0	0	0	516	484	
8	0	0	0	0	521	485	
9	0	0	0	0	512	485	
10	0	0	0	0	510	484	
11	0	0	0	0	504	484	
12	0	0	0	0	495	483	
13	0	0	0	0	496	480	
14	0	0	0	0	504	476	
15	0	0	0	0	505	476	
0	0	0	0	0	508	476	
1	0	0	0	0	511	474	
2	0	0	0	0	509	472	
3	0	0	0	0	511	473	
4	0	0	0	0	512	474	
5	0	0	0	0	513	473	
6	0	0	0	0	513	472	
7	0	0	0	0	519	471	
8	0	0	0	0	519	473	
9	0	0	0	0	516	475	
10	0	0	0	0	508	476	
11	0	0	0	0	510	477	
12	0	0	0	0	503	477	
13	0	0	0	0	499	475	
14	0	0	0	0	504	472	
15	0	0	0	0	506	470	
0	0	0	0	0	508	471	
1	0	0	0	0	507	472	
2	0	0	0	0	508	472	
3	0	0	0	0	511	472	
4	0	0	0	0	511	471	
5	0	0	0	0	512	471	
6	0	0	0	0	509	471	
7	0	0	0	0	515	471	
8	0	0	0	0	523	477	
9	0	0	0	0	521	477	
10	0	0	0	0	514	478	
11	0	0	0	0	515	476	
12	0	0	0	0	509	475	
13	0	0	0	0	499	475	
14	0	0	0	0	499	473	
15	0	0	0	0	503	472	
0	0	0	0	0	504	472	
1	0	0	0	0	510	472	
2	0	0	0	0	508	474	
3	0	0	0	0	512	473	
4	0	0	0	0	512	473	
5	0	0	0	0	513	474	
6	0	0	0	0	512	474	
7	0	0	0	0	513	475	
8	0	0	0	0	520	475	
9	0	0	0	0	515	478	
10	0	0	0	0	518	480	
11	0	0	0	0	512	480	
12	0	0	0	0	509	480	
13	0	0	0	0	501	481	
14	0	0	0	0	497	481	
15	0	0	0	0	500	479	
0	0	0	0	0	504	476	
1	0	0	0	0	505	476	
2	0	0	0	0	510	477	
3	0	0	0	0	508	479	
4	0	0	0	0	508	480	
5	0	0	0	0	510	480	
6	0	0	0	0	508	479	
7	0	0	0	0	512	480	
8	0	0	0	0	518	481	
9	0	0	0	0	523	482	
10	0	0	0	0	516	484	
11	0	0	0	0	519	485	
12	0	0	0	0	513	485	
13	0	0	0	0	509	483	
14	0	0	0	0	503	482	
15	0	0	0	0	499	481	
0	0	0	0	0	499	478	
1	0	0	0	0	505	478	
2	0	0	0	0	506	479	
3	0	0	0	0	507	481	
4	0	0	0	0	511	482	
5	0	0	0	0	512	482	
6	0	0	0	0	508	482	
7	0	0	0	0	511	483	
8	0	0	0	0	513	483	
9	0	0	0	0	517	483	
10	0	0	0	0	517	486	
11	0	0	0	0	519	490	
12	0	0	0	0	513	490	
13	0	0	0	0	508	489	
14	0	0	0	0	508	489	
15	0	0	0	0	500	489	
0	0	0	0	0	497	488	
1	0	0	0	0	502	487	
2	0	0	0	0	504	486	
3	0	0	0	0	508	486	
4	0	0	0	0	511	487	
5	0	0	0	0	510	487	
6	0	0	0	0	511	488	
7	0	0	0	0	511	486	
8	0	0	0	0	509	486	
9	0	0	0	0	514	487	
10	0	0	0	0	517	487	
11	0	0	0	0	516	489	
12	0	0	0	0	519	491	
13	0	0	0	0	512	491	
14	0	0	0	0	510	492	
15	0	0	0	0	502	493	
0	0	0	0	0	501	493	
1	0	0	0	0	501	492	
2	0	0	0	0	505	488	
3	0	0	0	0	504	488	
4	0	0	0	0	507	489	
5	0	0	0	0	509	491	
6	0	0	0	0	511	490	
7	0	0	0	0	510	490	
8	0	0	0	0	510	491	
9	0	0	0	0	510	491	
10	0	0	0	0	510	492	
11	0	0	0	0	515	494	
12	0	0	0	0	523	497	
13	0	0	0	0	518	499	
14	0	0	0	0	512	499	
15	0	0	0	0	508	498	
0	0	0	0	0	502	498	
1	0	0	0	0	497	497	
2	0	0	0	0	500	496	
3	0	0	0	0	504	494	
4	0	0	0	0	508	494	
5	0	0	0	0	510	493	
6	0	0	0	0	508	494	
7	0	0	0	0	511	494	
8	0	0	0	0	512	492	
9	0	0	0	0	510	492	
10	0	0	0	0	512	492	
11	0	0	0	0	515	492	
12	0	0	0	0	519	496	
13	0	0	0	0	522	496	
14	0	0	0	0	513	498	
15	0	0	0	0	508	498	
0	0	0	0	0	508	499	
1	0	0	0	0	499	498	
2	0	0	0	0	500	497	
3	0	0	0	0	503	493	
4	0	0	0	0	507	492	
5	0	0	0	0	507	493	
6	0	0	0	0	510	492	
7	0	0	0	0	510	491	
8	0	0	0	0	511	492	
9	0	0	0	0	510	492	
10	0	0	0	0	510	493	
11	0	0	0	0	510	494	
12	0	0	0	0	518	494	
13	0	0	0	0	517	498	
14	0	0	0	0	517	499	
15	0	0	0	0	511	497	
0	0	0	0	0	510	497	
1	0	0	0	0	503	499	
2	0	0	0	0	499	499	
3	0	0	0	0	501	498	
4	0	0	0	0	505	495	
5	0	0	0	0	507	495	
6	0	0	0	0	509	495	
7	0	0	0	0	507	494	
8	0	0	0	0	515	495	
9	0	0	0	0	514	495	
10	0	0	0	0	512	494	
11	0	0	0	0	512	495	
12	0	0	0	0	511	495	
13	0	0	0	0	515	496	
14	0	0	0	0	517	499	
15	0	0	0	0	513	499	
0	0	0	0	0	510	499	
1	0	0	0	0	510	498	
2	0	0	0	0	503	496	
3	0	0	0	0	499	495	
4	0	0	0	0	501	494	
5	0	0	0	0	507	492	
6	0	0	0	0	504	493	
7	0	0	0	0	509	493	
8	0	0	0	0	512	494	
9	0	0	0	0	510	496	
10	0	0	0	0	511	496	
11	0	0	0	0	511	496	
12	0	0	0	0	511	496	
13	0	0	0	0	517	496	
14	0	0	0	0	524	499	
15	0	0	0	0	520	501	
0	0	0	0	0	509	503	
1	0	0	0	0	511	504	
2	0	0	0	0	505	504	
3	0	0	0	0	497	504	
4	0	0	0	0	497	502	
5	0	0	0	0	503	498	
6	0	0	0	0	503	497	
7	0	0	0	0	506	497	
8	0	0	0	0	508	498	
9	0	0	0	0	513	499	
10	0	0	0	0	515	498	
11	0	0	0	0	514	498	
12	0	0	0	0	511	499	
13	0	0	0	0	511	499	
14	0	0	0	0	516	498	
15	0	0	0	0	514	500	
0	0	0	0	0	517	502	
1	0	0	0	0	514	501	
2	0	0	0	0	511	501	
3	0	0	0	0	501	502	
4	0	0	0	0	497	502	
5	0	0	0	0	499	500	
6	0	0	0	0	506	496	
7	0	0	0	0	504	496	
8	0	0	0	0	510	496	
9	0	0	0	0	512	497	
10	0	0	0	0	511	499	
11	0	0	0	0	509	499	
12	0	0	0	0	510	497	
13	0	0	0	0	512	497	
14	0	0	0	0	514	497	
15	0	0	0	0	521	498	
0	0	0	0	0	520	500	
1	0	0	0	0	515	502	
2	0	0	0	0	511	502	
3	0	0	0	0	510	501	
4	0	0	0	0	500	501	
5	0	0	0	0	496	501	
6	0	0	0	0	496	499	
7	0	0	0	0	505	497	
8	0	0	0	0	507	498	
9	0	0	0	0	513	497	
10	0	0	0	0	512	495	
11	0	0	0	0	509	496	
12	0	0	0	0	509	496	
13	0	0	0	0	511	496	
14	0	0	0	0	513	496	
15	0	0	0	0	516	498	
0	0	0	0	0	519	500	
1	0	0	0	0	518	503	
2	0	0	0	0	513	504	
3	0	0	0	0	510	504	
4	0	0	0	0	506	504	
5	0	0	0	0	497	504	
6	0	0	0	0	497	503	
7	0	0	0	0	505	500	
8	0	0	0	0	508	499	
9	0	0	0	0	510	499	
10	0	0	0	0	509	499	
11	0	0	0	0	511	499	
12	0	0	0	0	511	498	
13	0	0	0	0	511	499	
14	0	0	0	0	509	499	
15	0	0	0	0	512	498	
0	0	0	0	0	519	498	
1	0	0	0	0	519	502	
2	0	0	0	0	520	504	
3	0	0	0	0	512	506	
4	0	0	0	0	512	507	
5	0	0	0	0	504	507	
6	0	0	0	0	497	507	
7	0	0	0	0	496	505	
8	0	0	0	0	502	502	
9	0	0	0	0	513	501	
10	0	0	0	0	511	501	
11	0	0	0	0	514	500	
12	0	0	0	0	515	500	
13	0	0	0	0	515	500	
14	0	0	0	0	516	500	
15	0	0	0	0	515	499	
0	0	0	0	0	513	500	
1	0	0	0	0	519	502	
2	0	0	0	0	517	504	
3	0	0	0	0	515	504	
4	0	0	0	0	507	505	
5	0	0	0	0	505	504	
6	0	0	0	0	498	504	
7	0	0	0	0	496	502	
8	0	0	0	0	497	499	
9	0	0	0	0	502	496	
10	0	0	0	0	505	496	
11	0	0	0	0	506	496	
12	0	0	0	0	507	496	
13	0	0	0	0	510	497	
14	0	0	0	0	510	497	
15	0	0	0	0	508	497	
0	0	0	0	0	512	497	
1	0	0	0	0	514	497	
2	0	0	0	0	518	501	
3	0	0	0	0	520	500	
4	0	0	0	0	515	500	
5	0	0	0	0	513	501	
6	0	0	0	0	505	502	
7	0	0	0	0	499	505	
8	0	0	0	0	499	506	
9	0	0	0	0	504	504	
10	0	0	0	0	507	504	
11	0	0	0	0	510	505	
12	0	0	0	0	511	508	
13	0	0	0	0	505	508	
14	0	0	0	0	507	510	
15	0	0	0	0	511	510	
0	0	0	0	0	510	511	
1	0	0	0	0	511	511	
2	0	0	0	0	517	511	
3	0	0	0	0	516	514	
4	0	0	0	0	516	515	
5	0	0	0	0	508	516	
6	0	0	0	0	508	516	
7	0	0	0	0	508	516	
8	0	0	0	0	500	515	
9	0	0	0	0	499	512	
10	0	0	0	0	500	509	
11	0	0	0	0	502	509	
12	0	0	0	0	508	509	
13	0	0	0	0	508	510	
14	0	0	0	0	511	511	
15	0	0	0	0	509	511	
0	0	0	0	0	513	512	
1	0	0	0	0	511	512	
2	0	0	0	0	514	512	
3	0	0	0	0	521	513	
4	0	0	0	0	522	516	
5	0	0	0	0	516	515	
6	0	0	0	0	510	514	
7	0	0	0	0	510	513	
8	0	0	0	0	503	512	
9	0	0	0	0	498	510	
10	0	0	0	0	499	511	
11	0	0	0	0	505	507	
12	0	0	0	0	508	506	
13	0	0	0	0	510	505	
14	0	0	0	0	514	504	
15	0	0	0	0	513	504	
0	0	0	0	0	512	504	
1	0	0	0	0	512	504	
2	0	0	0	0	509	504	
3	0	0	0	0	514	504	
4	0	0	0	0	521	508	
5	0	0	0	0	523	508	
6	0	0	0	0	517	508	
7	0	0	0	0	514	507	
8	0	0	0	0	510	506	
9	0	0	0	0	503	504	
10	0	0	0	0	499	502	
11	0	0	0	0	504	498	
12	0	0	0	0	505	496	
13	0	0	0	0	508	496	
14	0	0	0	0	510	496	
15	0	0	0	0	508	497	
0	0	0	0	0	510	497	
1	0	0	0	0	513	496	
2	0	0	0	0	512	496	
3	0	0	0	0	511	495	
4	0	0	0	0	518	495	
5	0	0	0	0	516	499	
6	0	0	0	0	518	501	
7	0	0	0	0	512	502	
8	0	0	0	0	507	503	
9	0	0	0	0	502	502	
10	0	0	0	0	501	500	
11	0	0	0	0	502	498	
12	0	0	0	0	504	495	
13	0	0	0	0	505	494	
14	0	0	0	0	508	495	
15	0	0	0	0	508	495	
0	0	0	0	0	510	496	
1	0	0	0	0	509	496	
2	0	0	0	0	510	496	
3	0	0	0	0	507	495	
4	0	0	0	0	515	496	
5	0	0	0	0	520	497	
6	0	0	0	0	521	500	
7	0	0	0	0	514	501	
8	0	0	0	0	510	502	
9	0	0	0	0	508	502	
10	0	0	0	0	503	500	
11	0	0	0	0	502	499	
12	0	0	0	0	507	499	
13	0	0	0	0	511	495	
14	0	0	0	0	512	495	
15	0	0	0	0	512	494	
0	0	0	0	0	514	493	
1	0	0	0	0	519	492	
2	0	0	0	0	519	489	
3	0	0	0	0	520	487	
4	0	0	0	0	521	484	
5	0	0	0	0	523	481	
6	0	0	0	0	523	481	
7	0	0	0	0	526	483	
8	0	0	0	0	517	484	
9	0	0	0	0	512	484	
10	0	0	0	0	509	486	
11	0	0	0	0	500	489	
12	0	0	0	0	501	490	
13	0	0	0	0	504	492	
14	0	0	0	0	507	494	
15	0	0	0	0	510	497	
0	0	0	0	0	508	502	
1	0	0	0	0	507	505	
2	0	0	0	0	504	507	
3	0	0	0	0	499	511	
4	0	0	0	0	500	513	
5	0	0	0	0	499	518	
6	0	0	0	0	506	523	
7	0	0	0	0	504	531	
8	0	0	0	0	507	536	
9	0	0	0	0	499	540	
10	0	0	0	0	496	544	
11	0	0	0	0	491	547	
12	0	0	0	0	479	552	
13	0	0	0	0	478	558	
14	0	0	0	0	481	562	
15	0	0	0	0	480	567	
0	0	0	0	0	483	570	
1	0	0	0	0	486	571	
2	0	0	0	0	492	571	
3	0	0	0	0	496	569	
4	0	0	0	0	499	565	
5	0	0	0	0	506	560	
6	0	0	0	0	513	554	
7	0	0	0	0	522	548	
8	0	0	0	0	529	543	
9	0	0	0	0	533	536	
10	0	0	0	0	528	526	
11	0	0	0	0	525	515	
12	0	0	0	0	519	502	
13	0	0	0	0	515	488	
14	0	0	0	0	522	474	
15	0	0	0	0	529	460	
0	0	0	0	0	529	451	
1	0	0	0	0	529	445	
2	0	0	0	0	532	439	
3	0	0	0	0	531	435	
4	0	0	0	0	521	433	
5	0	0	0	0	513	433	
6	0	0	0	0	511	435	
7	0	0	0	0	511	438	
8	0	0	0	0	512	442	
9	0	0	0	0	512	450	
10	0	0	0	0	508	455	
11	0	0	0	0	510	462	
12	0	0	0	0	510	464	
13	0	0	0	0	500	468	
14	0	0	0	0	500	471	
15	0	0	0	0	505	470	
0	0	0	0	0	509	473	
1	0	0	0	0	517	477	
2	0	0	0	0	516	481	
3	0	0	0	0	515	486	
4	0	0	0	0	515	489	
5	0	0	0	0	515	492	
6	0	0	0	0	515	492	
7	0	0	0	0	519	493	
8	0	0	0	0	522	493	
9	0	0	0	0	519	497	
10	0	0	0	0	524	501	
11	0	0	0	0	519	504	
12	0	0	0	0	513	506	
13	0	0	0	0	506	509	
14	0	0	0	0	504	511	
15	0	0	0	0	504	511	
0	0	0	0	0	508	510	
1	0	0	0	0	507	510	
2	0	0	0	0	509	510	
3	0	0	0	0	510	512	
4	0	0	0	0	509	512	
5	0	0	0	0	510	511	
6	0	0	0	0	509	510	
7	0	0	0	0	510	510	
8	0	0	0	0	510	510	
9	0	0	0	0	518	510	
10	0	0	0	0	518	512	
11	0	0	0	0	511	513	
12	0	0	0	0	510	514	
13	0	0	0	0	505	514	
14	0	0	0	0	494	514	
15	0	0	0	0	491	514	
0	0	0	0	0	498	512	
1	0	0	0	0	503	509	
2	0	0	0	0	503	509	
3	0	0	0	0	505	509	
4	0	0	0	0	507	509	
5	0	0	0	0	508	510	
6	0	0	0	0	508	510	
7	0	0	0	0	508	511	
8	0	0	0	0	507	512	
9	0	0	0	0	518	513	
10	0	0	0	0	518	515	
11	0	0	0	0	519	519	
12	0	0	0	0	511	520	
13	0	0	0	0	510	520	
14	0	0	0	0	505	519	
15	0	0	0	0	499	519	
0	0	0	0	0	500	518	
1	0	0	0	0	505	514	
2	0	0	0	0	506	513	
3	0	0	0	0	507	513	
4	0	0	0	0	507	513	
5	0	0	0	0	507	513	
6	0	0	0	0	508	514	
7	0	0	0	0	508	515	
8	0	0	0	0	508	516	
9	0	0	0	0	510	517	
10	0	0	0	0	516	519	
11	0	0	0	0	518	522	
12	0	0	0	0	520	520	
13	0	0	0	0	513	521	
14	0	0	0	0	509	524	
15	0	0	0	0	505	524	
0	0	0	0	0	499	523	
1	0	0	0	0	501	522	
2	0	0	0	0	508	519	
3	0	0	0	0	506	518	
4	0	0	0	0	510	517	
5	0	0	0	0	508	517	
6	0	0	0	0	510	518	
7	0	0	0	0	510	517	
8	0	0	0	0	513	517	
9	0	0	0	0	513	517	
10	0	0	0	0	509	517	
11	0	0	0	0	518	519	
12	0	0	0	0	519	522	
13	0	0	0	0	516	524	
14	0	0	0	0	513	524	
15	0	0	0	0	508	524	
0	0	0	0	0	504	524	
1	0	0	0	0	497	523	
2	0	0	0	0	498	522	
3	0	0	0	0	504	519	
4	0	0	0	0	508	518	
5	0	0	0	0	509	518	
6	0	0	0	0	510	520	
7	0	0	0	0	507	521	
8	0	0	0	0	510	521	
9	0	0	0	0	512	522	
10	0	0	0	0	512	522	
11	0	0	0	0	515	521	
12	0	0	0	0	521	523	
13	0	0	0	0	520	526	
14	0	0	0	0	514	526	
15	0	0	0	0	511	526	
0	0	0	0	0	507	527	
1	0	0	0	0	496	527	
2	0	0	0	0	494	525	
3	0	0	0	0	508	523	
4	0	0	0	0	508	521	
5	0	0	0	0	508	522	
6	0	0	0	0	510	523	
7	0	0	0	0	512	523	
8	0	0	0	0	512	524	
9	0	0	0	0	513	525	
10	0	0	0	0	510	524	
11	0	0	0	0	516	525	
12	0	0	0	0	520	526	
13	0	0	0	0	516	531	
14	0	0	0	0	516	532	
15	0	0	0	0	513	533	
0	0	0	0	0	512	533	
1	0	0	0	0	507	533	
2	0	0	0	0	500	532	
3	0	0	0	0	501	530	
4	0	0	0	0	506	527	
5	0	0	0	0	506	527	
6	0	0	0	0	507	528	
7	0	0	0	0	508	529	
8	0	0	0	0	509	529	
9	0	0	0	0	510	528	
10	0	0	0	0	510	529	
11	0	0	0	0	510	530	
12	0	0	0	0	513	531	
13	0	0	0	0	520	532	
14	0	0	0	0	518	536	
15	0	0	0	0	516	539	
0	0	0	0	0	512	540	
1	0	0	0	0	510	540	
2	0	0	0	0	503	540	
3	0	0	0	0	499	540	
4	0	0	0	0	501	538	
5	0	0	0	0	505	536	
6	0	0	0	0	505	536	
7	0	0	0	0	506	536	
8	0	0	0	0	508	537	
9	0	0	0	0	508	540	
10	0	0	0	0	508	540	
11	0	0	0	0	514	541	
12	0	0	0	0	513	541	
13	0	0	0	0	516	542	
14	0	0	0	0	519	543	
15	0	0	0	0	519	547	
0	0	0	0	0	515	549	
1	0	0	0	0	512	550	
2	0	0	0	0	505	551	
3	0	0	0	0	498	552	
4	0	0	0	0	500	551	
5	0	0	0	0	504	548	
6	0	0	0	0	506	547	
7	0	0	0	0	509	546	
8	0	0	0	0	507	547	
9	0	0	0	0	511	547	
10	0	0	0	0	511	547	
11	0	0	0	0	511	547	
12	0	0	0	0	511	547	
13	0	0	0	0	511	546	
14	0	0	0	0	518	545	
15	0	0	0	0	516	549	
0	0	0	0	0	517	550	
1	0	0	0	0	513	551	
2	0	0	0	0	507	551	
3	0	0	0	0	505	550	
4	0	0	0	0	498	550	
5	0	0	0	0	497	548	
6	0	0	0	0	500	545	
7	0	0	0	0	505	544	
8	0	0	0	0	510	544	
9	0	0	0	0	512	544	
10	0	0	0	0	509	543	
11	0	0	0	0	508	541	
12	0	0	0	0	513	540	
13	0	0	0	0	511	539	
14	0	0	0	0	514	537	
15	0	0	0	0	519	535	
0	0	0	0	0	516	537	
1	0	0	0	0	515	537	
2	0	0	0	0	512	537	
3	0	0	0	0	510	537	
4	0	0	0	0	503	536	
5	0	0	0	0	498	533	
6	0	0	0	0	500	528	
7	0	0	0	0	504	527	
8	0	0	0	0	505	525	
9	0	0	0	0	510	523	
10	0	0	0	0	506	520	
11	0	0	0	0	509	519	
12	0	0	0	0	509	518	
13	0	0	0	0	512	517	
14	0	0	0	0	511	515	
15	0	0	0	0	515	514	
0	0	0	0	0	517	513	
1	0	0	0	0	520	512	
2	0	0	0	0	516	511	
3	0	0	0	0	512	508	
4	0	0	0	0	505	506	
5	0	0	0	0	498	504	
6	0	0	0	0	496	501	
7	0	0	0	0	501	497	
8	0	0	0	0	503	494	
9	0	0	0	0	507	493	
10	0	0	0	0	509	492	
11	0	0	0	0	509	490	
12	0	0	0	0	509	489	
13	0	0	0	0	510	488	
14	0	0	0	0	511	486	
15	0	0	0	0	512	484	
0	0	0	0	0	521	483	
1	0	0	0	0	518	486	
2	0	0	0	0	520	487	
3	0	0	0	0	513	487	
4	0	0	0	0	510	487	
5	0	0	0	0	504	485	
6	0	0	0	0	497	482	
7	0	0	0	0	497	478	
8	0	0	0	0	503	475	
9	0	0	0	0	506	475	
10	0	0	0	0	508	474	
11	0	0	0	0	511	473	
12	0	0	0	0	508	474	
13	0	0	0	0	510	475	
14	0	0	0	0	509	475	
15	0	0	0	0	511	474	
0	0	0	0	0	514	474	
1	0	0	0	0	519	473	
2	0	0	0	0	520	475	
3	0	0	0	0	515	476	
4	0	0	0	0	511	476	
5	0	0	0	0	508	476	
6	0	0	0	0	500	475	
7	0	0	0	0	497	472	
8	0	0	0	0	500	471	
9	0	0	0	0	505	467	
10	0	0	0	0	509	467	
11	0	0	0	0	511	467	
12	0	0	0	0	509	468	
13	0	0	0	0	511	468	
14	0	0	0	0	511	467	
15	0	0	0	0	513	467	
0	0	0	0	0	512	467	
1	0	0	0	0	517	467	
2	0	0	0	0	520	468	
3	0	0	0	0	521	472	
4	0	0	0	0	516	472	
5	0	0	0	0	511	472	
6	0	0	0	0	507	473	
7	0	0	0	0	497	473	
8	0	0	0	0	497	472	
9	0	0	0	0	507	470	
10	0	0	0	0	504	469	
11	0	0	0	0	506	470	
12	0	0	0	0	510	471	
13	0	0	0	0	511	472	
14	0	0	0	0	511	472	
15	0	0	0	0	509	472	
0	0	0	0	0	513	473	
1	0	0	0	0	515	473	
2	0	0	0	0	518	474	
3	0	0	0	0	520	477	
4	0	0	0	0	518	479	
5	0	0	0	0	513	479	
6	0	0	0	0	511	479	
7	0	0	0	0	505	480	
8	0	0	0	0	496	480	
9	0	0	0	0	496	480	
10	0	0	0	0	502	477	
11	0	0	0	0	508	477	
12	0	0	0	0	510	477	
13	0	0	0	0	512	478	
14	0	0	0	0	509	479	
15	0	0	0	0	508	479	
0	0	0	0	0	513	480	
1	0	0	0	0	512	481	
2	0	0	0	0	513	482	
3	0	0	0	0	518	484	
4	0	0	0	0	520	487	
5	0	0	0	0	518	487	
6	0	0	0	0	512	488	
7	0	0	0	0	507	488	
8	0	0	0	0	502	488	
9	0	0	0	0	496	487	
10	0	0	0	0	503	485	
11	0	0	0	0	504	482	
12	0	0	0	0	504	481	
13	0	0	0	0	509	480	
14	0	0	0	0	510	481	
15	0	0	0	0	511	480	
0	0	0	0	0	512	481	
1	0	0	0	0	511	483	
2	0	0	0	0	511	483	
3	0	0	0	0	515	483	
4	0	0	0	0	521	484	
5	0	0	0	0	520	489	
6	0	0	0	0	514	490	
7	0	0	0	0	510	492	
8	0	0	0	0	507	494	
9	0	0	0	0	497	493	
10	0	0	0	0	497	492	
11	0	0	0	0	503	490	
12	0	0	0	0	504	489	
13	0	0	0	0	509	490	
14	0	0	0	0	511	491	
15	0	0	0	0	511	491	
0	0	0	0	0	513	491	
1	0	0	0	0	514	490	
2	0	0	0	0	512	489	
3	0	0	0	0	511	489	
4	0	0	0	0	519	489	
5	0	0	0	0	519	491	
6	0	0	0	0	521	492	
7	0	0	0	0	512	493	
8	0	0	0	0	510	493	
9	0	0	0	0	502	494	
10	0	0	0	0	497	494	
11	0	0	0	0	499	493	
12	0	0	0	0	502	491	
13	0	0	0	0	504	491	
14	0	0	0	0	509	491	
15	0	0	0	0	512	491	
0	0	0	0	0	510	491	
1	0	0	0	0	512	492	
2	0	0	0	0	509	492	
3	0	0	0	0	509	493	
4	0	0	0	0	512	495	
5	0	0	0	0	518	497	
6	0	0	0	0	518	500	
7	0	0	0	0	518	502	
8	0	0	0	0	511	502	
9	0	0	0	0	508	501	
10	0	0	0	0	504	500	
11	0	0	0	0	500	499	
12	0	0	0	0	498	496	
13	0	0	0	0	503	494	
14	0	0	0	0	505	494	
15	0	0	0	0	507	494	
0	0	0	0	0	507	495	
1	0	0	0	0	512	497	
2	0	0	0	0	511	498	
3	0	0	0	0	514	497	
4	0	0	0	0	512	496	
5	0	0	0	0	518	495	
6	0	0	0	0	519	496	
7	0	0	0	0	522	500	
8	0	0	0	0	515	502	
9	0	0	0	0	508	502	
10	0	0	0	0	505	501	
11	0	0	0	0	503	500	
12	0	0	0	0	499	499	
13	0	0	0	0	506	496	
14	0	0	0	0	504	494	
15	0	0	0	0	508	494	
0	0	0	0	0	506	494	
1	0	0	0	0	510	493	
2	0	0	0	0	512	493	
3	0	0	0	0	512	494	
4	0	0	0	0	511	493	
5	0	0	0	0	510	494	
6	0	0	0	0	516	494	
7	0	0	0	0	517	498	
8	0	0	0	0	519	499	
9	0	0	0	0	513	500	
10	0	0	0	0	509	500	
11	0	0	0	0	503	497	
12	0	0	0	0	498	496	
13	0	0	0	0	497	497	
14	0	0	0	0	502	497	
15	0	0	0	0	503	498	
0	0	0	0	0	506	499	
1	0	0	0	0	510	499	
2	0	0	0	0	511	499	
3	0	0	0	0	512	498	
4	0	0	0	0	513	498	
5	0	0	0	0	513	497	
6	0	0	0	0	516	497	
7	0	0	0	0	517	497	
8	0	0	0	0	521	501	
9	0	0	0	0	518	502	
10	0	0	0	0	513	503	
11	0	0	0	0	509	504	
12	0	0	0	0	500	504	
13	0	0	0	0	495	503	
14	0	0	0	0	500	501	
15	0	0	0	0	506	498	
0	0	0	0	0	505	499	
1	0	0	0	0	509	500	
2	0	0	0	0	509	501	
3	0	0	0	0	509	502	
4	0	0	0	0	512	502	
5	0	0	0	0	511	502	
6	0	0	0	0	510	503	
7	0	0	0	0	515	503	
8	0	0	0	0	521	504	
9	0	0	0	0	523	505	
10	0	0	0	0	511	506	
11	0	0	0	0	510	507	
12	0	0	0	0	510	507	
13	0	0	0	0	500	506	
14	0	0	0	0	495	504	
15	0	0	0	0	500	502	
0	0	0	0	0	502	501	
1	0	0	0	0	508	501	
2	0	0	0	0	511	502	
3	0	0	0	0	509	502	
4	0	0	0	0	511	503	
5	0	0	0	0	511	504	
6	0	0	0	0	511	504	
7	0	0	0	0	515	504	
8	0	0	0	0	518	504	
9	0	0	0	0	519	505	
10	0	0	0	0	519	507	
11	0	0	0	0	511	507	
12	0	0	0	0	509	508	
13	0	0	0	0	503	509	
14	0	0	0	0	496	508	
15	0	0	0	0	500	506	
0	0	0	0	0	506	503	
1	0	0	0	0	506	502	
2	0	0	0	0	508	502	
3	0	0	0	0	506	504	
4	0	0	0	0	510	506	
5	0	0	0	0	512	505	
6	0	0	0	0	513	506	
7	0	0	0	0	512	506	
8	0	0	0	0	516	506	
9	0	0	0	0	518	507	
10	0	0	0	0	519	510	
11	0	0	0	0	516	511	
12	0	0	0	0	513	510	
13	0	0	0	0	510	509	
14	0	0	0	0	499	508	
15	0	0	0	0	495	506	
0	0	0	0	0	502	504	
1	0	0	0	0	504	501	
2	0	0	0	0	504	501	
3	0	0	0	0	507	502	
4	0	0	0	0	508	503	
5	0	0	0	0	511	505	
6	0	0	0	0	510	504	
7	0	0	0	0	511	502	
8	0	0	0	0	518	503	
9	0	0	0	0	519	505	
10	0	0	0	0	519	508	
11	0	0	0	0	521	512	
12	0	0	0	0	518	514	
13	0	0	0	0	514	515	
14	0	0	0	0	511	516	
15	0	0	0	0	505	515	
0	0	0	0	0	499	512	
1	0	0	0	0	511	509	
2	0	0	0	0	508	507	
3	0	0	0	0	506	507	
4	0	0	0	0	508	507	
5	0	0	0	0	508	506	
6	0	0	0	0	509	508	
7	0	0	0	0	507	510	
8	0	0	0	0	508	511	
9	0	0	0	0	508	510	
10	0	0	0	0	516	510	
11	0	0	0	0	517	513	
12	0	0	0	0	516	514	
13	0	0	0	0	508	515	
14	0	0	0	0	507	514	
15	0	0	0	0	501	515	
0	0	0	0	0	496	515	
1	0	0	0	0	496	514	
2	0	0	0	0	504	511	
3	0	0	0	0	508	511	
4	0	0	0	0	509	510	
5	0	0	0	0	511	510	
6	0	0	0	0	511	509	
7	0	0	0	0	510	510	
8	0	0	0	0	509	511	
9	0	0	0	0	508	513	
10	0	0	0	0	515	515	
11	0	0	0	0	520	517	
12	0	0	0	0	518	519	
13	0	0	0	0	517	521	
14	0	0	0	0	512	522	
15	0	0	0	0	507	522	
0	0	0	0	0	504	522	
1	0	0	0	0	499	521	
2	0	0	0	0	498	519	
3	0	0	0	0	500	518	
4	0	0	0	0	502	518	
5	0	0	0	0	506	518	
6	0	0	0	0	508	517	
7	0	0	0	0	510	518	
8	0	0	0	0	510	518	
9	0	0	0	0	510	518	
10	0	0	0	0	511	517	
11	0	0	0	0	515	518	
12	0	0	0	0	519	520	
13	0	0	0	0	520	523	
14	0	0	0	0	515	523	
15	0	0	0	0	511	524	
0	0	0	0	0	507	524	
1	0	0	0	0	502	523	
2	0	0	0	0	497	521	
3	0	0	0	0	502	518	
4	0	0	0	0	509	515	
5	0	0	0	0	507	515	
6	0	0	0	0	507	515	
7	0	0	0	0	511	516	
8	0	0	0	0	510	517	
9	0	0	0	0	508	516	
10	0	0	0	0	511	516	
11	0	0	0	0	516	513	
12	0	0	0	0	519	511	
13	0	0	0	0	519	513	
14	0	0	0	0	521	514	
15	0	0	0	0	510	514	
0	0	0	0	0	510	514	
1	0	0	0	0	506	512	
2	0	0	0	0	502	511	
3	0	0	0	0	499	508	
4	0	0	0	0	509	504	
5	0	0	0	0	506	503	
6	0	0	0	0	507	501	
7	0	0	0	0	509	501	
8	0	0	0	0	511	502	
9	0	0	0	0	512	501	
10	0	0	0	0	512	503	
11	0	0	0	0	513	503	
12	0	0	0	0	513	503	
13	0	0	0	0	519	504	
14	0	0	0	0	518	507	
15	0	0	0	0	516	508	
0	0	0	0	0	508	507	
1	0	0	0	0	505	506	
2	0	0	0	0	499	505	
3	0	0	0	0	500	504	
4	0	0	0	0	503	500	
5	0	0	0	0	504	499	
6	0	0	0	0	505	499	
7	0	0	0	0	508	499	
8	0	0	0	0	508	499	
9	0	0	0	0	512	501	
10	0	0	0	0	513	503	
11	0	0	0	0	512	504	
12	0	0	0	0	509	504	
13	0	0	0	0	513	504	
14	0	0	0	0	516	504	
15	0	0	0	0	518	507	
0	0	0	0	0	514	508	
1	0	0	0	0	513	510	
2	0	0	0	0	513	509	
3	0	0	0	0	503	508	
4	0	0	0	0	502	507	
5	0	0	0	0	507	505	
6	0	0	0	0	509	504	
7	0	0	0	0	511	504	
8	0	0	0	0	512	504	
9	0	0	0	0	516	503	
10	0	0	0	0	515	502	
11	0	0	0	0	517	500	
12	0	0	0	0	517	498	
13	0	0	0	0	519	496	
14	0	0	0	0	524	495	
15	0	0	0	0	524	495	
0	0	0	0	0	524	495	
1	0	0	0	0	515	495	
2	0	0	0	0	509	495	
3	0	0	0	0	506	498	
4	0	0	0	0	499	501	
5	0	0	0	0	501	503	
6	0	0	0	0	505	503	
7	0	0	0	0	508	505	
8	0	0	0	0	509	508	
9	0	0	0	0	509	510	
10	0	0	0	0	507	511	
11	0	0	0	0	505	513	
12	0	0	0	0	503	517	
13	0	0	0	0	502	521	
14	0	0	0	0	502	525	
15	0	0	0	0	506	529	
0	0	0	0	0	505	535	
1	0	0	0	0	504	539	
2	0	0	0	0	498	542	
3	0	0	0	0	490	547	
4	0	0	0	0	485	553	
5	0	0	0	0	481	557	
6	0	0	0	0	486	559	
7	0	0	0	0	487	556	
8	0	0	0	0	489	556	
9	0	0	0	0	494	555	
10	0	0	0	0	494	553	
11	0	0	0	0	498	551	
12	0	0	0	0	499	547	
13	0	0	0	0	502	546	
14	0	0	0	0	505	542	
15	0	0	0	0	511	537	
0	0	0	0	0	523	534	
1	0	0	0	0	527	530	
2	0	0	0	0	525	523	
3	0	0	0	0	525	514	
4	0	0	0	0	521	504	
5	0	0	0	0	515	493	
6	0	0	0	0	518	481	
7	0	0	0	0	522	470	
8	0	0	0	0	523	462	
9	0	0	0	0	529	456	
10	0	0	0	0	529	452	
11	0	0	0	0	527	449	
12	0	0	0	0	524	448	
13	0	0	0	0	523	448	
14	0	0	0	0	520	447	
15	0	0	0	0	518	448	
0	0	0	0	0	518	450	
1	0	0	0	0	514	455	
2	0	0	0	0	516	459	
3	0	0	0	0	505	464	
4	0	0	0	0	502	471	
5	0	0	0	0	499	477	
6	0	0	0	0	495	481	
7	0	0	0	0	497	483	
8	0	0	0	0	504	484	
9	0	0	0	0	509	487	
10	0	0	0	0	512	491	
11	0	0	0	0	512	494	
12	0	0	0	0	512	497	
13	0	0	0	0	513	499	
14	0	0	0	0	515	501	
15	0	0	0	0	512	503	
0	0	0	0	0	515	504	
1	0	0	0	0	524	504	
2	0	0	0	0	520	509	
3	0	0	0	0	519	511	
4	0	0	0	0	512	512	
5	0	0	0	0	512	513	
6	0	0	0	0	506	515	
7	0	0	0	0	501	516	
8	0	0	0	0	503	516	
9	0	0	0	0	510	514	
10	0	0	0	0	512	515	
11	0	0	0	0	512	515	
12	0	0	0	0	515	516	
13	0	0	0	0	514	518	
14	0	0	0	0	513	517	
15	0	0	0	0	513	516	
0	0	0	0	0	511	515	
1	0	0	0	0	512	514	
2	0	0	0	0	521	515	
3	0	0	0	0	518	517	
4	0	0	0	0	511	518	
5	0	0	0	0	504	517	
6	0	0	0	0	503	516	
7	0	0	0	0	496	516	
8	0	0	0	0	491	516	
9	0	0	0	0	495	515	
10	0	0	0	0	503	513	
11	0	0	0	0	504	513	
12	0	0	0	0	505	515	
13	0	0	0	0	507	514	
14	0	0	0	0	507	514	
15	0	0	0	0	507	514	
0	0	0	0	0	509	515	
1	0	0	0	0	511	516	
2	0	0	0	0	516	517	
3	0	0	0	0	517	521	
4	0	0	0	0	519	524	
5	0	0	0	0	512	525	
6	0	0	0	0	506	525	
7	0	0	0	0	502	525	
8	0	0	0	0	497	524	
9	0	0	0	0	497	522	
10	0	0	0	0	504	519	
11	0	0	0	0	506	519	
12	0	0	0	0	504	519	
13	0	0	0	0	511	519	
14	0	0	0	0	513	519	
15	0	0	0	0	511	519	
0	0	0	0	0	513	519	
1	0	0	0	0	512	519	
2	0	0	0	0	513	519	
3	0	0	0	0	518	520	
4	0	0	0	0	518	524	
5	0	0	0	0	518	525	
6	0	0	0	0	515	525	
7	0	0	0	0	508	525	
8	0	0	0	0	500	525	
9	0	0	0	0	497	523	
10	0	0	0	0	500	520	
11	0	0	0	0	507	518	
12	0	0	0	0	507	518	
13	0	0	0	0	510	519	
14	0	0	0	0	508	520	
15	0	0	0	0	511	520	
0	0	0	0	0	512	520	
1	0	0	0	0	510	519	
2	0	0	0	0	506	521	
3	0	0	0	0	513	522	
4	0	0	0	0	521	524	
5	0	0	0	0	519	529	
6	0	0	0	0	514	530	
7	0	0	0	0	510	529	
8	0	0	0	0	510	529	
9	0	0	0	0	501	529	
10	0	0	0	0	498	529	
11	0	0	0	0	502	526	
12	0	0	0	0	506	525	
13	0	0	0	0	508	526	
14	0	0	0	0	510	527	
15	0	0	0	0	510	527	
0	0	0	0	0	508	527	
1	0	0	0	0	508	528	
2	0	0	0	0	511	529	
3	0	0	0	0	512	530	
4	0	0	0	0	521	530	
5	0	0	0	0	519	531	
6	0	0	0	0	520	531	
7	0	0	0	0	513	531	
8	0	0	0	0	509	532	
9	0	0	0	0	505	531	
10	0	0	0	0	499	531	
11	0	0	0	0	504	530	
12	0	0	0	0	504	526	
13	0	0	0	0	503	525	
14	0	0	0	0	508	526	
15	0	0	0	0	510	527	
0	0	0	0	0	509	528	
1	0	0	0	0	512	528	
2	0	0	0	0	512	528	
3	0	0	0	0	511	529	
4	0	0	0	0	513	528	
5	0	0	0	0	519	529	
6	0	0	0	0	518	534	
7	0	0	0	0	515	536	
8	0	0	0	0	512	537	
9	0	0	0	0	510	535	
10	0	0	0	0	502	535	
11	0	0	0	0	495	535	
12	0	0	0	0	498	534	
13	0	0	0	0	507	531	
14	0	0	0	0	505	532	
15	0	0	0	0	510	533	
0	0	0	0	0	510	534	
1	0	0	0	0	510	534	
2	0	0	0	0	512	534	
3	0	0	0	0	511	535	
4	0	0	0	0	513	534	
5	0	0	0	0	515	534	
6	0	0	0	0	519	537	
7	0	0	0	0	518	541	
8	0	0	0	0	513	544	
9	0	0	0	0	511	547	
10	0	0	0	0	504	548	
11	0	0	0	0	499	547	
12	0	0	0	0	499	547	
13	0	0	0	0	502	545	
14	0	0	0	0	506	544	
15	0	0	0	0	508	544	
0	0	0	0	0	511	545	
1	0	0	0	0	511	545	
2	0	0	0	0	512	545	
3	0	0	0	0	513	546	
4	0	0	0	0	509	547	
5	0	0	0	0	509	547	
6	0	0	0	0	524	547	
7	0	0	0	0	519	550	
8	0	0	0	0	521	551	
9	0	0	0	0	509	553	
10	0	0	0	0	504	555	
11	0	0	0	0	502	556	
12	0	0	0	0	499	556	
13	0	0	0	0	496	555	
14	0	0	0	0	503	553	
15	0	0	0	0	505	552	
0	0	0	0	0	509	552	
1	0	0	0	0	513	551	
2	0	0	0	0	511	551	
3	0	0	0	0	510	550	
4	0	0	0	0	512	549	
5	0	0	0	0	512	549	
6	0	0	0	0	514	549	
7	0	0	0	0	519	548	
8	0	0	0	0	515	550	
9	0	0	0	0	515	551	
10	0	0	0	0	508	552	
11	0	0	0	0	509	553	
12	0	0	0	0	503	554	
13	0	0	0	0	497	552	
14	0	0	0	0	502	549	
15	0	0	0	0	506	543	
0	0	0	0	0	504	542	
1	0	0	0	0	508	541	
2	0	0	0	0	509	541	
3	0	0	0	0	513	540	
4	0	0	0	0	511	539	
5	0	0	0	0	511	539	
6	0	0	0	0	509	538	
7	0	0	0	0	510	537	
8	0	0	0	0	519	538	
9	0	0	0	0	523	539	
10	0	0	0	0	516	538	
11	0	0	0	0	512	536	
12	0	0	0	0	509	534	
13	0	0	0	0	499	535	
14	0	0	0	0	497	533	
15	0	0	0	0	504	530	
0	0	0	0	0	505	527	
1	0	0	0	0	507	525	
2	0	0	0	0	507	524	
3	0	0	0	0	507	523	
4	0	0	0	0	515	521	
5	0	0	0	0	513	518	
6	0	0	0	0	512	516	
7	0	0	0	0	515	515	
8	0	0	0	0	519	513	
9	0	0	0	0	521	514	
10	0	0	0	0	521	512	
11	0	0	0	0	511	510	
12	0	0	0	0	505	510	
13	0	0	0	0	504	507	
14	0	0	0	0	495	505	
15	0	0	0	0	498	502	
0	0	0	0	0	500	498	
1	0	0	0	0	504	497	
2	0	0	0	0	507	496	
3	0	0	0	0	509	495	
4	0	0	0	0	508	494	
5	0	0	0	0	510	493	
6	0	0	0	0	511	493	
7	0	0	0	0	512	492	
8	0	0	0	0	514	490	
9	0	0	0	0	521	488	
10	0	0	0	0	520	490	
11	0	0	0	0	523	488	
12	0	0	0	0	513	487	
13	0	0	0	0	506	487	
14	0	0	0	0	502	487	
15	0	0	0	0	495	485	
0	0	0	0	0	503	484	
1	0	0	0	0	507	481	
2	0	0	0	0	505	479	
3	0	0	0	0	509	479	
4	0	0	0	0	509	478	
5	0	0	0	0	508	478	
6	0	0	0	0	511	477	
7	0	0	0	0	511	476	
8	0	0	0	0	507	476	
9	0	0	0	0	513	474	
10	0	0	0	0	519	474	
11	0	0	0	0	521	476	
12	0	0	0	0	515	477	
13	0	0	0	0	510	477	
14	0	0	0	0	511	477	
15	0	0	0	0	499	477	
0	0	0	0	0	496	475	
1	0	0	0	0	499	472	
2	0	0	0	0	506	472	
3	0	0	0	0	506	472	
4	0	0	0	0	510	473	
5	0	0	0	0	512	473	
6	0	0	0	0	511	474	
7	0	0	0	0	510	473	
8	0	0	0	0	512	472	
9	0	0	0	0	513	472	
10	0	0	0	0	516	472	
11	0	0	0	0	521	475	
12	0	0	0	0	523	475	
13	0	0	0	0	511	475	
14	0	0	0	0	511	475	
15	0	0	0	0	505	475	
0	0	0	0	0	497	473	
1	0	0	0	0	496	475	
2	0	0	0	0	498	473	
3	0	0	0	0	506	473	
4	0	0	0	0	508	474	
5	0	0	0	0	510	475	
6	0	0	0	0	511	476	
7	0	0	0	0	511	478	
8	0	0	0	0	510	477	
9	0	0	0	0	515	477	
10	0	0	0	0	515	477	
11	0	0	0	0	524	477	
12	0	0	0	0	521	481	
13	0	0	0	0	517	483	
14	0	0	0	0	509	483	
15	0	0	0	0	506	484	
0	0	0	0	0	500	485	
1	0	0	0	0	496	484	
2	0	0	0	0	498	483	
3	0	0	0	0	501	481	
4	0	0	0	0	506	481	
5	0	0	0	0	511	481	
6	0	0	0	0	514	481	
7	0	0	0	0	512	481	
8	0	0	0	0	510	482	
9	0	0	0	0	512	484	
10	0	0	0	0	512	485	
11	0	0	0	0	520	485	
12	0	0	0	0	523	486	
13	0	0	0	0	524	489	
14	0	0	0	0	517	490	
15	0	0	0	0	511	491	
0	0	0	0	0	505	492	
1	0	0	0	0	497	492	
2	0	0	0	0	495	491	
3	0	0	0	0	501	489	
4	0	0	0	0	502	488	
5	0	0	0	0	510	488	
6	0	0	0	0	513	488	
7	0	0	0	0	511	487	
8	0	0	0	0	512	489	
9	0	0	0	0	512	491	
10	0	0	0	0	511	491	
11	0	0	0	0	513	491	
12	0	0	0	0	516	491	
13	0	0	0	0	518	492	
14	0	0	0	0	517	493	
15	0	0	0	0	515	494	
0	0	0	0	0	511	495	
1	0	0	0	0	504	495	
2	0	0	0	0	499	495	
3	0	0	0	0	498	493	
4	0	0	0	0	505	489	
5	0	0	0	0	503	488	
6	0	0	0	0	508	488	
7	0	0	0	0	510	489	
8	0	0	0	0	510	491	
9	0	0	0	0	512	491	
10	0	0	0	0	512	492	
11	0	0	0	0	512	494	
12	0	0	0	0	513	494	
13	0	0	0	0	519	494	
14	0	0	0	0	519	496	
15	0	0	0	0	519	498	
0	0	0	0	0	511	499	
1	0	0	0	0	510	499	
2	0	0	0	0	498	497	
3	0	0	0	0	494	497	
4	0	0	0	0	498	497	
5	0	0	0	0	504	496	
6	0	0	0	0	502	496	
7	0	0	0	0	508	495	
8	0	0	0	0	507	496	
9	0	0	0	0	511	496	
10	0	0	0	0	514	495	
11	0	0	0	0	514	494	
12	0	0	0	0	513	494	
13	0	0	0	0	516	493	
14	0	0	0	0	523	492	
15	0	0	0	0	523	494	
0	0	0	0	0	515	495	
1	0	0	0	0	509	493	
2	0	0	0	0	507	494	
3	0	0	0	0	503	496	
4	0	0	0	0	499	495	
5	0	0	0	0	495	494	
6	0	0	0	0	500	492	
7	0	0	0	0	507	491	
8	0	0	0	0	509	491	
9	0	0	0	0	511	493	
10	0	0	0	0	510	495	
11	0	0	0	0	512	496	
12	0	0	0	0	514	497	
13	0	0	0	0	511	498	
14	0	0	0	0	516	499	
15	0	0	0	0	521	503	
0	0	0	0	0	519	504	
1	0	0	0	0	512	505	
2	0	0	0	0	510	504	
3	0	0	0	0	503	505	
4	0	0	0	0	497	504	
5	0	0	0	0	498	502	
6	0	0	0	0	505	499	
7	0	0	0	0	508	499	
8	0	0	0	0	508	499	
9	0	0	0	0	511	499	
10	0	0	0	0	510	500	
11	0	0	0	0	512	499	
12	0	0	0	0	513	499	
13	0	0	0	0	510	499	
14	0	0	0	0	514	499	
15	0	0	0	0	518	500	
0	0	0	0	0	516	502	
1	0	0	0	0	516	504	
2	0	0	0	0	515	503	
3	0	0	0	0	508	502	
4	0	0	0	0	501	500	
5	0	0	0	0	494	502	
6	0	0	0	0	499	500	
7	0	0	0	0	505	496	
8	0	0	0	0	506	495	
9	0	0	0	0	513	494	
10	0	0	0	0	513	495	
11	0	0	0	0	512	496	
12	0	0	0	0	510	497	
13	0	0	0	0	508	499	
14	0	0	0	0	510	499	
15	0	0	0	0	514	499	
0	0	0	0	0	521	499	
1	0	0	0	0	521	501	
2	0	0	0	0	517	501	
3	0	0	0	0	508	502	
4	0	0	0	0	504	503	
5	0	0	0	0	497	504	
6	0	0	0	0	500	503	
7	0	0	0	0	500	499	
8	0	0	0	0	506	499	
9	0	0	0	0	510	499	
10	0	0	0	0	511	500	
11	0	0	0	0	509	501	
12	0	0	0	0	510	502	
13	0	0	0	0	511	503	
14	0	0	0	0	513	502	
15	0	0	0	0	514	501	
0	0	0	0	0	520	501	
1	0	0	0	0	517	504	
2	0	0	0	0	520	505	
3	0	0	0	0	511	506	
4	0	0	0	0	508	507	
5	0	0	0	0	502	507	
6	0	0	0	0	503	504	
7	0	0	0	0	503	504	
8	0	0	0	0	507	503	
9	0	0	0	0	509	503	
10	0	0	0	0	511	503	
11	0	0	0	0	513	503	
12	0	0	0	0	513	503	
13	0	0	0	0	512	503	
14	0	0	0	0	509	505	
15	0	0	0	0	508	508	
0	0	0	0	0	510	508	
1	0	0	0	0	516	507	
2	0	0	0	0	516	507	
3	0	0	0	0	516	508	
4	0	0	0	0	511	508	
5	0	0	0	0	506	508	
6	0	0	0	0	497	509	
7	0	0	0	0	493	510	
8	0	0	0	0	497	509	
9	0	0	0	0	505	507	
10	0	0	0	0	504	506	
11	0	0	0	0	508	506	
12	0	0	0	0	509	505	
13	0	0	0	0	512	505	
14	0	0	0	0	513	505	
15	0	0	0	0	511	505	
0	0	0	0	0	511	505	
1	0	0	0	0	515	505	
2	0	0	0	0	520	507	
3	0	0	0	0	519	511	
4	0	0	0	0	518	511	
5	0	0	0	0	513	512	
6	0	0	0	0	507	512	
7	0	0	0	0	499	513	
8	0	0	0	0	497	512	
9	0	0	0	0	500	511	
10	0	0	0	0	505	508	
11	0	0	0	0	503	508	
12	0	0	0	0	505	508	
13	0	0	0	0	507	508	
14	0	0	0	0	508	510	
15	0	0	0	0	508	511	
0	0	0	0	0	507	512	
1	0	0	0	0	510	513	
2	0	0	0	0	512	513	
3	0	0	0	0	515	516	
4	0	0	0	0	519	517	
5	0	0	0	0	511	518	
6	0	0	0	0	507	518	
7	0	0	0	0	504	519	
8	0	0	0	0	502	518	
9	0	0	0	0	503	515	
10	0	0	0	0	508	512	
11	0	0	0	0	508	511	
12	0	0	0	0	512	510	
13	0	0	0	0	513	510	
14	0	0	0	0	513	509	
15	0	0	0	0	511	510	
0	0	0	0	0	512	511	
1	0	0	0	0	511	511	
2	0	0	0	0	512	512	
3	0	0	0	0	521	512	
4	0	0	0	0	521	513	
5	0	0	0	0	521	514	
6	0	0	0	0	509	513	
7	0	0	0	0	506	512	
8	0	0	0	0	499	511	
9	0	0	0	0	498	509	
10	0	0	0	0	498	507	
11	0	0	0	0	505	504	
12	0	0	0	0	508	503	
13	0	0	0	0	513	502	
14	0	0	0	0	514	502	
15	0	0	0	0	513	502	
0	0	0	0	0	511	502	
1	0	0	0	0	513	502	
2	0	0	0	0	512	500	
3	0	0	0	0	513	497	
4	0	0	0	0	520	499	
5	0	0	0	0	520	502	
6	0	0	0	0	512	504	
7	0	0	0	0	507	504	
8	0	0	0	0	505	503	
9	0	0	0	0	497	502	
10	0	0	0	0	496	500	
11	0	0	0	0	501	497	
12	0	0	0	0	507	496	
13	0	0	0	0	508	496	
14	0	0	0	0	512	497	
15	0	0	0	0	510	497	
0	0	0	0	0	511	497	
1	0	0	0	0	512	497	
2	0	0	0	0	511	497	
3	0	0	0	0	512	497	
4	0	0	0	0	515	497	
5	0	0	0	0	519	499	
6	0	0	0	0	519	502	
7	0	0	0	0	513	504	
8	0	0	0	0	511	505	
9	0	0	0	0	501	505	
10	0	0	0	0	497	505	
11	0	0	0	0	498	504	
12	0	0	0	0	505	500	
13	0	0	0	0	504	499	
14	0	0	0	0	508	497	
15	0	0	0	0	509	498	
0	0	0	0	0	512	500	
1	0	0	0	0	516	500	
2	0	0	0	0	518	500	
3	0	0	0	0	516	500	
4	0	0	0	0	517	499	
5	0	0	0	0	521	500	
6	0	0	0	0	523	502	
7	0	0	0	0	524	502	
8	0	0	0	0	517	499	
9	0	0	0	0	515	497	
10	0	0	0	0	508	495	
11	0	0	0	0	502	492	
12	0	0	0	0	503	489	
13	0	0	0	0	504	485	
14	0	0	0	0	508	487	
15	0	0	0	0	512	489	
0	0	0	0	0	511	492	
1	0	0	0	0	515	497	
2	0	0	0	0	512	500	
3	0	0	0	0	514	503	
4	0	0	0	0	512	504	
5	0	0	0	0	513	506	
6	0	0	0	0	515	508	
7	0	0	0	0	515	511	
8	0	0	0	0	506	515	
9	0	0	0	0	499	519	
10	0	0	0	0	497	522	
11	0	0	0	0	488	525	
12	0	0	0	0	483	528	
13	0	0	0	0	490	529	
14	0	0	0	0	493	528	
15	0	0	0	0	488	532	
0	0	0	0	0	490	538	
1	0	0	0	0	492	541	
2	0	0	0	0	498	542	
3	0	0	0	0	498	543	
4	0	0	0	0	496	542	
5	0	0	0	0	498	540	
6	0	0	0	0	506	537	
7	0	0	0	0	505	538	
8	0	0	0	0	511	537	
9	0	0	0	0	507	536	
10	0	0	0	0	507	535	
11	0	0	0	0	503	532	
12	0	0	0	0	500	527	
13	0	0	0	0	504	521	
14	0	0	0	0	512	513	
15	0	0	0	0	520	505	
0	0	0	0	0	524	496	
1	0	0	0	0	525	487	
2	0	0	0	0	529	478	
3	0	0	0	0	529	470	
4	0	0	0	0	531	463	
5	0	0	0	0	531	457	
6	0	0	0	0	531	454	
7	0	0	0	0	534	450	
8	0	0	0	0	530	452	
9	0	0	0	0	525	453	
10	0	0	0	0	522	453	
11	0	0	0	0	517	453	
12	0	0	0	0	504	454	
13	0	0	0	0	494	455	
14	0	0	0	0	492	456	
15	0	0	0	0	496	457	
0	0	0	0	0	499	463	
1	0	0	0	0	502	468	
2	0	0	0	0	505	473	
3	0	0	0	0	510	480	
4	0	0	0	0	507	484	
5	0	0	0	0	512	488	
6	0	0	0	0	515	490	
7	0	0	0	0	521	492	
8	0	0	0	0	523	496	
9	0	0	0	0	521	502	
10	0	0	0	0	515	505	
11	0	0	0	0	512	507	
12	0	0	0	0	510	508	
13	0	0	0	0	501	508	
14	0	0	0	0	500	506	
15	0	0	0	0	502	504	
0	0	0	0	0	508	502	
1	0	0	0	0	511	503	
2	0	0	0	0	512	505	
3	0	0	0	0	513	507	
4	0	0	0	0	515	508	
5	0	0	0	0	514	510	
6	0	0	0	0	515	511	
7	0	0	0	0	516	512	
8	0	0	0	0	523	513	
9	0	0	0	0	526	516	
10	0	0	0	0	525	515	
11	0	0	0	0	517	515	
12	0	0	0	0	512	515	
13	0	0	0	0	505	513	
14	0	0	0	0	495	513	
15	0	0	0	0	495	513	
0	0	0	0	0	499	511	
1	0	0	0	0	501	511	
2	0	0	0	0	503	511	
3	0	0	0	0	504	512	
4	0	0	0	0	507	513	
5	0	0	0	0	508	513	
6	0	0	0	0	508	513	
7	0	0	0	0	509	513	
8	0	0	0	0	511	513	
9	0	0	0	0	517	514	
10	0	0	0	0	515	517	
11	0	0	0	0	513	518	
12	0	0	0	0	511	519	
13	0	0	0	0	508	519	
14	0	0	0	0	502	519	
15	0	0	0	0	496	518	
0	0	0	0	0	496	517	
1	0	0	0	0	502	513	
2	0	0	0	0	501	514	
3	0	0	0	0	505	515	
4	0	0	0	0	507	514	
5	0	0	0	0	511	514	
6	0	0	0	0	511	514	
7	0	0	0	0	513	515	
8	0	0	0	0	509	516	
9	0	0	0	0	514	515	
10	0	0	0	0	522	516	
11	0	0	0	0	521	519	
12	0	0	0	0	516	519	
13	0	0	0	0	510	519	
14	0	0	0	0	507	519	
15	0	0	0	0	498	520	
0	0	0	0	0	498	519	
1	0	0	0	0	502	516	
2	0	0	0	0	508	513	
3	0	0	0	0	508	513	
4	0	0	0	0	508	515	
5	0	0	0	0	509	515	
6	0	0	0	0	512	516	
7	0	0	0	0	512	516	
8	0	0	0	0	513	516	
9	0	0	0	0	513	517	
10	0	0	0	0	517	517	
11	0	0	0	0	520	519	
12	0	0	0	0	519	520	
13	0	0	0	0	509	521	
14	0	0	0	0	506	521	
15	0	0	0	0	503	522	
0	0	0	0	0	496	523	
1	0	0	0	0	500	521	
2	0	0	0	0	504	518	
3	0	0	0	0	507	518	
4	0	0	0	0	510	519	
5	0	0	0	0	510	520	
6	0	0	0	0	510	520	
7	0	0	0	0	510	521	
8	0	0	0	0	512	520	
9	0	0	0	0	512	520	
10	0	0	0	0	513	520	
11	0	0	0	0	516	520	
12	0	0	0	0	519	523	
13	0	0	0	0	517	525	
14	0	0	0	0	511	526	
15	0	0	0	0	508	526	
0	0	0	0	0	501	527	
1	0	0	0	0	497	527	
2	0	0	0	0	497	525	
3	0	0	0	0	500	522	
4	0	0	0	0	507	522	
5	0	0	0	0	509	523	
6	0	0	0	0	508	524	
7	0	0	0	0	512	525	
8	0	0	0	0	510	526	
9	0	0	0	0	512	527	
10	0	0	0	0	510	527	
11	0	0	0	0	514	527	
12	0	0	0	0	522	528	
13	0	0	0	0	523	531	
14	0	0	0	0	517	531	
15	0	0	0	0	508	531	
0	0	0	0	0	506	531	
1	0	0	0	0	498	531	
2	0	0	0	0	496	531	
3	0	0	0	0	502	529	
4	0	0	0	0	505	527	
5	0	0	0	0	508	527	
6	0	0	0	0	510	528	
7	0	0	0	0	512	528	
8	0	0	0	0	512	529	
9	0	0	0	0	513	530	
10	0	0	0	0	511	532	
11	0	0	0	0	512	534	
12	0	0	0	0	518	534	
13	0	0	0	0	518	536	
14	0	0	0	0	521	538	
15	0	0	0	0	512	539	
0	0	0	0	0	509	540	
1	0	0	0	0	505	540	
2	0	0	0	0	496	540	
3	0	0	0	0	496	538	
4	0	0	0	0	505	536	
5	0	0	0	0	505	535	
6	0	0	0	0	508	535	
7	0	0	0	0	509	536	
8	0	0	0	0	511	537	
9	0	0	0	0	511	539	
10	0	0	0	0	514	540	
11	0	0	0	0	511	540	
12	0	0	0	0	512	541	
13	0	0	0	0	517	541	
14	0	0	0	0	518	544	
15	0	0	0	0	518	546	
0	0	0	0	0	512	547	
1	0	0	0	0	510	548	
2	0	0	0	0	502	548	
3	0	0	0	0	497	547	
4	0	0	0	0	499	546	
5	0	0	0	0	504	542	
6	0	0	0	0	504	541	
7	0	0	0	0	508	542	
8	0	0	0	0	510	543	
9	0	0	0	0	509	544	
10	0	0	0	0	511	544	
11	0	0	0	0	511	543	
12	0	0	0	0	513	543	
13	0	0	0	0	513	543	
14	0	0	0	0	520	543	
15	0	0	0	0	524	545	
0	0	0	0	0	518	547	
1	0	0	0	0	512	548	
2	0	0	0	0	508	548	
3	0	0	0	0	501	548	
4	0	0	0	0	496	547	
5	0	0	0	0	499	544	
6	0	0	0	0	505	543	
7	0	0	0	0	505	543	
8	0	0	0	0	508	542	
9	0	0	0	0	510	541	
10	0	0	0	0	510	540	
11	0	0	0	0	511	538	
12	0	0	0	0	512	537	
13	0	0	0	0	513	537	
14	0	0	0	0	516	536	
15	0	0	0	0	516	540	
0	0	0	0	0	518	537	
1	0	0	0	0	515	537	
2	0	0	0	0	510	537	
3	0	0	0	0	503	536	
4	0	0	0	0	492	535	
5	0	0	0	0	495	532	
6	0	0	0	0	501	527	
7	0	0	0	0	507	524	
8	0	0	0	0	510	523	
9	0	0	0	0	512	523	
10	0	0	0	0	511	522	
11	0	0	0	0	511	521	
12	0	0	0	0	514	520	
13	0	0	0	0	513	519	
14	0	0	0	0	514	517	
15	0	0	0	0	520	516	
0	0	0	0	0	518	518	
1	0	0	0	0	520	516	
2	0	0	0	0	513	515	
3	0	0	0	0	510	513	
4	0	0	0	0	505	511	
5	0	0	0	0	497	508	
6	0	0	0	0	498	504	
7	0	0	0	0	508	500	
8	0	0	0	0	505	499	
9	0	0	0	0	506	499	
10	0	0	0	0	507	497	
11	0	0	0	0	509	496	
12	0	0	0	0	510	494	
13	0	0	0	0	508	492	
14	0	0	0	0	508	490	
15	0	0	0	0	512	488	
0	0	0	0	0	519	487	
1	0	0	0	0	524	488	
2	0	0	0	0	519	488	
3	0	0	0	0	508	488	
4	0	0	0	0	507	488	
5	0	0	0	0	500	487	
6	0	0	0	0	500	484	
7	0	0	0	0	502	480	
8	0	0	0	0	504	477	
9	0	0	0	0	504	476	
10	0	0	0	0	507	476	
11	0	0	0	0	508	477	
12	0	0	0	0	512	477	
13	0	0	0	0	512	476	
14	0	0	0	0	511	475	
15	0	0	0	0	510	475	
0	0	0	0	0	515	474	
1	0	0	0	0	516	477	
2	0	0	0	0	520	477	
3	0	0	0	0	513	477	
4	0	0	0	0	507	477	
5	0	0	0	0	503	477	
6	0	0	0	0	496	476	
7	0	0	0	0	499	474	
8	0	0	0	0	507	472	
9	0	0	0	0	511	471	
10	0	0	0	0	507	472	
11	0	0	0	0	509	471	
12	0	0	0	0	510	472	
13	0	0	0	0	512	470	
14	0	0	0	0	513	468	
15	0	0	0	0	510	469	
0	0	0	0	0	511	470	
1	0	0	0	0	518	469	
2	0	0	0	0	517	471	
3	0	0	0	0	520	472	
4	0	0	0	0	513	474	
5	0	0	0	0	508	475	
6	0	0	0	0	502	476	
7	0	0	0	0	498	475	
8	0	0	0	0	499	474	
9	0	0	0	0	504	472	
10	0	0	0	0	506	472	
11	0	0	0	0	509	473	
12	0	0	0	0	509	474	
13	0	0	0	0	511	475	
14	0	0	0	0	514	474	
15	0	0	0	0	514	474	
0	0	0	0	0	515	475	
1	0	0	0	0	512	475	
2	0	0	0	0	519	477	
3	0	0	0	0	523	480	
4	0	0	0	0	516	481	
5	0	0	0	0	512	480	
6	0	0	0	0	508	480	
7	0	0	0	0	498	480	
8	0	0	0	0	497	479	
9	0	0	0	0	499	477	
10	0	0	0	0	504	475	
11	0	0	0	0	505	476	
12	0	0	0	0	508	477	
13	0	0	0	0	508	479	
14	0	0	0	0	513	479	
15	0	0	0	0	511	479	
0	0	0	0	0	512	479	
1	0	0	0	0	513	480	
2	0	0	0	0	517	481	
3	0	0	0	0	525	485	
4	0	0	0	0	522	486	
5	0	0	0	0	513	486	
6	0	0	0	0	511	487	
7	0	0	0	0	504	487	
8	0	0	0	0	493	487	
9	0	0	0	0	496	487	
10	0	0	0	0	505	484	
11	0	0	0	0	506	484	
12	0	0	0	0	507	484	
13	0	0	0	0	511	485	
14	0	0	0	0	509	486	
15	0	0	0	0	511	487	
0	0	0	0	0	510	487	
1	0	0	0	0	513	487	
2	0	0	0	0	514	487	
3	0	0	0	0	519	487	
4	0	0	0	0	520	491	
5	0	0	0	0	515	494	
6	0	0	0	0	510	495	
7	0	0	0	0	510	496	
8	0	0	0	0	504	495	
9	0	0	0	0	500	493	
10	0	0	0	0	499	491	
11	0	0	0	0	507	487	
12	0	0	0	0	509	486	
13	0	0	0	0	510	486	
14	0	0	0	0	508	486	
15	0	0	0	0	510	487	
0	0	0	0	0	511	487	
1	0	0	0	0	512	486	
2	0	0	0	0	512	486	
3	0	0	0	0	515	485	
4	0	0	0	0	517	487	
5	0	0	0	0	516	489	
6	0	0	0	0	512	491	
7	0	0	0	0	513	492	
8	0	0	0	0	510	492	
9	0	0	0	0	499	493	
10	0	0	0	0	497	491	
11	0	0	0	0	502	489	
12	0	0	0	0	505	487	
13	0	0	0	0	507	487	
14	0	0	0	0	508	487	
15	0	0	0	0	510	489	
0	0	0	0	0	511	490	
1	0	0	0	0	512	491	
2	0	0	0	0	515	492	
3	0	0	0	0	512	492	
4	0	0	0	0	515	493	
5	0	0	0	0	520	495	
6	0	0	0	0	520	497	
7	0	0	0	0	516	499	
8	0	0	0	0	511	500	
9	0	0	0	0	504	500	
10	0	0	0	0	497	499	
11	0	0	0	0	499	499	
12	0	0	0	0	504	497	
13	0	0	0	0	502	495	
14	0	0	0	0	506	496	
15	0	0	0	0	510	496	
0	0	0	0	0	512	496	
1	0	0	0	0	512	496	
2	0	0	0	0	513	496	
3	0	0	0	0	512	496	
4	0	0	0	0	514	496	
5	0	0	0	0	519	498	
6	0	0	0	0	516	500	
7	0	0	0	0	518	501	
8	0	0	0	0	513	500	
9	0	0	0	0	512	499	
10	0	0	0	0	502	498	
11	0	0	0	0	498	496	
12	0	0	0	0	499	495	
13	0	0	0	0	505	492	
14	0	0	0	0	504	491	
15	0	0	0	0	506	490	
0	0	0	0	0	509	490	
1	0	0	0	0	511	491	
2	0	0	0	0	511	491	
3	0	0	0	0	511	492	
4	0	0	0	0	513	493	
5	0	0	0	0	513	494	
6	0	0	0	0	518	495	
7	0	0	0	0	520	499	
8	0	0	0	0	516	501	
9	0	0	0	0	510	501	
10	0	0	0	0	507	500	
11	0	0	0	0	501	500	
12	0	0	0	0	497	499	
13	0	0	0	0	500	497	
14	0	0	0	0	505	493	
15	0	0	0	0	507	494	
0	0	0	0	0	509	495	
1	0	0	0	0	510	495	
2	0	0	0	0	513	495	
3	0	0	0	0	513	494	
4	0	0	0	0	512	494	
5	0	0	0	0	511	494	
6	0	0	0	0	515	494	
7	0	0	0	0	522	497	
8	0	0	0	0	522	497	
9	0	0	0	0	514	497	
10	0	0	0	0	510	497	
11	0	0	0	0	504	496	
12	0	0	0	0	494	496	
13	0	0	0	0	496	495	
14	0	0	0	0	502	492	
15	0	0	0	0	504	492	
0	0	0	0	0	508	493	
1	0	0	0	0	512	494	
2	0	0	0	0	513	495	
3	0	0	0	0	516	496	
4	0	0	0	0	515	497	
5	0	0	0	0	515	497	
6	0	0	0	0	519	498	
7	0	0	0	0	525	499	
8	0	0	0	0	523	502	
9	0	0	0	0	522	502	
10	0	0	0	0	516	502	
11	0	0	0	0	508	501	
12	0	0	0	0	498	501	
13	0	0	0	0	494	499	
14	0	0	0	0	496	497	
15	0	0	0	0	498	495	
0	0	0	0	0	500	496	
1	0	0	0	0	503	496	
2	0	0	0	0	504	494	
3	0	0	0	0	508	494	
4	0	0	0	0	507	494	
5	0	0	0	0	508	495	
6	0	0	0	0	509	495	
7	0	0	0	0	511	496	
8	0	0	0	0	516	498	
9	0	0	0	0	519	501	
10	0	0	0	0	516	502	
11	0	0	0	0	511	500	
12	0	0	0	0	510	501	
13	0	0	0	0	504	502	
14	0	0	0	0	499	502	
15	0	0	0	0	501	502	
0	0	0	0	0	504	500	
1	0	0	0	0	508	502	
2	0	0	0	0	510	503	
3	0	0	0	0	511	504	
4	0	0	0	0	512	504	
5	0	0	0	0	511	504	
6	0	0	0	0	512	504	
7	0	0	0	0	511	505	
8	0	0	0	0	515	505	
9	0	0	0	0	518	504	
10	0	0	0	0	522	508	
11	0	0	0	0	514	510	
12	0	0	0	0	510	511	
13	0	0	0	0	501	512	
14	0	0	0	0	495	512	
15	0	0	0	0	495	511	
0	0	0	0	0	502	509	
1	0	0	0	0	504	508	
2	0	0	0	0	505	508	
3	0	0	0	0	505	509	
4	0	0	0	0	511	510	
5	0	0	0	0	510	510	
6	0	0	0	0	513	511	
7	0	0	0	0	512	510	
8	0	0	0	0	512	510	
9	0	0	0	0	517	510	
10	0	0	0	0	520	513	
11	0	0	0	0	520	514	
12	0	0	0	0	513	513	
13	0	0	0	0	508	512	
14	0	0	0	0	503	511	
15	0	0	0	0	496	511	
0	0	0	0	0	500	509	
1	0	0	0	0	507	505	
2	0	0	0	0	508	504	
3	0	0	0	0	511	503	
4	0	0	0	0	510	502	
5	0	0	0	0	512	503	
6	0	0	0	0	511	501	
7	0	0	0	0	511	501	
8	0	0	0	0	511	500	
9	0	0	0	0	515	499	
10	0	0	0	0	521	499	
11	0	0	0	0	519	501	
12	0	0	0	0	517	501	
13	0	0	0	0	511	500	
14	0	0	0	0	509	499	
15	0	0	0	0	502	498	
0	0	0	0	0	497	496	
1	0	0	0	0	498	492	
2	0	0	0	0	505	490	
3	0	0	0	0	505	490	
4	0	0	0	0	509	490	
5	0	0	0	0	508	490	
6	0	0	0	0	510	491	
7	0	0	0	0	510	491	
8	0	0	0	0	512	492	
9	0	0	0	0	512	492	
10	0	0	0	0	518	492	
11	0	0	0	0	522	496	
12	0	0	0	0	521	496	
13	0	0	0	0	515	497	
14	0	0	0	0	510	499	
15	0	0	0	0	504	499	
0	0	0	0	0	496	499	
1	0	0	0	0	498	496	
2	0	0	0	0	505	493	
3	0	0	0	0	507	491	
4	0	0	0	0	508	491	
5	0	0	0	0	508	491	
6	0	0	0	0	510	491	
7	0	0	0	0	511	491	
8	0	0	0	0	510	492	
9	0	0	0	0	510	492	
10	0	0	0	0	511	494	
11	0	0	0	0	521	492	
12	0	0	0	0	522	495	
13	0	0	0	0	522	496	
14	0	0	0	0	516	497	
15	0	0	0	0	511	496	
0	0	0	0	0	505	495	
1	0	0	0	0	500	494	
2	0	0	0	0	500	492	
3	0	0	0	0	512	488	
4	0	0	0	0	513	487	
5	0	0	0	0	513	486	
6	0	0	0	0	515	485	
7	0	0	0	0	516	485	
8	0	0	0	0	516	484	
9	0	0	0	0	515	484	
10	0	0	0	0	516	484	
11	0	0	0	0	516	485	
12	0	0	0	0	519	488	
13	0	0	0	0	524	494	
14	0	0	0	0	520	498	
15	0	0	0	0	514	501	
0	0	0	0	0	512	503	
1	0	0	0	0	501	505	
2	0	0	0	0	497	505	
3	0	0	0	0	499	502	
4	0	0	0	0	496	503	
5	0	0	0	0	493	504	
6	0	0	0	0	491	507	
7	0	0	0	0	499	510	
8	0	0	0	0	498	515	
9	0	0	0	0	498	517	
10	0	0	0	0	499	519	
11	0	0	0	0	496	520	
12	0	0	0	0	499	524	
13	0	0	0	0	499	529	
14	0	0	0	0	501	536	
15	0	0	0	0	492	540	
0	0	0	0	0	482	544	
1	0	0	0	0	481	545	
2	0	0	0	0	474	545	
3	0	0	0	0	474	545	
4	0	0	0	0	484	543	
5	0	0	0	0	491	542	
6	0	0	0	0	499	541	
7	0	0	0	0	507	537	
8	0	0	0	0	516	533	
9	0	0	0	0	521	527	
10	0	0	0	0	527	521	
11	0	0	0	0	529	513	
12	0	0	0	0	531	507	
13	0	0	0	0	536	501	
14	0	0	0	0	539	497	
15	0	0	0	0	541	491	
0	0	0	0	0	536	485	
1	0	0	0	0	534	479	
2	0	0	0	0	527	473	
3	0	0	0	0	519	468	
4	0	0	0	0	515	463	
5	0	0	0	0	516	457	
6	0	0	0	0	511	456	
7	0	0	0	0	510	458	
8	0	0	0	0	508	459	
9	0	0	0	0	509	462	
10	0	0	0	0	507	466	
11	0	0	0	0	507	470	
12	0	0	0	0	512	472	
13	0	0	0	0	516	475	
14	0	0	0	0	522	480	
15	0	0	0	0	525	486	
0	0	0	0	0	521	490	
1	0	0	0	0	516	491	
2	0	0	0	0	512	493	
3	0	0	0	0	508	494	
4	0	0	0	0	506	495	
5	0	0	0	0	507	491	
6	0	0	0	0	508	492	
7	0	0	0	0	508	494	
8	0	0	0	0	511	495	
9	0	0	0	0	514	496	
10	0	0	0	0	515	496	
11	0	0	0	0	513	496	
12	0	0	0	0	513	500	
13	0	0	0	0	517	502	
14	0	0	0	0	522	504	
15	0	0	0	0	524	506	
0	0	0	0	0	524	510	
1	0	0	0	0	512	510	
2	0	0	0	0	512	511	
3	0	0	0	0	505	511	
4	0	0	0	0	498	509	
5	0	0	0	0	497	507	
6	0	0	0	0	502	502	
7	0	0	0	0	502	500	
8	0	0	0	0	504	501	
9	0	0	0	0	503	501	
10	0	0	0	0	502	502	
11	0	0	0	0	506	502	
12	0	0	0	0	507	502	
13	0	0	0	0	507	502	
14	0	0	0	0	510	501	
15	0	0	0	0	513	503	
0	0	0	0	0	510	507	
1	0	0	0	0	512	510	
2	0	0	0	0	509	511	
3	0	0	0	0	505	511	
4	0	0	0	0	497	510	
5	0	0	0	0	496	508	
6	0	0	0	0	496	506	
7	0	0	0	0	504	503	
8	0	0	0	0	504	504	
9	0	0	0	0	508	504	
10	0	0	0	0	507	505	
11	0	0	0	0	509	507	
12	0	0	0	0	510	509	
13	0	0	0	0	511	509	
14	0	0	0	0	508	510	
15	0	0	0	0	509	510	
0	0	0	0	0	519	511	
1	0	0	0	0	520	514	
2	0	0	0	0	519	515	
3	0	0	0	0	513	516	
4	0	0	0	0	509	515	
5	0	0	0	0	502	514	
6	0	0	0	0	499	512	
7	0	0	0	0	504	508	
8	0	0	0	0	505	505	
9	0	0	0	0	506	505	
10	0	0	0	0	505	507	
11	0	0	0	0	509	508	
12	0	0	0	0	509	508	
13	0	0	0	0	508	510	
14	0	0	0	0	509	511	
15	0	0	0	0	511	511	
0	0	0	0	0	516	511	
1	0	0	0	0	521	512	
2	0	0	0	0	519	515	
3	0	0	0	0	512	517	
4	0	0	0	0	508	518	
5	0	0	0	0	505	518	
6	0	0	0	0	498	516	
7	0	0	0	0	499	514	
8	0	0	0	0	503	512	
9	0	0	0	0	507	511	
10	0	0	0	0	509	513	
11	0	0	0	0	509	514	
12	0	0	0	0	510	515	
13	0	0	0	0	512	515	
14	0	0	0	0	514	515	
15	0	0	0	0	511	514	
0	0	0	0	0	508	515	
1	0	0	0	0	522	515	
2	0	0	0	0	520	519	
3	0	0	0	0	518	519	
4	0	0	0	0	511	520	
5	0	0	0	0	510	521	
6	0	0	0	0	503	521	
7	0	0	0	0	498	520	
8	0	0	0	0	497	519	
9	0	0	0	0	504	515	
10	0	0	0	0	508	514	
11	0	0	0	0	509	514	
12	0	0	0	0	508	514	
13	0	0	0	0	510	514	
14	0	0	0	0	512	515	
15	0	0	0	0	510	514	
0	0	0	0	0	511	513	
1	0	0	0	0	514	513	
2	0	0	0	0	519	515	
3	0	0	0	0	518	519	
4	0	0	0	0	513	521	
5	0	0	0	0	512	521	
6	0	0	0	0	510	522	
7	0	0	0	0	502	523	
8	0	0	0	0	500	521	
9	0	0	0	0	501	519	
10	0	0	0	0	506	517	
11	0	0	0	0	507	518	
12	0	0	0	0	509	518	
13	0	0	0	0	511	518	
14	0	0	0	0	509	519	
15	0	0	0	0	511	519	
0	0	0	0	0	512	520	
1	0	0	0	0	514	519	
2	0	0	0	0	515	519	
3	0	0	0	0	518	519	
4	0	0	0	0	519	523	
5	0	0	0	0	516	524	
6	0	0	0	0	512	525	
7	0	0	0	0	506	526	
8	0	0	0	0	498	526	
9	0	0	0	0	498	526	
10	0	0	0	0	504	525	
11	0	0	0	0	507	524	
12	0	0	0	0	508	524	
13	0	0	0	0	507	525	
14	0	0	0	0	511	527	
15	0	0	0	0	508	528	
0	0	0	0	0	512	528	
1	0	0	0	0	515	527	
2	0	0	0	0	514	527	
3	0	0	0	0	519	529	
4	0	0	0	0	517	532	
5	0	0	0	0	517	535	
6	0	0	0	0	511	535	
7	0	0	0	0	509	536	
8	0	0	0	0	503	537	
9	0	0	0	0	497	537	
10	0	0	0	0	500	535	
11	0	0	0	0	503	532	
12	0	0	0	0	507	532	
13	0	0	0	0	511	534	
14	0	0	0	0	512	534	
15	0	0	0	0	511	535	
0	0	0	0	0	510	536	
1	0	0	0	0	510	536	
2	0	0	0	0	511	537	
3	0	0	0	0	512	537	
4	0	0	0	0	518	540	
5	0	0	0	0	516	543	
6	0	0	0	0	515	544	
7	0	0	0	0	512	544	
8	0	0	0	0	510	543	
9	0	0	0	0	500	543	
10	0	0	0	0	497	542	
11	0	0	0	0	503	540	
12	0	0	0	0	507	537	
13	0	0	0	0	509	536	
14	0	0	0	0	508	537	
15	0	0	0	0	509	537	
0	0	0	0	0	509	537	
1	0	0	0	0	510	537	
2	0	0	0	0	509	537	
3	0	0	0	0	513	537	
4	0	0	0	0	517	537	
5	0	0	0	0	521	538	
6	0	0	0	0	519	540	
7	0	0	0	0	514	540	
8	0	0	0	0	511	540	
9	0	0	0	0	509	539	
10	0	0	0	0	501	537	
11	0	0	0	0	500	534	
12	0	0	0	0	502	529	
13	0	0	0	0	505	528	
14	0	0	0	0	510	526	
15	0	0	0	0	508	525	
0	0	0	0	0	508	524	
1	0	0	0	0	509	522	
2	0	0	0	0	508	521	
3	0	0	0	0	509	520	
4	0	0	0	0	509	521	
5	0	0	0	0	516	522	
6	0	0	0	0	518	523	
7	0	0	0	0	516	523	
8	0	0	0	0	512	522	
9	0	0	0	0	510	519	
10	0	0	0	0	504	517	
11	0	0	0	0	497	514	
12	0	0	0	0	502	511	
13	0	0	0	0	506	505	
14	0	0	0	0	505	504	
15	0	0	0	0	511	503	
0	0	0	0	0	511	502	
1	0	0	0	0	512	500	
2	0	0	0	0	511	499	
3	0	0	0	0	509	497	
4	0	0	0	0	507	495	
5	0	0	0	0	511	494	
6	0	0	0	0	519	494	
7	0	0	0	0	515	495	
8	0	0	0	0	516	495	
9	0	0	0	0	510	495	
10	0	0	0	0	507	494	
11	0	0	0	0	499	493	
12	0	0	0	0	496	491	
13	0	0	0	0	502	487	
14	0	0	0	0	503	483	
15	0	0	0	0	504	484	
0	0	0	0	0	503	484	
1	0	0	0	0	507	483	
2	0	0	0	0	511	482	
3	0	0	0	0	512	483	
4	0	0	0	0	511	483	
5	0	0	0	0	513	483	
6	0	0	0	0	515	483	
7	0	0	0	0	519	484	
8	0	0	0	0	519	487	
9	0	0	0	0	512	489	
10	0	0	0	0	509	488	
11	0	0	0	0	509	487	
12	0	0	0	0	498	486	
13	0	0	0	0	498	484	
14	0	0	0	0	505	481	
15	0	0	0	0	507	481	
0	0	0	0	0	513	480	
1	0	0	0	0	514	479	
2	0	0	0	0	512	478	
3	0	0	0	0	512	476	
4	0	0	0	0	510	476	
5	0	0	0	0	509	476	
6	0	0	0	0	513	476	
7	0	0	0	0	517	476	
8	0	0	0	0	517	478	
9	0	0	0	0	518	479	
10	0	0	0	0	514	479	
11	0	0	0	0	510	480	
12	0	0	0	0	504	480	
13	0	0	0	0	497	478	
14	0	0	0	0	499	476	
15	0	0	0	0	503	474	
0	0	0	0	0	506	475	
1	0	0	0	0	510	475	
2	0	0	0	0	511	475	
3	0	0	0	0	509	477	
4	0	0	0	0	510	478	
5	0	0	0	0	510	480	
6	0	0	0	0	511	480	
7	0	0	0	0	515	480	
8	0	0	0	0	519	481	
9	0	0	0	0	517	485	
10	0	0	0	0	516	486	
11	0	0	0	0	511	486	
12	0	0	0	0	508	485	
13	0	0	0	0	500	484	
14	0	0	0	0	499	482	
15	0	0	0	0	500	478	
0	0	0	0	0	504	477	
1	0	0	0	0	508	477	
2	0	0	0	0	510	478	
3	0	0	0	0	511	479	
4	0	0	0	0	512	480	
5	0	0	0	0	514	480	
6	0	0	0	0	513	481	
7	0	0	0	0	514	480	
8	0	0	0	0	516	480	
9	0	0	0	0	519	482	
10	0	0	0	0	521	486	
11	0	0	0	0	515	487	
12	0	0	0	0	512	487	
13	0	0	0	0	511	486	
14	0	0	0	0	502	486	
15	0	0	0	0	496	485	
0	0	0	0	0	505	482	
1	0	0	0	0	504	481	
2	0	0	0	0	506	479	
3	0	0	0	0	507	480	
4	0	0	0	0	508	482	
5	0	0	0	0	510	483	
6	0	0	0	0	512	485	
7	0	0	0	0	510	487	
8	0	0	0	0	511	487	
9	0	0	0	0	519	486	
10	0	0	0	0	519	489	
11	0	0	0	0	520	493	
12	0	0	0	0	511	494	
13	0	0	0	0	508	494	
14	0	0	0	0	501	495	
15	0	0	0	0	499	494	
0	0	0	0	0	500	493	
1	0	0	0	0	503	489	
2	0	0	0	0	504	488	
3	0	0	0	0	507	488	
4	0	0	0	0	509	488	
5	0	0	0	0	508	489	
6	0	0	0	0	509	490	
7	0	0	0	0	509	492	
8	0	0	0	0	511	493	
9	0	0	0	0	516	493	
10	0	0	0	0	519	495	
11	0	0	0	0	521	498	
12	0	0	0	0	516	500	
13	0	0	0	0	508	499	
14	0	0	0	0	513	499	
15	0	0	0	0	503	499	
0	0	0	0	0	499	498	
1	0	0	0	0	500	496	
2	0	0	0	0	505	492	
3	0	0	0	0	507	492	
4	0	0	0	0	507	493	
5	0	0	0	0	508	494	
6	0	0	0	0	507	494	
7	0	0	0	0	511	494	
8	0	0	0	0	509	494	
9	0	0	0	0	513	494	
10	0	0	0	0	519	494	
11	0	0	0	0	521	496	
12	0	0	0	0	521	499	
13	0	0	0	0	515	500	
14	0	0	0	0	510	499	
15	0	0	0	0	508	499	
0	0	0	0	0	500	499	
1	0	0	0	0	500	497	
2	0	0	0	0	504	494	
3	0	0	0	0	503	492	
4	0	0	0	0	505	493	
5	0	0	0	0	510	494	
6	0	0	0	0	508	494	
7	0	0	0	0	512	493	
8	0	0	0	0	512	494	
9	0	0	0	0	513	493	
10	0	0	0	0	514	494	
11	0	0	0	0	519	494	
12	0	0	0	0	516	498	
13	0	0	0	0	518	500	
14	0	0	0	0	511	501	
15	0	0	0	0	510	501	
0	0	0	0	0	504	502	
1	0	0	0	0	499	500	
2	0	0	0	0	499	499	
3	0	0	0	0	501	496	
4	0	0	0	0	504	496	
5	0	0	0	0	508	495	
6	0	0	0	0	510	495	
7	0	0	0	0	512	497	
8	0	0	0	0	511	498	
9	0	0	0	0	511	498	
10	0	0	0	0	513	498	
11	0	0	0	0	514	498	
12	0	0	0	0	518	499	
13	0	0	0	0	518	503	
14	0	0	0	0	514	505	
15	0	0	0	0	510	505	
0	0	0	0	0	508	504	
1	0	0	0	0	500	503	
2	0	0	0	0	499	501	
3	0	0	0	0	501	499	
4	0	0	0	0	507	496	
5	0	0	0	0	509	495	
6	0	0	0	0	511	496	
7	0	0	0	0	510	497	
8	0	0	0	0	512	496	
9	0	0	0	0	511	496	
10	0	0	0	0	511	497	
11	0	0	0	0	515	498	
12	0	0	0	0	516	497	
13	0	0	0	0	520	499	
14	0	0	0	0	521	503	
15	0	0	0	0	515	504	
0	0	0	0	0	509	505	
1	0	0	0	0	504	505	
2	0	0	0	0	502	505	
3	0	0	0	0	496	504	
4	0	0	0	0	500	500	
5	0	0	0	0	507	501	
6	0	0	0	0	509	501	
7	0	0	0	0	512	500	
8	0	0	0	0	513	499	
9	0	0	0	0	518	499	
10	0	0	0	0	517	500	
11	0	0	0	0	515	500	
12	0	0	0	0	519	500	
13	0	0	0	0	523	500	
14	0	0	0	0	516	504	
15	0	0	0	0	516	505	
0	0	0	0	0	507	507	
1	0	0	0	0	504	507	
2	0	0	0	0	499	507	
3	0	0	0	0	496	505	
4	0	0	0	0	492	504	
5	0	0	0	0	502	500	
6	0	0	0	0	504	500	
7	0	0	0	0	507	500	
8	0	0	0	0	506	501	
9	0	0	0	0	510	500	
10	0	0	0	0	508	500	
11	0	0	0	0	510	501	
12	0	0	0	0	511	503	
13	0	0	0	0	512	502	
14	0	0	0	0	519	503	
15	0	0	0	0	520	506	
0	0	0	0	0	519	507	
1	0	0	0	0	513	507	
2	0	0	0	0	507	508	
3	0	0	0	0	499	510	
4	0	0	0	0	498	510	
5	0	0	0	0	501	509	
6	0	0	0	0	505	508	
7	0	0	0	0	508	508	
8	0	0	0	0	510	508	
9	0	0	0	0	509	507	
10	0	0	0	0	511	507	
11	0	0	0	0	509	509	
12	0	0	0	0	510	510	
13	0	0	0	0	510	511	
14	0	0	0	0	511	513	
15	0	0	0	0	516	515	
0	0	0	0	0	519	520	
1	0	0	0	0	513	521	
2	0	0	0	0	509	521	
3	0	0	0	0	507	520	
4	0	0	0	0	497	520	
5	0	0	0	0	495	518	
6	0	0	0	0	499	514	
7	0	0	0	0	505	513	
8	0	0	0	0	509	513	
9	0	0	0	0	512	512	
10	0	0	0	0	511	511	
11	0	0	0	0	512	511	
12	0	0	0	0	512	510	
13	0	0	0	0	512	510	
14	0	0	0	0	516	511	
15	0	0	0	0	520	511	
0	0	0	0	0	519	515	
1	0	0	0	0	520	516	
2	0	0	0	0	514	515	
3	0	0	0	0	510	515	
4	0	0	0	0	504	515	
5	0	0	0	0	498	513	
6	0	0	0	0	500	510	
7	0	0	0	0	504	505	
8	0	0	0	0	504	504	
9	0	0	0	0	507	504	
10	0	0	0	0	510	504	
11	0	0	0	0	508	504	
12	0	0	0	0	514	504	
13	0	0	0	0	513	504	
14	0	0	0	0	516	503	
15	0	0	0	0	514	501	
0	0	0	0	0	519	502	
1	0	0	0	0	519	503	
2	0	0	0	0	517	503	
3	0	0	0	0	512	503	
4	0	0	0	0	509	503	
5	0	0	0	0	500	502	
6	0	0	0	0	498	501	
7	0	0	0	0	501	498	
8	0	0	0	0	504	495	
9	0	0	0	0	508	495	
10	0	0	0	0	510	494	
11	0	0	0	0	509	495	
12	0	0	0	0	509	495	
13	0	0	0	0	511	495	
14	0	0	0	0	512	494	
15	0	0	0	0	511	493	
0	0	0	0	0	516	494	
1	0	0	0	0	519	495	
2	0	0	0	0	521	498	
3	0	0	0	0	515	500	
4	0	0	0	0	511	501	
5	0	0	0	0	508	500	
6	0	0	0	0	500	499	
7	0	0	0	0	499	497	
8	0	0	0	0	505	495	
9	0	0	0	0	505	494	
10	0	0	0	0	508	494	
11	0	0	0	0	508	494	
12	0	0	0	0	509	495	
13	0	0	0	0	509	495	
14	0	0	0	0	512	496	
15	0	0	0	0	511	497	
0	0	0	0	0	513	497	
1	0	0	0	0	518	497	
2	0	0	0	0	522	500	
3	0	0	0	0	523	503	
4	0	0	0	0	519	503	
5	0	0	0	0	515	503	
6	0	0	0	0	511	503	
7	0	0	0	0	505	500	
8	0	0	0	0	505	497	
9	0	0	0	0	512	492	
10	0	0	0	0	511	490	
11	0	0	0	0	514	488	
12	0	0	0	0	513	487	
13	0	0	0	0	514	488	
14	0	0	0	0	516	490	
15	0	0	0	0	513	493	
0	0	0	0	0	514	497	
1	0	0	0	0	517	500	
2	0	0	0	0	521	505	
3	0	0	0	0	517	509	
4	0	0	0	0	513	510	
5	0	0	0	0	508	510	
6	0	0	0	0	504	511	
7	0	0	0	0	492	513	
8	0	0	0	0	483	514	
9	0	0	0	0	487	515	
10	0	0	0	0	490	515	
11	0	0	0	0	490	518	
12	0	0	0	0	495	519	
13	0	0	0	0	496	521	
14	0	0	0	0	494	524	
15	0	0	0	0	491	528	
0	0	0	0	0	493	532	
1	0	0	0	0	494	535	
2	0	0	0	0	491	537	
3	0	0	0	0	492	541	
4	0	0	0	0	494	546	
5	0	0	0	0	489	548	
6	0	0	0	0	488	550	
7	0	0	0	0	491	549	
8	0	0	0	0	488	547	
9	0	0	0	0	497	543	
10	0	0	0	0	503	537	
11	0	0	0	0	513	533	
12	0	0	0	0	519	527	
13	0	0	0	0	524	521	
14	0	0	0	0	525	514	
15	0	0	0	0	529	505	
0	0	0	0	0	532	498	
1	0	0	0	0	530	492	
2	0	0	0	0	533	485	
3	0	0	0	0	539	481	
4	0	0	0	0	543	478	
5	0	0	0	0	544	473	
6	0	0	0	0	533	471	
7	0	0	0	0	522	469	
8	0	0	0	0	514	468	
9	0	0	0	0	504	467	
10	0	0	0	0	504	468	
11	0	0	0	0	505	466	
12	0	0	0	0	501	468	
13	0	0	0	0	504	471	
14	0	0	0	0	513	472	
15	0	0	0	0	515	476	
0	0	0	0	0	518	480	
1	0	0	0	0	521	483	
2	0	0	0	0	518	487	
3	0	0	0	0	518	490	
4	0	0	0	0	528	493	
5	0	0	0	0	527	497	
6	0	0	0	0	524	499	
7	0	0	0	0	519	501	
8	0	0	0	0	515	503	
9	0	0	0	0	503	505	
10	0	0	0	0	498	505	
11	0	0	0	0	504	504	
12	0	0	0	0	508	500	
13	0	0	0	0	507	500	
14	0	0	0	0	512	502	
15	0	0	0	0	514	504	
0	0	0	0	0	514	506	
1	0	0	0	0	513	507	
2	0	0	0	0	509	507	
3	0	0	0	0	515	508	
4	0	0	0	0	519	507	
5	0	0	0	0	519	508	
6	0	0	0	0	519	511	
7	0	0	0	0	515	513	
8	0	0	0	0	510	514	
9	0	0	0	0	504	515	
10	0	0	0	0	492	516	
11	0	0	0	0	487	517	
12	0	0	0	0	492	515	
13	0	0	0	0	498	512	
14	0	0	0	0	499	509	
15	0	0	0	0	504	508	
0	0	0	0	0	509	507	
1	0	0	0	0	506	505	
2	0	0	0	0	504	504	
3	0	0	0	0	505	503	
4	0	0	0	0	504	502	
5	0	0	0	0	512	502	
6	0	0	0	0	520	505	
7	0	0	0	0	520	507	
8	0	0	0	0	510	508	
9	0	0	0	0	509	507	
10	0	0	0	0	505	506	
11	0	0	0	0	499	505	
12	0	0	0	0	499	504	
13	0	0	0	0	502	502	
14	0	0	0	0	505	503	
15	0	0	0	0	506	506	
0	0	0	0	0	508	507	
1	0	0	0	0	513	508	
2	0	0	0	0	512	508	
3	0	0	0	0	510	509	
4	0	0	0	0	510	509	
5	0	0	0	0	511	510	
6	0	0	0	0	515	512	
7	0	0	0	0	517	515	
8	0	0	0	0	517	515	
9	0	0	0	0	512	517	
10	0	0	0	0	508	516	
11	0	0	0	0	503	515	
12	0	0	0	0	497	513	
13	0	0	0	0	503	511	
14	0	0	0	0	503	508	
15	0	0	0	0	507	509	
0	0	0	0	0	508	509	
1	0	0	0	0	509	510	
2	0	0	0	0	508	510	
3	0	0	0	0	506	510	
4	0	0	0	0	517	510	
5	0	0	0	0	512	511	
6	0	0	0	0	515	511	
7	0	0	0	0	521	513	
8	0	0	0	0	524	517	
9	0	0	0	0	518	519	
10	0	0	0	0	510	520	
11	0	0	0	0	507	520	
12	0	0	0	0	499	520	
13	0	0	0	0	496	519	
14	0	0	0	0	496	513	
15	0	0	0	0	506	512	
0	0	0	0	0	510	513	
1	0	0	0	0	512	513	
2	0	0	0	0	510	514	
3	0	0	0	0	510	515	
4	0	0	0	0	510	515	
5	0	0	0	0	509	515	
6	0	0	0	0	511	515	
7	0	0	0	0	514	514	
8	0	0	0	0	514	517	
9	0	0	0	0	518	519	
10	0	0	0	0	513	518	
11	0	0	0	0	511	517	
12	0	0	0	0	503	518	
13	0	0	0	0	499	516	
14	0	0	0	0	499	515	
15	0	0	0	0	502	513	
0	0	0	0	0	508	513	
1	0	0	0	0	508	515	
2	0	0	0	0	508	516	
3	0	0	0	0	511	518	
4	0	0	0	0	515	519	
5	0	0	0	0	513	519	
6	0	0	0	0	514	519	
7	0	0	0	0	511	518	
8	0	0	0	0	519	519	
9	0	0	0	0	520	520	
10	0	0	0	0	516	521	
11	0	0	0	0	511	521	
12	0	0	0	0	507	522	
13	0	0	0	0	503	523	
14	0	0	0	0	500	521	
15	0	0	0	0	498	518	
0	0	0	0	0	509	515	
1	0	0	0	0	504	515	
2	0	0	0	0	508	516	
3	0	0	0	0	509	517	
4	0	0	0	0	511	519	
5	0	0	0	0	510	519	
6	0	0	0	0	511	519	
7	0	0	0	0	508	520	
8	0	0	0	0	516	520	
9	0	0	0	0	520	522	
10	0	0	0	0	519	526	
11	0	0	0	0	514	527	
12	0	0	0	0	510	528	
13	0	0	0	0	507	528	
14	0	0	0	0	504	528	
15	0	0	0	0	499	526	
0	0	0	0	0	503	524	
1	0	0	0	0	511	521	
2	0	0	0	0	508	522	
3	0	0	0	0	508	523	
4	0	0	0	0	512	524	
5	0	0	0	0	506	524	
6	0	0	0	0	510	524	
7	0	0	0	0	512	525	
8	0	0	0	0	511	527	
9	0	0	0	0	513	528	
10	0	0	0	0	511	531	
11	0	0	0	0	523	534	
12	0	0	0	0	518	536	
13	0	0	0	0	512	537	
14	0	0	0	0	505	537	
15	0	0	0	0	498	536	
0	0	0	0	0	499	536	
1	0	0	0	0	507	534	
2	0	0	0	0	505	533	
3	0	0	0	0	508	534	
4	0	0	0	0	508	535	
5	0	0	0	0	510	535	
6	0	0	0	0	512	534	
7	0	0	0	0	512	534	
8	0	0	0	0	515	533	
9	0	0	0	0	518	533	
10	0	0	0	0	521	535	
11	0	0	0	0	519	538	
12	0	0	0	0	515	541	
13	0	0	0	0	509	542	
14	0	0	0	0	507	543	
15	0	0	0	0	501	542	
0	0	0	0	0	499	540	
1	0	0	0	0	498	538	
2	0	0	0	0	502	534	
3	0	0	0	0	504	533	
4	0	0	0	0	511	534	
5	0	0	0	0	512	533	
6	0	0	0	0	510	532	
7	0	0	0	0	512	531	
8	0	0	0	0	510	530	
9	0	0	0	0	510	530	
10	0	0	0	0	514	529	
11	0	0	0	0	512	529	
12	0	0	0	0	521	532	
13	0	0	0	0	514	533	
14	0	0	0	0	510	532	
15	0	0	0	0	508	531	
0	0	0	0	0	498	529	
1	0	0	0	0	497	527	
2	0	0	0	0	502	522	
3	0	0	0	0	507	520	
4	0	0	0	0	510	519	
5	0	0	0	0	508	518	
6	0	0	0	0	508	518	
7	0	0	0	0	509	515	
8	0	0	0	0	513	512	
9	0	0	0	0	511	512	
10	0	0	0	0	511	511	
11	0	0	0	0	515	510	
12	0	0	0	0	517	512	
13	0	0	0	0	518	513	
14	0	0	0	0	514	512	
15	0	0	0	0	508	511	
0	0	0	0	0	506	510	
1	0	0	0	0	499	507	
2	0	0	0	0	496	505	
3	0	0	0	0	501	499	
4	0	0	0	0	507	496	
5	0	0	0	0	510	496	
6	0	0	0	0	509	495	
7	0	0	0	0	512	496	
8	0	0	0	0	511	494	
9	0	0	0	0	510	492	
10	0	0	0	0	511	491	
11	0	0	0	0	511	489	
12	0	0	0	0	514	488	
13	0	0	0	0	514	490	
14	0	0	0	0	514	491	
15	0	0	0	0	513	489	
0	0	0	0	0	509	488	
1	0	0	0	0	506	487	
2	0	0	0	0	500	484	
3	0	0	0	0	503	483	
4	0	0	0	0	504	479	
5	0	0	0	0	504	478	
6	0	0	0	0	507	478	
7	0	0	0	0	510	476	
8	0	0	0	0	509	476	
9	0	0	0	0	509	476	
10	0	0	0	0	510	476	
11	0	0	0	0	511	476	
12	0	0	0	0	513	476	
13	0	0	0	0	518	477	
14	0	0	0	0	522	480	
15	0	0	0	0	513	483	
0	0	0	0	0	509	483	
1	0	0	0	0	513	483	
2	0	0	0	0	499	481	
3	0	0	0	0	499	477	
4	0	0	0	0	503	473	
5	0	0	0	0	507	471	
6	0	0	0	0	503	471	
7	0	0	0	0	506	472	
8	0	0	0	0	513	471	
9	0	0	0	0	510	470	
10	0	0	0	0	508	471	
11	0	0	0	0	510	471	
12	0	0	0	0	514	471	
13	0	0	0	0	522	472	
14	0	0	0	0	523	476	
15	0	0	0	0	519	476	
0	0	0	0	0	515	476	
1	0	0	0	0	510	477	
2	0	0	0	0	501	479	
3	0	0	0	0	494	477	
