# OpenSignals Text File Format. Version 1
# {"98:D3:41:FD:4F:50": {"position": 0, "device": "bitalino_rev", "device name": "98:D3:41:FD:4F:50", "device connection": "BTH98:D3:41:FD:4F:50", "sampling rate": 1000, "resolution": [4, 1, 1, 1, 1, 10, 10], "firmware version": 1282, "comments": "", "keywords": "", "mode": 0, "sync interval": 2, "date": "2025-7-2", "time": "12:10:10.716", "channels": [1, 2], "sensor": ["EMGBITREV", "ECGBIT"], "label": ["A1", "A2"], "column": ["nSeq", "I1", "I2", "O1", "O2", "A1", "A2"], "special": [{}, {}], "digital IO": [0, 0, 1, 1]}}
# EndOfHeader
0	0	0	0	0	514	510	
1	0	0	0	0	515	510	
2	0	0	0	0	512	509	
3	0	0	0	0	512	508	
4	0	0	0	0	509	507	
5	0	0	0	0	508	506	
6	0	0	0	0	504	505	
7	0	0	0	0	504	504	
8	0	0	0	0	504	504	
9	0	0	0	0	499	503	
10	0	0	0	0	500	503	
11	0	0	0	0	502	504	
12	0	0	0	0	505	505	
13	0	0	0	0	511	505	
14	0	0	0	0	510	506	
15	0	0	0	0	512	507	
0	0	0	0	0	512	508	
1	0	0	0	0	511	510	
2	0	0	0	0	509	510	
3	0	0	0	0	511	510	
4	0	0	0	0	510	510	
5	0	0	0	0	508	510	
6	0	0	0	0	506	510	
7	0	0	0	0	503	508	
8	0	0	0	0	504	507	
9	0	0	0	0	505	506	
10	0	0	0	0	508	505	
11	0	0	0	0	507	504	
12	0	0	0	0	508	504	
13	0	0	0	0	508	504	
14	0	0	0	0	512	505	
15	0	0	0	0	510	507	
0	0	0	0	0	510	509	
1	0	0	0	0	512	511	
2	0	0	0	0	510	512	
3	0	0	0	0	509	513	
4	0	0	0	0	507	514	
5	0	0	0	0	505	514	
6	0	0	0	0	508	514	
7	0	0	0	0	508	513	
8	0	0	0	0	508	513	
9	0	0	0	0	507	511	
10	0	0	0	0	504	511	
11	0	0	0	0	506	511	
12	0	0	0	0	510	510	
13	0	0	0	0	512	510	
14	0	0	0	0	511	509	
15	0	0	0	0	512	509	
0	0	0	0	0	515	510	
1	0	0	0	0	514	511	
2	0	0	0	0	512	513	
3	0	0	0	0	511	514	
4	0	0	0	0	511	516	
5	0	0	0	0	511	516	
6	0	0	0	0	506	516	
7	0	0	0	0	507	516	
8	0	0	0	0	507	516	
9	0	0	0	0	507	515	
10	0	0	0	0	504	514	
11	0	0	0	0	507	514	
12	0	0	0	0	508	514	
13	0	0	0	0	508	513	
14	0	0	0	0	508	513	
15	0	0	0	0	510	514	
0	0	0	0	0	509	515	
1	0	0	0	0	511	516	
2	0	0	0	0	511	517	
3	0	0	0	0	512	519	
4	0	0	0	0	514	519	
5	0	0	0	0	512	519	
6	0	0	0	0	510	519	
7	0	0	0	0	512	519	
8	0	0	0	0	508	518	
9	0	0	0	0	509	518	
10	0	0	0	0	510	516	
11	0	0	0	0	505	515	
12	0	0	0	0	507	514	
13	0	0	0	0	508	514	
14	0	0	0	0	511	513	
15	0	0	0	0	510	514	
0	0	0	0	0	508	515	
1	0	0	0	0	513	515	
2	0	0	0	0	512	517	
3	0	0	0	0	513	517	
4	0	0	0	0	511	518	
5	0	0	0	0	512	519	
6	0	0	0	0	508	518	
7	0	0	0	0	510	517	
8	0	0	0	0	507	516	
9	0	0	0	0	508	516	
10	0	0	0	0	509	515	
11	0	0	0	0	509	514	
12	0	0	0	0	510	513	
13	0	0	0	0	509	512	
14	0	0	0	0	511	512	
15	0	0	0	0	511	513	
0	0	0	0	0	511	513	
1	0	0	0	0	511	515	
2	0	0	0	0	512	516	
3	0	0	0	0	511	517	
4	0	0	0	0	512	518	
5	0	0	0	0	511	518	
6	0	0	0	0	509	519	
7	0	0	0	0	510	519	
8	0	0	0	0	508	518	
9	0	0	0	0	509	518	
10	0	0	0	0	508	517	
11	0	0	0	0	509	517	
12	0	0	0	0	509	516	
13	0	0	0	0	508	516	
14	0	0	0	0	509	516	
15	0	0	0	0	506	518	
0	0	0	0	0	508	518	
1	0	0	0	0	510	519	
2	0	0	0	0	512	520	
3	0	0	0	0	511	521	
4	0	0	0	0	513	523	
5	0	0	0	0	513	524	
6	0	0	0	0	511	524	
7	0	0	0	0	512	524	
8	0	0	0	0	511	524	
9	0	0	0	0	510	523	
10	0	0	0	0	509	523	
11	0	0	0	0	509	523	
12	0	0	0	0	507	522	
13	0	0	0	0	505	522	
14	0	0	0	0	507	522	
15	0	0	0	0	507	522	
0	0	0	0	0	511	523	
1	0	0	0	0	509	523	
2	0	0	0	0	510	525	
3	0	0	0	0	513	526	
4	0	0	0	0	509	527	
5	0	0	0	0	511	529	
6	0	0	0	0	512	531	
7	0	0	0	0	510	533	
8	0	0	0	0	508	533	
9	0	0	0	0	505	534	
10	0	0	0	0	507	534	
11	0	0	0	0	507	534	
12	0	0	0	0	505	533	
13	0	0	0	0	508	532	
14	0	0	0	0	509	532	
15	0	0	0	0	510	532	
0	0	0	0	0	511	533	
1	0	0	0	0	512	534	
2	0	0	0	0	513	535	
3	0	0	0	0	512	536	
4	0	0	0	0	515	536	
5	0	0	0	0	514	537	
6	0	0	0	0	514	538	
7	0	0	0	0	514	537	
8	0	0	0	0	513	537	
9	0	0	0	0	511	537	
10	0	0	0	0	506	537	
11	0	0	0	0	505	538	
12	0	0	0	0	504	538	
13	0	0	0	0	506	537	
14	0	0	0	0	505	536	
15	0	0	0	0	504	536	
0	0	0	0	0	507	537	
1	0	0	0	0	508	538	
2	0	0	0	0	508	540	
3	0	0	0	0	510	541	
4	0	0	0	0	513	541	
5	0	0	0	0	513	542	
6	0	0	0	0	512	542	
7	0	0	0	0	513	542	
8	0	0	0	0	513	542	
9	0	0	0	0	511	541	
10	0	0	0	0	512	542	
11	0	0	0	0	509	541	
12	0	0	0	0	508	540	
13	0	0	0	0	507	540	
14	0	0	0	0	508	539	
15	0	0	0	0	508	537	
0	0	0	0	0	506	536	
1	0	0	0	0	506	535	
2	0	0	0	0	507	534	
3	0	0	0	0	506	533	
4	0	0	0	0	512	533	
5	0	0	0	0	512	533	
6	0	0	0	0	513	532	
7	0	0	0	0	512	532	
8	0	0	0	0	511	531	
9	0	0	0	0	509	530	
10	0	0	0	0	508	529	
11	0	0	0	0	504	527	
12	0	0	0	0	507	524	
13	0	0	0	0	507	522	
14	0	0	0	0	505	520	
15	0	0	0	0	505	518	
0	0	0	0	0	504	517	
1	0	0	0	0	510	515	
2	0	0	0	0	507	514	
3	0	0	0	0	509	513	
4	0	0	0	0	511	512	
5	0	0	0	0	512	512	
6	0	0	0	0	514	512	
7	0	0	0	0	515	511	
8	0	0	0	0	515	511	
9	0	0	0	0	511	510	
10	0	0	0	0	510	510	
11	0	0	0	0	510	508	
12	0	0	0	0	510	505	
13	0	0	0	0	507	504	
14	0	0	0	0	506	501	
15	0	0	0	0	504	499	
0	0	0	0	0	505	497	
1	0	0	0	0	506	495	
2	0	0	0	0	508	494	
3	0	0	0	0	508	491	
4	0	0	0	0	508	490	
5	0	0	0	0	511	489	
6	0	0	0	0	511	489	
7	0	0	0	0	511	489	
8	0	0	0	0	512	488	
9	0	0	0	0	513	488	
10	0	0	0	0	512	487	
11	0	0	0	0	510	487	
12	0	0	0	0	508	486	
13	0	0	0	0	508	484	
14	0	0	0	0	506	483	
15	0	0	0	0	508	481	
0	0	0	0	0	505	479	
1	0	0	0	0	507	478	
2	0	0	0	0	506	476	
3	0	0	0	0	509	476	
4	0	0	0	0	507	474	
5	0	0	0	0	510	473	
6	0	0	0	0	508	474	
7	0	0	0	0	509	475	
8	0	0	0	0	510	476	
9	0	0	0	0	512	477	
10	0	0	0	0	512	477	
11	0	0	0	0	511	478	
12	0	0	0	0	511	478	
13	0	0	0	0	511	477	
14	0	0	0	0	513	475	
15	0	0	0	0	510	473	
0	0	0	0	0	507	472	
1	0	0	0	0	507	471	
2	0	0	0	0	507	472	
3	0	0	0	0	507	472	
4	0	0	0	0	508	472	
5	0	0	0	0	508	472	
6	0	0	0	0	510	473	
7	0	0	0	0	512	473	
8	0	0	0	0	512	473	
9	0	0	0	0	513	474	
10	0	0	0	0	513	474	
11	0	0	0	0	513	475	
12	0	0	0	0	513	475	
13	0	0	0	0	508	475	
14	0	0	0	0	508	475	
15	0	0	0	0	509	474	
0	0	0	0	0	506	474	
1	0	0	0	0	504	475	
2	0	0	0	0	506	475	
3	0	0	0	0	505	475	
4	0	0	0	0	506	475	
5	0	0	0	0	508	476	
6	0	0	0	0	511	477	
7	0	0	0	0	514	478	
8	0	0	0	0	511	480	
9	0	0	0	0	511	480	
10	0	0	0	0	512	480	
11	0	0	0	0	514	481	
12	0	0	0	0	512	481	
13	0	0	0	0	511	481	
14	0	0	0	0	511	480	
15	0	0	0	0	509	480	
0	0	0	0	0	509	479	
1	0	0	0	0	508	479	
2	0	0	0	0	507	478	
3	0	0	0	0	506	477	
4	0	0	0	0	504	477	
5	0	0	0	0	508	476	
6	0	0	0	0	510	476	
7	0	0	0	0	510	476	
8	0	0	0	0	510	477	
9	0	0	0	0	510	478	
10	0	0	0	0	512	480	
11	0	0	0	0	513	482	
12	0	0	0	0	514	483	
13	0	0	0	0	511	484	
14	0	0	0	0	509	485	
15	0	0	0	0	510	484	
0	0	0	0	0	508	483	
1	0	0	0	0	507	483	
2	0	0	0	0	509	482	
3	0	0	0	0	510	481	
4	0	0	0	0	508	480	
5	0	0	0	0	510	480	
6	0	0	0	0	509	480	
7	0	0	0	0	509	481	
8	0	0	0	0	510	481	
9	0	0	0	0	513	483	
10	0	0	0	0	512	483	
11	0	0	0	0	509	485	
12	0	0	0	0	512	487	
13	0	0	0	0	512	487	
14	0	0	0	0	512	487	
15	0	0	0	0	510	488	
0	0	0	0	0	509	488	
1	0	0	0	0	508	488	
2	0	0	0	0	508	488	
3	0	0	0	0	509	488	
4	0	0	0	0	507	487	
5	0	0	0	0	507	486	
6	0	0	0	0	508	487	
7	0	0	0	0	510	487	
8	0	0	0	0	511	489	
9	0	0	0	0	512	491	
10	0	0	0	0	512	491	
11	0	0	0	0	511	492	
12	0	0	0	0	511	493	
13	0	0	0	0	512	494	
14	0	0	0	0	513	494	
15	0	0	0	0	511	493	
0	0	0	0	0	511	493	
1	0	0	0	0	508	491	
2	0	0	0	0	509	491	
3	0	0	0	0	508	490	
4	0	0	0	0	507	490	
5	0	0	0	0	508	489	
6	0	0	0	0	508	489	
7	0	0	0	0	510	489	
8	0	0	0	0	509	489	
9	0	0	0	0	510	490	
10	0	0	0	0	512	491	
11	0	0	0	0	512	491	
12	0	0	0	0	510	493	
13	0	0	0	0	512	494	
14	0	0	0	0	513	495	
15	0	0	0	0	510	495	
0	0	0	0	0	509	495	
1	0	0	0	0	509	495	
2	0	0	0	0	510	495	
3	0	0	0	0	507	494	
4	0	0	0	0	504	494	
5	0	0	0	0	505	493	
6	0	0	0	0	507	493	
7	0	0	0	0	511	493	
8	0	0	0	0	509	493	
9	0	0	0	0	510	493	
10	0	0	0	0	512	493	
11	0	0	0	0	512	493	
12	0	0	0	0	513	494	
13	0	0	0	0	512	495	
14	0	0	0	0	511	496	
15	0	0	0	0	508	496	
0	0	0	0	0	511	496	
1	0	0	0	0	509	496	
2	0	0	0	0	508	495	
3	0	0	0	0	509	496	
4	0	0	0	0	507	497	
5	0	0	0	0	507	497	
6	0	0	0	0	506	496	
7	0	0	0	0	507	495	
8	0	0	0	0	507	494	
9	0	0	0	0	510	494	
10	0	0	0	0	512	494	
11	0	0	0	0	510	495	
12	0	0	0	0	510	495	
13	0	0	0	0	511	495	
14	0	0	0	0	512	496	
15	0	0	0	0	511	498	
0	0	0	0	0	511	499	
1	0	0	0	0	511	499	
2	0	0	0	0	511	499	
3	0	0	0	0	508	499	
4	0	0	0	0	505	500	
5	0	0	0	0	506	501	
6	0	0	0	0	507	500	
7	0	0	0	0	508	500	
8	0	0	0	0	507	499	
9	0	0	0	0	508	499	
10	0	0	0	0	508	499	
11	0	0	0	0	509	500	
12	0	0	0	0	511	502	
13	0	0	0	0	512	502	
14	0	0	0	0	510	503	
15	0	0	0	0	513	503	
0	0	0	0	0	513	503	
1	0	0	0	0	511	503	
2	0	0	0	0	511	502	
3	0	0	0	0	512	502	
4	0	0	0	0	511	501	
5	0	0	0	0	506	501	
6	0	0	0	0	511	499	
7	0	0	0	0	505	499	
8	0	0	0	0	506	499	
9	0	0	0	0	506	499	
10	0	0	0	0	508	498	
11	0	0	0	0	509	499	
12	0	0	0	0	509	499	
13	0	0	0	0	513	500	
14	0	0	0	0	512	500	
15	0	0	0	0	512	501	
0	0	0	0	0	514	503	
1	0	0	0	0	511	504	
2	0	0	0	0	511	504	
3	0	0	0	0	513	504	
4	0	0	0	0	512	503	
5	0	0	0	0	512	503	
6	0	0	0	0	512	501	
7	0	0	0	0	510	500	
8	0	0	0	0	505	500	
9	0	0	0	0	506	498	
10	0	0	0	0	506	498	
11	0	0	0	0	506	498	
12	0	0	0	0	508	498	
13	0	0	0	0	511	499	
14	0	0	0	0	511	499	
15	0	0	0	0	509	499	
0	0	0	0	0	511	500	
1	0	0	0	0	513	500	
2	0	0	0	0	512	501	
3	0	0	0	0	510	500	
4	0	0	0	0	509	500	
5	0	0	0	0	510	499	
6	0	0	0	0	509	499	
7	0	0	0	0	509	499	
8	0	0	0	0	507	497	
9	0	0	0	0	505	497	
10	0	0	0	0	506	497	
11	0	0	0	0	506	497	
12	0	0	0	0	509	497	
13	0	0	0	0	510	499	
14	0	0	0	0	511	501	
15	0	0	0	0	510	502	
0	0	0	0	0	509	504	
1	0	0	0	0	510	505	
2	0	0	0	0	509	506	
3	0	0	0	0	512	507	
4	0	0	0	0	511	507	
5	0	0	0	0	510	508	
6	0	0	0	0	508	508	
7	0	0	0	0	508	507	
8	0	0	0	0	508	506	
9	0	0	0	0	509	505	
10	0	0	0	0	508	505	
11	0	0	0	0	510	504	
12	0	0	0	0	511	504	
13	0	0	0	0	508	504	
14	0	0	0	0	510	505	
15	0	0	0	0	512	505	
0	0	0	0	0	511	505	
1	0	0	0	0	511	506	
2	0	0	0	0	511	507	
3	0	0	0	0	513	508	
4	0	0	0	0	513	508	
5	0	0	0	0	511	508	
6	0	0	0	0	510	506	
7	0	0	0	0	508	505	
8	0	0	0	0	507	504	
9	0	0	0	0	504	503	
10	0	0	0	0	506	502	
11	0	0	0	0	504	502	
12	0	0	0	0	504	502	
13	0	0	0	0	508	501	
14	0	0	0	0	509	501	
15	0	0	0	0	511	501	
0	0	0	0	0	511	500	
1	0	0	0	0	515	501	
2	0	0	0	0	513	502	
3	0	0	0	0	513	503	
4	0	0	0	0	513	504	
5	0	0	0	0	512	504	
6	0	0	0	0	510	504	
7	0	0	0	0	505	504	
8	0	0	0	0	507	504	
9	0	0	0	0	509	504	
10	0	0	0	0	508	503	
11	0	0	0	0	507	500	
12	0	0	0	0	507	500	
13	0	0	0	0	508	500	
14	0	0	0	0	510	499	
15	0	0	0	0	509	500	
0	0	0	0	0	512	501	
1	0	0	0	0	511	502	
2	0	0	0	0	512	502	
3	0	0	0	0	512	504	
4	0	0	0	0	512	504	
5	0	0	0	0	513	504	
6	0	0	0	0	511	505	
7	0	0	0	0	512	504	
8	0	0	0	0	510	504	
9	0	0	0	0	508	503	
10	0	0	0	0	508	504	
11	0	0	0	0	507	503	
12	0	0	0	0	509	503	
13	0	0	0	0	507	502	
14	0	0	0	0	510	501	
15	0	0	0	0	510	500	
0	0	0	0	0	513	501	
1	0	0	0	0	515	501	
2	0	0	0	0	513	501	
3	0	0	0	0	511	501	
4	0	0	0	0	511	503	
5	0	0	0	0	512	504	
6	0	0	0	0	511	505	
7	0	0	0	0	510	505	
8	0	0	0	0	511	505	
9	0	0	0	0	511	506	
10	0	0	0	0	512	505	
11	0	0	0	0	512	505	
12	0	0	0	0	511	504	
13	0	0	0	0	508	503	
14	0	0	0	0	507	504	
15	0	0	0	0	508	503	
0	0	0	0	0	507	504	
1	0	0	0	0	505	505	
2	0	0	0	0	509	505	
3	0	0	0	0	508	507	
4	0	0	0	0	512	507	
5	0	0	0	0	513	508	
6	0	0	0	0	512	508	
7	0	0	0	0	511	508	
8	0	0	0	0	507	507	
9	0	0	0	0	506	507	
10	0	0	0	0	503	506	
11	0	0	0	0	505	505	
12	0	0	0	0	504	504	
13	0	0	0	0	504	504	
14	0	0	0	0	503	504	
15	0	0	0	0	507	504	
0	0	0	0	0	507	505	
1	0	0	0	0	509	505	
2	0	0	0	0	511	507	
3	0	0	0	0	512	509	
4	0	0	0	0	513	510	
5	0	0	0	0	513	512	
6	0	0	0	0	513	515	
7	0	0	0	0	514	516	
8	0	0	0	0	513	517	
9	0	0	0	0	510	518	
10	0	0	0	0	509	518	
11	0	0	0	0	508	518	
12	0	0	0	0	508	518	
13	0	0	0	0	510	517	
14	0	0	0	0	508	517	
15	0	0	0	0	508	516	
0	0	0	0	0	508	515	
1	0	0	0	0	506	515	
2	0	0	0	0	507	516	
3	0	0	0	0	509	515	
4	0	0	0	0	510	515	
5	0	0	0	0	510	516	
6	0	0	0	0	510	516	
7	0	0	0	0	512	518	
8	0	0	0	0	510	518	
9	0	0	0	0	511	519	
10	0	0	0	0	510	518	
11	0	0	0	0	507	518	
12	0	0	0	0	504	517	
13	0	0	0	0	506	516	
14	0	0	0	0	505	515	
15	0	0	0	0	506	514	
0	0	0	0	0	508	513	
1	0	0	0	0	509	512	
2	0	0	0	0	509	513	
3	0	0	0	0	509	512	
4	0	0	0	0	509	512	
5	0	0	0	0	512	512	
6	0	0	0	0	513	513	
7	0	0	0	0	517	515	
8	0	0	0	0	516	515	
9	0	0	0	0	512	515	
10	0	0	0	0	511	515	
11	0	0	0	0	511	514	
12	0	0	0	0	511	513	
13	0	0	0	0	507	512	
14	0	0	0	0	506	511	
15	0	0	0	0	507	510	
0	0	0	0	0	502	509	
1	0	0	0	0	509	508	
2	0	0	0	0	509	508	
3	0	0	0	0	511	508	
4	0	0	0	0	512	508	
5	0	0	0	0	515	507	
6	0	0	0	0	513	507	
7	0	0	0	0	515	508	
8	0	0	0	0	515	507	
9	0	0	0	0	511	508	
10	0	0	0	0	510	507	
11	0	0	0	0	512	507	
12	0	0	0	0	508	507	
13	0	0	0	0	504	506	
14	0	0	0	0	504	506	
15	0	0	0	0	508	505	
0	0	0	0	0	508	504	
1	0	0	0	0	507	504	
2	0	0	0	0	509	504	
3	0	0	0	0	510	504	
4	0	0	0	0	509	504	
5	0	0	0	0	509	505	
6	0	0	0	0	507	506	
7	0	0	0	0	510	507	
8	0	0	0	0	512	508	
9	0	0	0	0	511	508	
10	0	0	0	0	509	507	
11	0	0	0	0	507	507	
12	0	0	0	0	508	506	
13	0	0	0	0	509	505	
14	0	0	0	0	508	505	
15	0	0	0	0	506	504	
0	0	0	0	0	508	503	
1	0	0	0	0	508	501	
2	0	0	0	0	507	501	
3	0	0	0	0	508	501	
4	0	0	0	0	509	501	
5	0	0	0	0	509	501	
6	0	0	0	0	512	503	
7	0	0	0	0	516	503	
8	0	0	0	0	517	504	
9	0	0	0	0	516	504	
10	0	0	0	0	512	504	
11	0	0	0	0	511	504	
12	0	0	0	0	510	504	
13	0	0	0	0	509	504	
14	0	0	0	0	508	503	
15	0	0	0	0	508	503	
0	0	0	0	0	507	502	
1	0	0	0	0	508	501	
2	0	0	0	0	509	501	
3	0	0	0	0	512	502	
4	0	0	0	0	511	500	
5	0	0	0	0	511	500	
6	0	0	0	0	515	499	
7	0	0	0	0	517	499	
8	0	0	0	0	517	500	
9	0	0	0	0	516	501	
10	0	0	0	0	515	500	
11	0	0	0	0	515	499	
12	0	0	0	0	515	499	
13	0	0	0	0	512	498	
14	0	0	0	0	511	497	
15	0	0	0	0	508	498	
0	0	0	0	0	507	500	
1	0	0	0	0	508	503	
2	0	0	0	0	509	506	
3	0	0	0	0	511	508	
4	0	0	0	0	511	508	
5	0	0	0	0	508	510	
6	0	0	0	0	506	510	
7	0	0	0	0	505	512	
8	0	0	0	0	501	513	
9	0	0	0	0	500	516	
10	0	0	0	0	498	520	
11	0	0	0	0	496	523	
12	0	0	0	0	496	527	
13	0	0	0	0	498	530	
14	0	0	0	0	499	532	
15	0	0	0	0	498	534	
0	0	0	0	0	496	536	
1	0	0	0	0	492	538	
2	0	0	0	0	494	540	
3	0	0	0	0	494	542	
4	0	0	0	0	489	543	
5	0	0	0	0	486	545	
6	0	0	0	0	489	546	
7	0	0	0	0	493	547	
8	0	0	0	0	494	548	
9	0	0	0	0	498	549	
10	0	0	0	0	503	548	
11	0	0	0	0	510	546	
12	0	0	0	0	515	542	
13	0	0	0	0	519	537	
14	0	0	0	0	523	531	
15	0	0	0	0	523	525	
0	0	0	0	0	524	519	
1	0	0	0	0	526	512	
2	0	0	0	0	525	504	
3	0	0	0	0	524	495	
4	0	0	0	0	523	487	
5	0	0	0	0	525	481	
6	0	0	0	0	528	474	
7	0	0	0	0	532	469	
8	0	0	0	0	529	465	
9	0	0	0	0	527	463	
10	0	0	0	0	521	464	
11	0	0	0	0	518	465	
12	0	0	0	0	516	467	
13	0	0	0	0	514	469	
14	0	0	0	0	506	472	
15	0	0	0	0	505	475	
0	0	0	0	0	506	478	
1	0	0	0	0	502	480	
2	0	0	0	0	507	483	
3	0	0	0	0	508	487	
4	0	0	0	0	512	489	
5	0	0	0	0	512	490	
6	0	0	0	0	515	491	
7	0	0	0	0	518	493	
8	0	0	0	0	515	496	
9	0	0	0	0	515	498	
10	0	0	0	0	514	500	
11	0	0	0	0	515	502	
12	0	0	0	0	513	504	
13	0	0	0	0	512	505	
14	0	0	0	0	512	506	
15	0	0	0	0	511	507	
0	0	0	0	0	511	507	
1	0	0	0	0	510	507	
2	0	0	0	0	511	507	
3	0	0	0	0	511	509	
4	0	0	0	0	510	509	
5	0	0	0	0	512	509	
6	0	0	0	0	511	509	
7	0	0	0	0	511	508	
8	0	0	0	0	509	508	
9	0	0	0	0	512	509	
10	0	0	0	0	510	510	
11	0	0	0	0	508	511	
12	0	0	0	0	508	512	
13	0	0	0	0	504	513	
14	0	0	0	0	508	513	
15	0	0	0	0	504	513	
0	0	0	0	0	505	512	
1	0	0	0	0	504	511	
2	0	0	0	0	503	510	
3	0	0	0	0	503	509	
4	0	0	0	0	502	508	
5	0	0	0	0	504	509	
6	0	0	0	0	505	508	
7	0	0	0	0	501	508	
8	0	0	0	0	504	508	
9	0	0	0	0	505	509	
10	0	0	0	0	507	510	
11	0	0	0	0	512	510	
12	0	0	0	0	510	512	
13	0	0	0	0	511	513	
14	0	0	0	0	511	513	
15	0	0	0	0	511	515	
0	0	0	0	0	510	515	
1	0	0	0	0	511	515	
2	0	0	0	0	511	515	
3	0	0	0	0	509	514	
4	0	0	0	0	508	514	
5	0	0	0	0	505	513	
6	0	0	0	0	507	512	
7	0	0	0	0	505	510	
8	0	0	0	0	507	510	
9	0	0	0	0	507	510	
10	0	0	0	0	509	511	
11	0	0	0	0	508	512	
12	0	0	0	0	511	512	
13	0	0	0	0	511	513	
14	0	0	0	0	512	515	
15	0	0	0	0	511	515	
0	0	0	0	0	510	516	
1	0	0	0	0	508	516	
2	0	0	0	0	510	516	
3	0	0	0	0	510	517	
4	0	0	0	0	510	516	
5	0	0	0	0	508	516	
6	0	0	0	0	508	515	
7	0	0	0	0	505	514	
8	0	0	0	0	506	515	
9	0	0	0	0	507	515	
10	0	0	0	0	509	515	
11	0	0	0	0	511	516	
12	0	0	0	0	509	515	
13	0	0	0	0	511	516	
14	0	0	0	0	512	518	
15	0	0	0	0	513	519	
0	0	0	0	0	512	520	
1	0	0	0	0	509	520	
2	0	0	0	0	510	521	
3	0	0	0	0	510	520	
4	0	0	0	0	505	520	
5	0	0	0	0	504	519	
6	0	0	0	0	505	518	
7	0	0	0	0	507	518	
8	0	0	0	0	509	517	
9	0	0	0	0	509	517	
10	0	0	0	0	510	516	
11	0	0	0	0	512	518	
12	0	0	0	0	511	519	
13	0	0	0	0	514	519	
14	0	0	0	0	513	519	
15	0	0	0	0	513	519	
0	0	0	0	0	514	520	
1	0	0	0	0	512	521	
2	0	0	0	0	512	521	
3	0	0	0	0	510	521	
4	0	0	0	0	508	521	
5	0	0	0	0	511	520	
6	0	0	0	0	507	521	
7	0	0	0	0	508	519	
8	0	0	0	0	505	519	
9	0	0	0	0	507	519	
10	0	0	0	0	505	520	
11	0	0	0	0	508	521	
12	0	0	0	0	509	520	
13	0	0	0	0	510	521	
14	0	0	0	0	511	520	
15	0	0	0	0	515	521	
0	0	0	0	0	511	522	
1	0	0	0	0	512	522	
2	0	0	0	0	513	522	
3	0	0	0	0	510	521	
4	0	0	0	0	508	521	
5	0	0	0	0	507	521	
6	0	0	0	0	507	520	
7	0	0	0	0	504	520	
8	0	0	0	0	505	520	
9	0	0	0	0	508	520	
10	0	0	0	0	511	520	
11	0	0	0	0	509	520	
12	0	0	0	0	509	520	
13	0	0	0	0	510	521	
14	0	0	0	0	513	521	
15	0	0	0	0	514	521	
0	0	0	0	0	512	522	
1	0	0	0	0	510	524	
2	0	0	0	0	512	524	
3	0	0	0	0	510	525	
4	0	0	0	0	512	526	
5	0	0	0	0	509	526	
6	0	0	0	0	507	526	
7	0	0	0	0	504	524	
8	0	0	0	0	508	524	
9	0	0	0	0	507	524	
10	0	0	0	0	508	524	
11	0	0	0	0	512	523	
12	0	0	0	0	509	523	
13	0	0	0	0	509	523	
14	0	0	0	0	509	524	
15	0	0	0	0	512	525	
0	0	0	0	0	512	526	
1	0	0	0	0	511	527	
2	0	0	0	0	510	527	
3	0	0	0	0	511	529	
4	0	0	0	0	509	529	
5	0	0	0	0	510	529	
6	0	0	0	0	508	528	
7	0	0	0	0	509	527	
8	0	0	0	0	508	527	
9	0	0	0	0	508	526	
10	0	0	0	0	505	525	
11	0	0	0	0	508	526	
12	0	0	0	0	508	525	
13	0	0	0	0	509	526	
14	0	0	0	0	508	527	
15	0	0	0	0	512	529	
0	0	0	0	0	512	530	
1	0	0	0	0	511	531	
2	0	0	0	0	512	532	
3	0	0	0	0	512	533	
4	0	0	0	0	508	534	
5	0	0	0	0	508	536	
6	0	0	0	0	508	536	
7	0	0	0	0	508	537	
8	0	0	0	0	509	537	
9	0	0	0	0	508	537	
10	0	0	0	0	506	537	
11	0	0	0	0	505	537	
12	0	0	0	0	508	537	
13	0	0	0	0	508	537	
14	0	0	0	0	510	538	
15	0	0	0	0	514	539	
0	0	0	0	0	513	539	
1	0	0	0	0	512	540	
2	0	0	0	0	509	540	
3	0	0	0	0	513	542	
4	0	0	0	0	516	543	
5	0	0	0	0	512	543	
6	0	0	0	0	510	543	
7	0	0	0	0	508	542	
8	0	0	0	0	509	541	
9	0	0	0	0	508	541	
10	0	0	0	0	503	540	
11	0	0	0	0	505	538	
12	0	0	0	0	503	537	
13	0	0	0	0	507	536	
14	0	0	0	0	506	536	
15	0	0	0	0	508	536	
0	0	0	0	0	508	537	
1	0	0	0	0	511	538	
2	0	0	0	0	511	539	
3	0	0	0	0	512	540	
4	0	0	0	0	513	540	
5	0	0	0	0	511	540	
6	0	0	0	0	511	541	
7	0	0	0	0	510	541	
8	0	0	0	0	511	541	
9	0	0	0	0	511	540	
10	0	0	0	0	510	540	
11	0	0	0	0	509	537	
12	0	0	0	0	507	535	
13	0	0	0	0	506	534	
14	0	0	0	0	508	532	
15	0	0	0	0	507	532	
0	0	0	0	0	508	531	
1	0	0	0	0	512	531	
2	0	0	0	0	512	530	
3	0	0	0	0	512	529	
4	0	0	0	0	511	529	
5	0	0	0	0	511	528	
6	0	0	0	0	511	527	
7	0	0	0	0	510	526	
8	0	0	0	0	508	524	
9	0	0	0	0	508	523	
10	0	0	0	0	508	521	
11	0	0	0	0	506	519	
12	0	0	0	0	508	515	
13	0	0	0	0	505	512	
14	0	0	0	0	509	509	
15	0	0	0	0	507	507	
0	0	0	0	0	509	507	
1	0	0	0	0	510	506	
2	0	0	0	0	510	504	
3	0	0	0	0	508	504	
4	0	0	0	0	512	504	
5	0	0	0	0	516	503	
6	0	0	0	0	516	503	
7	0	0	0	0	511	501	
8	0	0	0	0	511	501	
9	0	0	0	0	508	500	
10	0	0	0	0	508	498	
11	0	0	0	0	506	496	
12	0	0	0	0	506	494	
13	0	0	0	0	508	492	
14	0	0	0	0	507	489	
15	0	0	0	0	507	488	
0	0	0	0	0	504	487	
1	0	0	0	0	507	485	
2	0	0	0	0	511	486	
3	0	0	0	0	511	486	
4	0	0	0	0	511	486	
5	0	0	0	0	512	486	
6	0	0	0	0	513	487	
7	0	0	0	0	511	487	
8	0	0	0	0	509	486	
9	0	0	0	0	512	484	
10	0	0	0	0	511	483	
11	0	0	0	0	507	481	
12	0	0	0	0	509	481	
13	0	0	0	0	511	480	
14	0	0	0	0	508	479	
15	0	0	0	0	506	479	
0	0	0	0	0	507	478	
1	0	0	0	0	512	478	
2	0	0	0	0	512	478	
3	0	0	0	0	513	478	
4	0	0	0	0	511	478	
5	0	0	0	0	512	480	
6	0	0	0	0	514	481	
7	0	0	0	0	510	482	
8	0	0	0	0	512	482	
9	0	0	0	0	513	482	
10	0	0	0	0	512	482	
11	0	0	0	0	508	482	
12	0	0	0	0	508	480	
13	0	0	0	0	504	480	
14	0	0	0	0	505	479	
15	0	0	0	0	508	477	
0	0	0	0	0	510	476	
1	0	0	0	0	509	475	
2	0	0	0	0	508	475	
3	0	0	0	0	510	475	
4	0	0	0	0	512	477	
5	0	0	0	0	510	478	
6	0	0	0	0	511	479	
7	0	0	0	0	512	480	
8	0	0	0	0	511	481	
9	0	0	0	0	510	481	
10	0	0	0	0	512	482	
11	0	0	0	0	508	482	
12	0	0	0	0	507	482	
13	0	0	0	0	506	481	
14	0	0	0	0	505	481	
15	0	0	0	0	511	480	
0	0	0	0	0	509	480	
1	0	0	0	0	508	480	
2	0	0	0	0	507	480	
3	0	0	0	0	510	479	
4	0	0	0	0	513	479	
5	0	0	0	0	511	481	
6	0	0	0	0	511	481	
7	0	0	0	0	510	483	
8	0	0	0	0	515	486	
9	0	0	0	0	513	487	
10	0	0	0	0	513	486	
11	0	0	0	0	511	485	
12	0	0	0	0	509	485	
13	0	0	0	0	508	485	
14	0	0	0	0	508	484	
15	0	0	0	0	508	483	
0	0	0	0	0	507	483	
1	0	0	0	0	508	483	
2	0	0	0	0	509	483	
3	0	0	0	0	513	484	
4	0	0	0	0	508	485	
5	0	0	0	0	512	486	
6	0	0	0	0	514	487	
7	0	0	0	0	513	488	
8	0	0	0	0	511	488	
9	0	0	0	0	511	488	
10	0	0	0	0	510	490	
11	0	0	0	0	507	491	
12	0	0	0	0	510	492	
13	0	0	0	0	511	492	
14	0	0	0	0	509	491	
15	0	0	0	0	507	490	
0	0	0	0	0	507	489	
1	0	0	0	0	509	487	
2	0	0	0	0	509	487	
3	0	0	0	0	508	487	
4	0	0	0	0	510	487	
5	0	0	0	0	512	489	
6	0	0	0	0	514	491	
7	0	0	0	0	510	490	
8	0	0	0	0	511	491	
9	0	0	0	0	511	492	
10	0	0	0	0	511	493	
11	0	0	0	0	512	493	
12	0	0	0	0	513	494	
13	0	0	0	0	513	494	
14	0	0	0	0	512	494	
15	0	0	0	0	507	494	
0	0	0	0	0	508	494	
1	0	0	0	0	509	494	
2	0	0	0	0	508	494	
3	0	0	0	0	507	493	
4	0	0	0	0	508	493	
5	0	0	0	0	508	494	
6	0	0	0	0	510	495	
7	0	0	0	0	508	496	
8	0	0	0	0	510	497	
9	0	0	0	0	512	498	
10	0	0	0	0	512	499	
11	0	0	0	0	508	500	
12	0	0	0	0	510	501	
13	0	0	0	0	508	501	
14	0	0	0	0	508	500	
15	0	0	0	0	512	499	
0	0	0	0	0	508	499	
1	0	0	0	0	509	497	
2	0	0	0	0	507	495	
3	0	0	0	0	507	494	
4	0	0	0	0	510	494	
5	0	0	0	0	510	496	
6	0	0	0	0	513	497	
7	0	0	0	0	512	498	
8	0	0	0	0	512	499	
9	0	0	0	0	510	499	
10	0	0	0	0	512	500	
11	0	0	0	0	511	500	
12	0	0	0	0	513	500	
13	0	0	0	0	511	501	
14	0	0	0	0	509	502	
15	0	0	0	0	508	500	
0	0	0	0	0	508	500	
1	0	0	0	0	510	500	
2	0	0	0	0	506	499	
3	0	0	0	0	506	498	
4	0	0	0	0	509	499	
5	0	0	0	0	508	499	
6	0	0	0	0	509	499	
7	0	0	0	0	510	499	
8	0	0	0	0	508	500	
9	0	0	0	0	512	501	
10	0	0	0	0	511	503	
11	0	0	0	0	511	504	
12	0	0	0	0	513	504	
13	0	0	0	0	510	504	
14	0	0	0	0	510	504	
15	0	0	0	0	509	503	
0	0	0	0	0	507	502	
1	0	0	0	0	508	502	
2	0	0	0	0	505	501	
3	0	0	0	0	503	500	
4	0	0	0	0	508	499	
5	0	0	0	0	508	499	
6	0	0	0	0	509	499	
7	0	0	0	0	511	500	
8	0	0	0	0	511	500	
9	0	0	0	0	512	500	
10	0	0	0	0	511	502	
11	0	0	0	0	514	503	
12	0	0	0	0	515	504	
13	0	0	0	0	510	503	
14	0	0	0	0	508	502	
15	0	0	0	0	508	501	
0	0	0	0	0	511	500	
1	0	0	0	0	508	500	
2	0	0	0	0	505	500	
3	0	0	0	0	505	500	
4	0	0	0	0	507	500	
5	0	0	0	0	504	501	
6	0	0	0	0	507	501	
7	0	0	0	0	509	502	
8	0	0	0	0	512	503	
9	0	0	0	0	511	503	
10	0	0	0	0	513	504	
11	0	0	0	0	510	503	
12	0	0	0	0	512	504	
13	0	0	0	0	515	504	
14	0	0	0	0	510	505	
15	0	0	0	0	509	505	
0	0	0	0	0	508	504	
1	0	0	0	0	507	503	
2	0	0	0	0	509	502	
3	0	0	0	0	506	502	
4	0	0	0	0	507	501	
5	0	0	0	0	506	502	
6	0	0	0	0	508	501	
7	0	0	0	0	509	502	
8	0	0	0	0	507	502	
9	0	0	0	0	510	501	
10	0	0	0	0	511	502	
11	0	0	0	0	514	504	
12	0	0	0	0	511	506	
13	0	0	0	0	512	507	
14	0	0	0	0	513	507	
15	0	0	0	0	510	507	
0	0	0	0	0	511	507	
1	0	0	0	0	509	507	
2	0	0	0	0	508	506	
3	0	0	0	0	509	506	
4	0	0	0	0	504	505	
5	0	0	0	0	508	505	
6	0	0	0	0	508	504	
7	0	0	0	0	508	504	
8	0	0	0	0	510	503	
9	0	0	0	0	508	504	
10	0	0	0	0	510	504	
11	0	0	0	0	512	505	
12	0	0	0	0	510	507	
13	0	0	0	0	511	508	
14	0	0	0	0	514	509	
15	0	0	0	0	516	510	
0	0	0	0	0	510	510	
1	0	0	0	0	509	510	
2	0	0	0	0	511	509	
3	0	0	0	0	506	510	
4	0	0	0	0	506	509	
5	0	0	0	0	508	508	
6	0	0	0	0	510	507	
7	0	0	0	0	505	506	
8	0	0	0	0	508	505	
9	0	0	0	0	506	506	
10	0	0	0	0	508	507	
11	0	0	0	0	507	507	
12	0	0	0	0	512	507	
13	0	0	0	0	515	507	
14	0	0	0	0	515	508	
15	0	0	0	0	515	509	
0	0	0	0	0	512	508	
1	0	0	0	0	509	508	
2	0	0	0	0	509	508	
3	0	0	0	0	507	510	
4	0	0	0	0	503	509	
5	0	0	0	0	507	508	
6	0	0	0	0	507	508	
7	0	0	0	0	508	508	
8	0	0	0	0	511	507	
9	0	0	0	0	509	507	
10	0	0	0	0	515	505	
11	0	0	0	0	515	505	
12	0	0	0	0	513	506	
13	0	0	0	0	510	507	
14	0	0	0	0	510	508	
15	0	0	0	0	512	508	
0	0	0	0	0	512	509	
1	0	0	0	0	513	510	
2	0	0	0	0	511	510	
3	0	0	0	0	510	511	
4	0	0	0	0	508	510	
5	0	0	0	0	508	509	
6	0	0	0	0	507	508	
7	0	0	0	0	506	508	
8	0	0	0	0	506	507	
9	0	0	0	0	508	505	
10	0	0	0	0	507	505	
11	0	0	0	0	511	506	
12	0	0	0	0	509	507	
13	0	0	0	0	513	508	
14	0	0	0	0	512	508	
15	0	0	0	0	512	510	
0	0	0	0	0	511	511	
1	0	0	0	0	511	513	
2	0	0	0	0	511	512	
3	0	0	0	0	512	512	
4	0	0	0	0	509	511	
5	0	0	0	0	507	511	
6	0	0	0	0	508	510	
7	0	0	0	0	509	509	
8	0	0	0	0	507	509	
9	0	0	0	0	510	509	
10	0	0	0	0	510	510	
11	0	0	0	0	508	511	
12	0	0	0	0	508	511	
13	0	0	0	0	512	512	
14	0	0	0	0	512	512	
15	0	0	0	0	514	511	
0	0	0	0	0	515	512	
1	0	0	0	0	514	513	
2	0	0	0	0	515	512	
3	0	0	0	0	512	513	
4	0	0	0	0	507	512	
5	0	0	0	0	510	511	
6	0	0	0	0	506	511	
7	0	0	0	0	507	510	
8	0	0	0	0	503	510	
9	0	0	0	0	506	510	
10	0	0	0	0	506	510	
11	0	0	0	0	507	510	
12	0	0	0	0	510	510	
13	0	0	0	0	512	510	
14	0	0	0	0	508	510	
15	0	0	0	0	508	510	
0	0	0	0	0	510	510	
1	0	0	0	0	509	510	
2	0	0	0	0	512	510	
3	0	0	0	0	509	510	
4	0	0	0	0	508	511	
5	0	0	0	0	507	511	
6	0	0	0	0	507	511	
7	0	0	0	0	505	510	
8	0	0	0	0	508	510	
9	0	0	0	0	508	509	
10	0	0	0	0	508	509	
11	0	0	0	0	511	510	
12	0	0	0	0	508	510	
13	0	0	0	0	510	510	
14	0	0	0	0	511	511	
15	0	0	0	0	513	512	
0	0	0	0	0	514	513	
1	0	0	0	0	512	515	
2	0	0	0	0	511	515	
3	0	0	0	0	511	517	
4	0	0	0	0	510	517	
5	0	0	0	0	509	517	
6	0	0	0	0	508	516	
7	0	0	0	0	508	515	
8	0	0	0	0	507	515	
9	0	0	0	0	505	515	
10	0	0	0	0	506	514	
11	0	0	0	0	502	513	
12	0	0	0	0	507	514	
13	0	0	0	0	505	515	
14	0	0	0	0	509	515	
15	0	0	0	0	511	515	
0	0	0	0	0	511	516	
1	0	0	0	0	513	517	
2	0	0	0	0	515	517	
3	0	0	0	0	512	516	
4	0	0	0	0	512	517	
5	0	0	0	0	509	516	
6	0	0	0	0	511	514	
7	0	0	0	0	511	513	
8	0	0	0	0	510	512	
9	0	0	0	0	506	512	
10	0	0	0	0	506	511	
11	0	0	0	0	506	510	
12	0	0	0	0	506	510	
13	0	0	0	0	501	510	
14	0	0	0	0	507	509	
15	0	0	0	0	510	509	
0	0	0	0	0	513	508	
1	0	0	0	0	513	508	
2	0	0	0	0	511	508	
3	0	0	0	0	512	508	
4	0	0	0	0	513	508	
5	0	0	0	0	513	508	
6	0	0	0	0	508	508	
7	0	0	0	0	508	507	
8	0	0	0	0	508	506	
9	0	0	0	0	511	505	
10	0	0	0	0	508	503	
11	0	0	0	0	509	502	
12	0	0	0	0	508	499	
13	0	0	0	0	510	499	
14	0	0	0	0	509	499	
15	0	0	0	0	509	499	
0	0	0	0	0	510	499	
1	0	0	0	0	510	499	
2	0	0	0	0	513	499	
3	0	0	0	0	512	500	
4	0	0	0	0	511	500	
5	0	0	0	0	512	500	
6	0	0	0	0	513	499	
7	0	0	0	0	510	499	
8	0	0	0	0	506	498	
9	0	0	0	0	509	497	
10	0	0	0	0	509	496	
11	0	0	0	0	511	494	
12	0	0	0	0	509	494	
13	0	0	0	0	508	493	
14	0	0	0	0	507	493	
15	0	0	0	0	504	494	
0	0	0	0	0	506	495	
1	0	0	0	0	512	495	
2	0	0	0	0	512	496	
3	0	0	0	0	513	498	
4	0	0	0	0	513	499	
5	0	0	0	0	513	500	
6	0	0	0	0	512	500	
7	0	0	0	0	509	500	
8	0	0	0	0	509	499	
9	0	0	0	0	508	499	
10	0	0	0	0	508	499	
11	0	0	0	0	505	499	
12	0	0	0	0	508	498	
13	0	0	0	0	508	498	
14	0	0	0	0	510	498	
15	0	0	0	0	508	499	
0	0	0	0	0	512	499	
1	0	0	0	0	510	498	
2	0	0	0	0	510	499	
3	0	0	0	0	513	499	
4	0	0	0	0	513	500	
5	0	0	0	0	511	500	
6	0	0	0	0	512	500	
7	0	0	0	0	512	500	
8	0	0	0	0	512	501	
9	0	0	0	0	510	501	
10	0	0	0	0	510	500	
11	0	0	0	0	508	500	
12	0	0	0	0	512	500	
13	0	0	0	0	510	499	
14	0	0	0	0	510	499	
15	0	0	0	0	510	497	
0	0	0	0	0	513	496	
1	0	0	0	0	515	495	
2	0	0	0	0	518	495	
3	0	0	0	0	516	495	
4	0	0	0	0	515	495	
5	0	0	0	0	513	495	
6	0	0	0	0	512	496	
7	0	0	0	0	511	497	
8	0	0	0	0	511	500	
9	0	0	0	0	512	503	
10	0	0	0	0	511	506	
11	0	0	0	0	508	507	
12	0	0	0	0	506	508	
13	0	0	0	0	504	509	
14	0	0	0	0	504	509	
15	0	0	0	0	500	510	
0	0	0	0	0	502	511	
1	0	0	0	0	498	513	
2	0	0	0	0	500	516	
3	0	0	0	0	501	519	
4	0	0	0	0	501	523	
5	0	0	0	0	503	525	
6	0	0	0	0	507	527	
7	0	0	0	0	504	530	
8	0	0	0	0	502	534	
9	0	0	0	0	499	537	
10	0	0	0	0	500	536	
11	0	0	0	0	497	536	
12	0	0	0	0	489	536	
13	0	0	0	0	489	534	
14	0	0	0	0	491	531	
15	0	0	0	0	492	528	
0	0	0	0	0	497	527	
1	0	0	0	0	504	525	
2	0	0	0	0	506	523	
3	0	0	0	0	508	520	
4	0	0	0	0	514	517	
5	0	0	0	0	517	513	
6	0	0	0	0	521	509	
7	0	0	0	0	522	504	
8	0	0	0	0	524	498	
9	0	0	0	0	524	492	
10	0	0	0	0	522	484	
11	0	0	0	0	524	477	
12	0	0	0	0	526	472	
13	0	0	0	0	522	465	
14	0	0	0	0	522	462	
15	0	0	0	0	525	458	
0	0	0	0	0	522	455	
1	0	0	0	0	519	455	
2	0	0	0	0	518	454	
3	0	0	0	0	513	455	
4	0	0	0	0	511	456	
5	0	0	0	0	510	459	
6	0	0	0	0	506	463	
7	0	0	0	0	503	468	
8	0	0	0	0	504	473	
9	0	0	0	0	513	477	
10	0	0	0	0	511	481	
11	0	0	0	0	510	485	
12	0	0	0	0	512	487	
13	0	0	0	0	509	489	
14	0	0	0	0	515	491	
15	0	0	0	0	510	492	
0	0	0	0	0	509	494	
1	0	0	0	0	510	496	
2	0	0	0	0	510	498	
3	0	0	0	0	511	500	
4	0	0	0	0	512	499	
5	0	0	0	0	512	501	
6	0	0	0	0	514	502	
7	0	0	0	0	512	503	
8	0	0	0	0	513	505	
9	0	0	0	0	512	507	
10	0	0	0	0	513	509	
11	0	0	0	0	514	511	
12	0	0	0	0	514	512	
13	0	0	0	0	511	514	
14	0	0	0	0	511	515	
15	0	0	0	0	508	515	
0	0	0	0	0	511	515	
1	0	0	0	0	508	515	
2	0	0	0	0	509	514	
3	0	0	0	0	509	513	
4	0	0	0	0	506	512	
5	0	0	0	0	509	511	
6	0	0	0	0	509	511	
7	0	0	0	0	508	512	
8	0	0	0	0	507	512	
9	0	0	0	0	509	513	
10	0	0	0	0	513	514	
11	0	0	0	0	513	514	
12	0	0	0	0	508	514	
13	0	0	0	0	504	513	
14	0	0	0	0	505	512	
15	0	0	0	0	508	511	
0	0	0	0	0	504	510	
1	0	0	0	0	504	509	
2	0	0	0	0	504	508	
3	0	0	0	0	503	508	
4	0	0	0	0	505	508	
5	0	0	0	0	506	508	
6	0	0	0	0	511	509	
7	0	0	0	0	511	510	
8	0	0	0	0	512	511	
9	0	0	0	0	511	511	
10	0	0	0	0	511	511	
11	0	0	0	0	511	511	
12	0	0	0	0	509	511	
13	0	0	0	0	508	511	
14	0	0	0	0	510	510	
15	0	0	0	0	509	510	
0	0	0	0	0	506	510	
1	0	0	0	0	506	509	
2	0	0	0	0	507	508	
3	0	0	0	0	510	507	
4	0	0	0	0	511	507	
5	0	0	0	0	510	508	
6	0	0	0	0	510	508	
7	0	0	0	0	511	509	
8	0	0	0	0	511	510	
9	0	0	0	0	511	510	
10	0	0	0	0	511	512	
11	0	0	0	0	515	512	
12	0	0	0	0	511	513	
13	0	0	0	0	510	514	
14	0	0	0	0	508	515	
15	0	0	0	0	509	515	
0	0	0	0	0	507	514	
1	0	0	0	0	508	514	
2	0	0	0	0	510	512	
3	0	0	0	0	506	511	
4	0	0	0	0	508	510	
5	0	0	0	0	508	510	
6	0	0	0	0	509	509	
7	0	0	0	0	510	510	
8	0	0	0	0	508	509	
9	0	0	0	0	511	510	
10	0	0	0	0	511	511	
11	0	0	0	0	511	512	
12	0	0	0	0	512	513	
13	0	0	0	0	512	513	
14	0	0	0	0	510	512	
15	0	0	0	0	512	512	
0	0	0	0	0	509	511	
1	0	0	0	0	508	511	
2	0	0	0	0	505	511	
3	0	0	0	0	506	511	
4	0	0	0	0	504	511	
5	0	0	0	0	508	511	
6	0	0	0	0	511	512	
7	0	0	0	0	510	513	
8	0	0	0	0	509	515	
9	0	0	0	0	511	515	
10	0	0	0	0	512	515	
11	0	0	0	0	515	516	
12	0	0	0	0	512	518	
13	0	0	0	0	514	519	
14	0	0	0	0	512	519	
15	0	0	0	0	508	519	
0	0	0	0	0	507	519	
1	0	0	0	0	505	519	
2	0	0	0	0	508	519	
3	0	0	0	0	507	518	
4	0	0	0	0	506	517	
5	0	0	0	0	508	518	
6	0	0	0	0	509	518	
7	0	0	0	0	507	519	
8	0	0	0	0	510	519	
9	0	0	0	0	513	521	
10	0	0	0	0	514	521	
11	0	0	0	0	511	523	
12	0	0	0	0	513	524	
13	0	0	0	0	512	526	
14	0	0	0	0	515	525	
15	0	0	0	0	511	524	
0	0	0	0	0	507	523	
1	0	0	0	0	507	523	
2	0	0	0	0	505	523	
3	0	0	0	0	507	522	
4	0	0	0	0	507	521	
5	0	0	0	0	508	521	
6	0	0	0	0	507	520	
7	0	0	0	0	508	520	
8	0	0	0	0	509	521	
9	0	0	0	0	514	521	
10	0	0	0	0	513	522	
11	0	0	0	0	512	522	
12	0	0	0	0	514	522	
13	0	0	0	0	512	524	
14	0	0	0	0	510	525	
15	0	0	0	0	509	526	
0	0	0	0	0	509	526	
1	0	0	0	0	509	524	
2	0	0	0	0	508	524	
3	0	0	0	0	508	523	
4	0	0	0	0	507	522	
5	0	0	0	0	507	523	
6	0	0	0	0	506	521	
7	0	0	0	0	506	522	
8	0	0	0	0	510	522	
9	0	0	0	0	510	523	
10	0	0	0	0	510	525	
11	0	0	0	0	512	527	
12	0	0	0	0	512	528	
13	0	0	0	0	511	530	
14	0	0	0	0	514	531	
15	0	0	0	0	514	533	
0	0	0	0	0	512	534	
1	0	0	0	0	510	535	
2	0	0	0	0	508	535	
3	0	0	0	0	509	535	
4	0	0	0	0	508	535	
5	0	0	0	0	507	534	
6	0	0	0	0	508	535	
7	0	0	0	0	507	534	
8	0	0	0	0	507	535	
9	0	0	0	0	507	536	
10	0	0	0	0	507	535	
11	0	0	0	0	508	536	
12	0	0	0	0	512	537	
13	0	0	0	0	513	538	
14	0	0	0	0	512	539	
15	0	0	0	0	511	539	
0	0	0	0	0	508	540	
1	0	0	0	0	510	541	
2	0	0	0	0	510	540	
3	0	0	0	0	509	540	
4	0	0	0	0	504	540	
5	0	0	0	0	504	539	
6	0	0	0	0	506	538	
7	0	0	0	0	505	537	
8	0	0	0	0	509	537	
9	0	0	0	0	506	538	
10	0	0	0	0	509	537	
11	0	0	0	0	511	538	
12	0	0	0	0	511	538	
13	0	0	0	0	512	539	
14	0	0	0	0	513	539	
15	0	0	0	0	515	539	
0	0	0	0	0	515	540	
1	0	0	0	0	510	541	
2	0	0	0	0	511	541	
3	0	0	0	0	508	541	
4	0	0	0	0	505	541	
5	0	0	0	0	509	540	
6	0	0	0	0	508	538	
7	0	0	0	0	508	537	
8	0	0	0	0	507	536	
9	0	0	0	0	508	536	
10	0	0	0	0	508	535	
11	0	0	0	0	510	535	
12	0	0	0	0	509	535	
13	0	0	0	0	508	535	
14	0	0	0	0	512	535	
15	0	0	0	0	513	535	
0	0	0	0	0	515	535	
1	0	0	0	0	513	536	
2	0	0	0	0	510	536	
3	0	0	0	0	511	536	
4	0	0	0	0	508	535	
5	0	0	0	0	507	533	
6	0	0	0	0	508	532	
7	0	0	0	0	508	529	
8	0	0	0	0	509	526	
9	0	0	0	0	509	524	
10	0	0	0	0	508	522	
11	0	0	0	0	507	521	
12	0	0	0	0	507	520	
13	0	0	0	0	508	519	
14	0	0	0	0	508	518	
15	0	0	0	0	510	517	
0	0	0	0	0	512	516	
1	0	0	0	0	514	515	
2	0	0	0	0	514	513	
3	0	0	0	0	513	511	
4	0	0	0	0	509	510	
5	0	0	0	0	509	508	
6	0	0	0	0	509	504	
7	0	0	0	0	509	504	
8	0	0	0	0	508	501	
9	0	0	0	0	507	498	
10	0	0	0	0	508	497	
11	0	0	0	0	507	495	
12	0	0	0	0	507	494	
13	0	0	0	0	509	494	
14	0	0	0	0	510	492	
15	0	0	0	0	512	492	
0	0	0	0	0	511	490	
1	0	0	0	0	511	489	
2	0	0	0	0	510	490	
3	0	0	0	0	511	490	
4	0	0	0	0	510	489	
5	0	0	0	0	508	488	
6	0	0	0	0	507	485	
7	0	0	0	0	505	483	
8	0	0	0	0	505	482	
9	0	0	0	0	507	481	
10	0	0	0	0	506	479	
11	0	0	0	0	505	478	
12	0	0	0	0	506	477	
13	0	0	0	0	505	477	
14	0	0	0	0	509	477	
15	0	0	0	0	512	477	
0	0	0	0	0	512	477	
1	0	0	0	0	514	478	
2	0	0	0	0	513	478	
3	0	0	0	0	513	477	
4	0	0	0	0	512	477	
5	0	0	0	0	513	476	
6	0	0	0	0	513	476	
7	0	0	0	0	510	475	
8	0	0	0	0	507	475	
9	0	0	0	0	508	474	
10	0	0	0	0	508	473	
11	0	0	0	0	508	472	
12	0	0	0	0	508	472	
13	0	0	0	0	507	473	
14	0	0	0	0	511	474	
15	0	0	0	0	513	474	
0	0	0	0	0	512	476	
1	0	0	0	0	511	476	
2	0	0	0	0	513	477	
3	0	0	0	0	514	477	
4	0	0	0	0	512	478	
5	0	0	0	0	510	479	
6	0	0	0	0	511	478	
7	0	0	0	0	508	479	
8	0	0	0	0	508	479	
9	0	0	0	0	508	478	
10	0	0	0	0	507	477	
11	0	0	0	0	504	475	
12	0	0	0	0	507	475	
13	0	0	0	0	510	476	
14	0	0	0	0	507	476	
15	0	0	0	0	508	477	
0	0	0	0	0	510	478	
1	0	0	0	0	510	479	
2	0	0	0	0	509	480	
3	0	0	0	0	509	482	
4	0	0	0	0	511	484	
5	0	0	0	0	511	484	
6	0	0	0	0	510	484	
7	0	0	0	0	508	484	
8	0	0	0	0	509	483	
9	0	0	0	0	509	482	
10	0	0	0	0	507	480	
11	0	0	0	0	508	479	
12	0	0	0	0	510	478	
13	0	0	0	0	509	477	
14	0	0	0	0	510	476	
15	0	0	0	0	508	476	
0	0	0	0	0	508	478	
1	0	0	0	0	510	479	
2	0	0	0	0	509	481	
3	0	0	0	0	511	483	
4	0	0	0	0	512	485	
5	0	0	0	0	514	486	
6	0	0	0	0	513	486	
7	0	0	0	0	509	487	
8	0	0	0	0	510	487	
9	0	0	0	0	510	486	
10	0	0	0	0	510	486	
11	0	0	0	0	509	485	
12	0	0	0	0	507	484	
13	0	0	0	0	506	484	
14	0	0	0	0	507	484	
15	0	0	0	0	508	483	
0	0	0	0	0	508	484	
1	0	0	0	0	511	485	
2	0	0	0	0	511	486	
3	0	0	0	0	510	487	
4	0	0	0	0	511	488	
5	0	0	0	0	515	489	
6	0	0	0	0	512	489	
7	0	0	0	0	513	489	
8	0	0	0	0	511	489	
9	0	0	0	0	511	489	
10	0	0	0	0	508	488	
11	0	0	0	0	509	488	
12	0	0	0	0	507	487	
13	0	0	0	0	507	487	
14	0	0	0	0	507	487	
15	0	0	0	0	504	487	
0	0	0	0	0	508	487	
1	0	0	0	0	508	488	
2	0	0	0	0	512	489	
3	0	0	0	0	511	489	
4	0	0	0	0	510	490	
5	0	0	0	0	511	492	
6	0	0	0	0	514	492	
7	0	0	0	0	512	492	
8	0	0	0	0	511	492	
9	0	0	0	0	511	492	
10	0	0	0	0	510	492	
11	0	0	0	0	509	492	
12	0	0	0	0	507	492	
13	0	0	0	0	504	492	
14	0	0	0	0	507	490	
15	0	0	0	0	508	489	
0	0	0	0	0	508	488	
1	0	0	0	0	507	489	
2	0	0	0	0	509	490	
3	0	0	0	0	512	490	
4	0	0	0	0	511	491	
5	0	0	0	0	511	492	
6	0	0	0	0	511	494	
7	0	0	0	0	512	494	
8	0	0	0	0	511	493	
9	0	0	0	0	510	494	
10	0	0	0	0	508	494	
11	0	0	0	0	506	494	
12	0	0	0	0	506	494	
13	0	0	0	0	507	493	
14	0	0	0	0	507	492	
15	0	0	0	0	508	492	
0	0	0	0	0	510	491	
1	0	0	0	0	508	491	
2	0	0	0	0	511	492	
3	0	0	0	0	512	493	
4	0	0	0	0	512	493	
5	0	0	0	0	512	493	
6	0	0	0	0	516	495	
7	0	0	0	0	512	496	
8	0	0	0	0	510	496	
9	0	0	0	0	509	497	
10	0	0	0	0	510	498	
11	0	0	0	0	507	498	
12	0	0	0	0	506	497	
13	0	0	0	0	506	496	
14	0	0	0	0	505	494	
15	0	0	0	0	505	493	
0	0	0	0	0	505	493	
1	0	0	0	0	510	492	
2	0	0	0	0	508	492	
3	0	0	0	0	510	493	
4	0	0	0	0	510	493	
5	0	0	0	0	511	493	
6	0	0	0	0	511	493	
7	0	0	0	0	514	495	
8	0	0	0	0	513	495	
9	0	0	0	0	512	496	
10	0	0	0	0	511	496	
11	0	0	0	0	509	496	
12	0	0	0	0	510	496	
13	0	0	0	0	508	496	
14	0	0	0	0	508	495	
15	0	0	0	0	509	495	
0	0	0	0	0	508	494	
1	0	0	0	0	509	494	
2	0	0	0	0	508	494	
3	0	0	0	0	508	495	
4	0	0	0	0	508	496	
5	0	0	0	0	512	497	
6	0	0	0	0	512	498	
7	0	0	0	0	512	499	
8	0	0	0	0	511	500	
9	0	0	0	0	509	502	
10	0	0	0	0	511	503	
11	0	0	0	0	511	503	
12	0	0	0	0	511	502	
13	0	0	0	0	508	501	
14	0	0	0	0	507	501	
15	0	0	0	0	507	500	
0	0	0	0	0	509	499	
1	0	0	0	0	505	498	
2	0	0	0	0	509	499	
3	0	0	0	0	510	499	
4	0	0	0	0	511	499	
5	0	0	0	0	511	499	
6	0	0	0	0	512	499	
7	0	0	0	0	514	499	
8	0	0	0	0	514	499	
9	0	0	0	0	514	500	
10	0	0	0	0	510	501	
11	0	0	0	0	509	502	
12	0	0	0	0	505	502	
13	0	0	0	0	509	501	
14	0	0	0	0	508	500	
15	0	0	0	0	506	499	
0	0	0	0	0	507	498	
1	0	0	0	0	506	497	
2	0	0	0	0	505	497	
3	0	0	0	0	507	497	
4	0	0	0	0	508	497	
5	0	0	0	0	510	498	
6	0	0	0	0	510	500	
7	0	0	0	0	513	500	
8	0	0	0	0	512	501	
9	0	0	0	0	513	503	
10	0	0	0	0	515	503	
11	0	0	0	0	511	504	
12	0	0	0	0	510	505	
13	0	0	0	0	510	505	
14	0	0	0	0	507	505	
15	0	0	0	0	508	504	
0	0	0	0	0	507	504	
1	0	0	0	0	505	503	
2	0	0	0	0	505	501	
3	0	0	0	0	506	500	
4	0	0	0	0	510	500	
5	0	0	0	0	511	500	
6	0	0	0	0	511	501	
7	0	0	0	0	512	502	
8	0	0	0	0	510	502	
9	0	0	0	0	510	502	
10	0	0	0	0	512	503	
11	0	0	0	0	510	504	
12	0	0	0	0	512	504	
13	0	0	0	0	510	505	
14	0	0	0	0	509	504	
15	0	0	0	0	506	504	
0	0	0	0	0	503	504	
1	0	0	0	0	505	503	
2	0	0	0	0	507	502	
3	0	0	0	0	508	502	
4	0	0	0	0	507	502	
5	0	0	0	0	510	502	
6	0	0	0	0	511	502	
7	0	0	0	0	509	503	
8	0	0	0	0	508	503	
9	0	0	0	0	510	504	
10	0	0	0	0	512	504	
11	0	0	0	0	513	504	
12	0	0	0	0	513	504	
13	0	0	0	0	512	505	
14	0	0	0	0	511	504	
15	0	0	0	0	510	504	
0	0	0	0	0	508	503	
1	0	0	0	0	507	502	
2	0	0	0	0	508	499	
3	0	0	0	0	504	499	
4	0	0	0	0	508	499	
5	0	0	0	0	508	500	
6	0	0	0	0	511	500	
7	0	0	0	0	511	500	
8	0	0	0	0	511	502	
9	0	0	0	0	510	502	
10	0	0	0	0	511	502	
11	0	0	0	0	514	503	
12	0	0	0	0	513	504	
13	0	0	0	0	511	504	
14	0	0	0	0	511	504	
15	0	0	0	0	512	504	
0	0	0	0	0	511	503	
1	0	0	0	0	508	502	
2	0	0	0	0	505	501	
3	0	0	0	0	507	501	
4	0	0	0	0	504	501	
5	0	0	0	0	505	502	
6	0	0	0	0	508	502	
7	0	0	0	0	511	502	
8	0	0	0	0	513	503	
9	0	0	0	0	516	503	
10	0	0	0	0	516	503	
11	0	0	0	0	515	503	
12	0	0	0	0	511	504	
13	0	0	0	0	513	504	
14	0	0	0	0	512	505	
15	0	0	0	0	512	505	
0	0	0	0	0	508	504	
1	0	0	0	0	505	504	
2	0	0	0	0	506	505	
3	0	0	0	0	506	506	
4	0	0	0	0	506	505	
5	0	0	0	0	508	504	
6	0	0	0	0	508	504	
7	0	0	0	0	510	504	
8	0	0	0	0	507	503	
9	0	0	0	0	510	504	
10	0	0	0	0	508	504	
11	0	0	0	0	508	504	
12	0	0	0	0	509	506	
13	0	0	0	0	509	507	
14	0	0	0	0	510	507	
15	0	0	0	0	509	507	
0	0	0	0	0	511	508	
1	0	0	0	0	510	509	
2	0	0	0	0	511	508	
3	0	0	0	0	510	509	
4	0	0	0	0	507	509	
5	0	0	0	0	507	508	
6	0	0	0	0	507	507	
7	0	0	0	0	510	507	
8	0	0	0	0	512	507	
9	0	0	0	0	510	507	
10	0	0	0	0	509	507	
11	0	0	0	0	511	508	
12	0	0	0	0	506	509	
13	0	0	0	0	510	511	
14	0	0	0	0	513	512	
15	0	0	0	0	510	513	
0	0	0	0	0	511	514	
1	0	0	0	0	510	514	
2	0	0	0	0	507	514	
3	0	0	0	0	507	514	
4	0	0	0	0	504	513	
5	0	0	0	0	505	512	
6	0	0	0	0	505	511	
7	0	0	0	0	507	511	
8	0	0	0	0	510	511	
9	0	0	0	0	509	511	
10	0	0	0	0	511	512	
11	0	0	0	0	512	512	
12	0	0	0	0	512	512	
13	0	0	0	0	512	513	
14	0	0	0	0	511	512	
15	0	0	0	0	516	512	
0	0	0	0	0	515	512	
1	0	0	0	0	511	512	
2	0	0	0	0	509	512	
3	0	0	0	0	508	510	
4	0	0	0	0	504	509	
5	0	0	0	0	507	509	
6	0	0	0	0	505	508	
7	0	0	0	0	506	508	
8	0	0	0	0	508	507	
9	0	0	0	0	512	507	
10	0	0	0	0	510	508	
11	0	0	0	0	512	509	
12	0	0	0	0	511	510	
13	0	0	0	0	512	510	
14	0	0	0	0	514	511	
15	0	0	0	0	513	512	
0	0	0	0	0	511	512	
1	0	0	0	0	512	511	
2	0	0	0	0	512	510	
3	0	0	0	0	511	508	
4	0	0	0	0	510	507	
5	0	0	0	0	510	506	
6	0	0	0	0	509	504	
7	0	0	0	0	505	502	
8	0	0	0	0	507	502	
9	0	0	0	0	508	502	
10	0	0	0	0	508	501	
11	0	0	0	0	513	501	
12	0	0	0	0	509	502	
13	0	0	0	0	508	502	
14	0	0	0	0	512	502	
15	0	0	0	0	514	502	
0	0	0	0	0	513	502	
1	0	0	0	0	512	502	
2	0	0	0	0	510	503	
3	0	0	0	0	509	503	
4	0	0	0	0	508	502	
5	0	0	0	0	507	501	
6	0	0	0	0	509	500	
7	0	0	0	0	509	499	
8	0	0	0	0	508	499	
9	0	0	0	0	508	499	
10	0	0	0	0	509	498	
11	0	0	0	0	510	499	
12	0	0	0	0	509	499	
13	0	0	0	0	511	500	
14	0	0	0	0	511	502	
15	0	0	0	0	509	503	
0	0	0	0	0	512	504	
1	0	0	0	0	511	505	
2	0	0	0	0	510	506	
3	0	0	0	0	509	506	
4	0	0	0	0	506	506	
5	0	0	0	0	506	506	
6	0	0	0	0	509	506	
7	0	0	0	0	510	505	
8	0	0	0	0	508	504	
9	0	0	0	0	509	502	
10	0	0	0	0	511	502	
11	0	0	0	0	511	502	
12	0	0	0	0	514	501	
13	0	0	0	0	513	501	
14	0	0	0	0	514	501	
15	0	0	0	0	511	501	
0	0	0	0	0	512	501	
1	0	0	0	0	515	500	
2	0	0	0	0	517	500	
3	0	0	0	0	514	499	
4	0	0	0	0	512	499	
5	0	0	0	0	514	498	
6	0	0	0	0	514	498	
7	0	0	0	0	511	496	
8	0	0	0	0	511	495	
9	0	0	0	0	511	493	
10	0	0	0	0	511	492	
11	0	0	0	0	512	491	
12	0	0	0	0	512	492	
13	0	0	0	0	511	494	
14	0	0	0	0	511	498	
15	0	0	0	0	513	503	
0	0	0	0	0	515	506	
1	0	0	0	0	516	510	
2	0	0	0	0	514	513	
3	0	0	0	0	511	515	
4	0	0	0	0	509	516	
5	0	0	0	0	502	517	
6	0	0	0	0	499	519	
7	0	0	0	0	496	520	
8	0	0	0	0	497	523	
9	0	0	0	0	495	525	
10	0	0	0	0	492	526	
11	0	0	0	0	497	529	
12	0	0	0	0	499	531	
13	0	0	0	0	496	533	
14	0	0	0	0	496	536	
15	0	0	0	0	497	539	
0	0	0	0	0	496	541	
1	0	0	0	0	498	541	
2	0	0	0	0	492	542	
3	0	0	0	0	493	543	
4	0	0	0	0	493	542	
5	0	0	0	0	493	542	
6	0	0	0	0	494	542	
7	0	0	0	0	496	540	
8	0	0	0	0	501	539	
9	0	0	0	0	504	536	
10	0	0	0	0	509	531	
11	0	0	0	0	515	527	
12	0	0	0	0	518	521	
13	0	0	0	0	520	516	
14	0	0	0	0	524	510	
15	0	0	0	0	528	503	
0	0	0	0	0	530	496	
1	0	0	0	0	529	488	
2	0	0	0	0	529	481	
3	0	0	0	0	534	475	
4	0	0	0	0	533	470	
5	0	0	0	0	530	467	
6	0	0	0	0	528	464	
7	0	0	0	0	521	463	
8	0	0	0	0	515	462	
9	0	0	0	0	513	462	
10	0	0	0	0	507	463	
11	0	0	0	0	505	464	
12	0	0	0	0	503	467	
13	0	0	0	0	501	472	
14	0	0	0	0	504	476	
15	0	0	0	0	510	480	
0	0	0	0	0	510	483	
1	0	0	0	0	515	488	
2	0	0	0	0	514	491	
3	0	0	0	0	518	495	
4	0	0	0	0	516	497	
5	0	0	0	0	518	499	
6	0	0	0	0	514	502	
7	0	0	0	0	514	503	
8	0	0	0	0	509	504	
9	0	0	0	0	507	505	
10	0	0	0	0	504	505	
11	0	0	0	0	507	505	
12	0	0	0	0	507	504	
13	0	0	0	0	507	505	
14	0	0	0	0	510	505	
15	0	0	0	0	512	506	
0	0	0	0	0	513	508	
1	0	0	0	0	516	510	
2	0	0	0	0	516	511	
3	0	0	0	0	516	513	
4	0	0	0	0	517	513	
5	0	0	0	0	513	515	
6	0	0	0	0	514	515	
7	0	0	0	0	513	515	
8	0	0	0	0	508	515	
9	0	0	0	0	507	514	
10	0	0	0	0	504	514	
11	0	0	0	0	504	512	
12	0	0	0	0	500	512	
13	0	0	0	0	502	511	
14	0	0	0	0	503	510	
15	0	0	0	0	502	510	
0	0	0	0	0	507	510	
1	0	0	0	0	508	511	
2	0	0	0	0	510	511	
3	0	0	0	0	507	511	
4	0	0	0	0	505	511	
5	0	0	0	0	507	512	
6	0	0	0	0	508	512	
7	0	0	0	0	509	512	
8	0	0	0	0	509	513	
9	0	0	0	0	507	514	
10	0	0	0	0	507	513	
11	0	0	0	0	506	513	
12	0	0	0	0	510	513	
13	0	0	0	0	510	512	
14	0	0	0	0	509	512	
15	0	0	0	0	510	512	
0	0	0	0	0	510	512	
1	0	0	0	0	510	513	
2	0	0	0	0	509	513	
3	0	0	0	0	508	515	
4	0	0	0	0	510	515	
5	0	0	0	0	511	515	
6	0	0	0	0	511	515	
7	0	0	0	0	510	515	
8	0	0	0	0	511	516	
9	0	0	0	0	511	515	
10	0	0	0	0	510	514	
11	0	0	0	0	507	514	
12	0	0	0	0	510	513	
13	0	0	0	0	508	512	
14	0	0	0	0	505	513	
15	0	0	0	0	507	512	
0	0	0	0	0	508	512	
1	0	0	0	0	508	511	
2	0	0	0	0	510	511	
3	0	0	0	0	512	512	
4	0	0	0	0	512	512	
5	0	0	0	0	512	512	
6	0	0	0	0	513	513	
7	0	0	0	0	513	514	
8	0	0	0	0	511	515	
9	0	0	0	0	509	514	
10	0	0	0	0	505	515	
11	0	0	0	0	505	515	
12	0	0	0	0	506	514	
13	0	0	0	0	506	514	
14	0	0	0	0	504	513	
15	0	0	0	0	505	513	
0	0	0	0	0	508	513	
1	0	0	0	0	507	513	
2	0	0	0	0	510	513	
3	0	0	0	0	512	514	
4	0	0	0	0	512	515	
5	0	0	0	0	511	515	
6	0	0	0	0	511	516	
7	0	0	0	0	513	517	
8	0	0	0	0	512	519	
9	0	0	0	0	510	519	
10	0	0	0	0	510	519	
11	0	0	0	0	509	519	
12	0	0	0	0	506	519	
13	0	0	0	0	507	519	
14	0	0	0	0	507	518	
15	0	0	0	0	506	516	
0	0	0	0	0	505	516	
1	0	0	0	0	506	516	
2	0	0	0	0	509	515	
3	0	0	0	0	511	515	
4	0	0	0	0	513	515	
5	0	0	0	0	514	516	
6	0	0	0	0	512	516	
7	0	0	0	0	512	516	
8	0	0	0	0	511	517	
9	0	0	0	0	513	518	
10	0	0	0	0	511	518	
11	0	0	0	0	510	518	
12	0	0	0	0	508	518	
13	0	0	0	0	508	518	
14	0	0	0	0	507	517	
15	0	0	0	0	506	516	
0	0	0	0	0	505	516	
1	0	0	0	0	505	517	
2	0	0	0	0	508	516	
3	0	0	0	0	508	516	
4	0	0	0	0	509	517	
5	0	0	0	0	508	516	
6	0	0	0	0	511	518	
7	0	0	0	0	510	518	
8	0	0	0	0	512	519	
9	0	0	0	0	511	520	
10	0	0	0	0	511	521	
11	0	0	0	0	510	522	
12	0	0	0	0	511	522	
13	0	0	0	0	512	521	
14	0	0	0	0	509	521	
15	0	0	0	0	509	520	
0	0	0	0	0	509	519	
1	0	0	0	0	509	520	
2	0	0	0	0	509	519	
3	0	0	0	0	510	519	
4	0	0	0	0	510	519	
5	0	0	0	0	511	519	
6	0	0	0	0	510	519	
7	0	0	0	0	511	520	
8	0	0	0	0	511	521	
9	0	0	0	0	510	522	
10	0	0	0	0	511	524	
11	0	0	0	0	509	525	
12	0	0	0	0	508	524	
13	0	0	0	0	509	525	
14	0	0	0	0	508	525	
15	0	0	0	0	507	525	
0	0	0	0	0	508	524	
1	0	0	0	0	508	524	
2	0	0	0	0	506	524	
3	0	0	0	0	507	524	
4	0	0	0	0	507	524	
5	0	0	0	0	509	525	
6	0	0	0	0	510	526	
7	0	0	0	0	511	527	
8	0	0	0	0	511	528	
9	0	0	0	0	510	529	
10	0	0	0	0	514	530	
11	0	0	0	0	514	531	
12	0	0	0	0	513	532	
13	0	0	0	0	511	532	
14	0	0	0	0	509	532	
15	0	0	0	0	508	532	
0	0	0	0	0	505	532	
1	0	0	0	0	505	531	
2	0	0	0	0	503	531	
3	0	0	0	0	504	532	
4	0	0	0	0	509	531	
5	0	0	0	0	509	531	
6	0	0	0	0	509	532	
7	0	0	0	0	512	533	
8	0	0	0	0	509	534	
9	0	0	0	0	508	535	
10	0	0	0	0	512	536	
11	0	0	0	0	510	537	
12	0	0	0	0	511	538	
13	0	0	0	0	511	538	
14	0	0	0	0	510	538	
15	0	0	0	0	509	537	
0	0	0	0	0	508	537	
1	0	0	0	0	510	536	
2	0	0	0	0	509	536	
3	0	0	0	0	510	536	
4	0	0	0	0	509	535	
5	0	0	0	0	507	536	
6	0	0	0	0	507	536	
7	0	0	0	0	509	537	
8	0	0	0	0	512	538	
9	0	0	0	0	512	538	
10	0	0	0	0	514	539	
11	0	0	0	0	514	540	
12	0	0	0	0	511	540	
13	0	0	0	0	510	541	
14	0	0	0	0	511	541	
15	0	0	0	0	510	541	
0	0	0	0	0	506	540	
1	0	0	0	0	507	540	
2	0	0	0	0	508	539	
3	0	0	0	0	510	537	
4	0	0	0	0	509	536	
5	0	0	0	0	507	536	
6	0	0	0	0	509	535	
7	0	0	0	0	507	535	
8	0	0	0	0	509	535	
9	0	0	0	0	509	536	
10	0	0	0	0	510	535	
11	0	0	0	0	511	535	
12	0	0	0	0	511	534	
13	0	0	0	0	510	532	
14	0	0	0	0	511	531	
15	0	0	0	0	511	527	
0	0	0	0	0	510	525	
1	0	0	0	0	509	523	
2	0	0	0	0	505	521	
3	0	0	0	0	504	519	
4	0	0	0	0	505	517	
5	0	0	0	0	508	515	
6	0	0	0	0	510	513	
7	0	0	0	0	509	512	
8	0	0	0	0	509	512	
9	0	0	0	0	510	511	
10	0	0	0	0	510	510	
11	0	0	0	0	511	509	
12	0	0	0	0	511	508	
13	0	0	0	0	510	507	
14	0	0	0	0	511	505	
15	0	0	0	0	510	504	
0	0	0	0	0	512	502	
1	0	0	0	0	508	499	
2	0	0	0	0	508	498	
3	0	0	0	0	507	496	
4	0	0	0	0	509	494	
5	0	0	0	0	506	492	
6	0	0	0	0	507	490	
7	0	0	0	0	505	489	
8	0	0	0	0	507	488	
9	0	0	0	0	511	488	
10	0	0	0	0	511	487	
11	0	0	0	0	511	487	
12	0	0	0	0	511	488	
13	0	0	0	0	512	488	
14	0	0	0	0	510	488	
15	0	0	0	0	513	487	
0	0	0	0	0	511	486	
1	0	0	0	0	511	485	
2	0	0	0	0	510	483	
3	0	0	0	0	508	483	
4	0	0	0	0	508	482	
5	0	0	0	0	506	480	
6	0	0	0	0	505	478	
7	0	0	0	0	508	478	
8	0	0	0	0	508	478	
9	0	0	0	0	509	478	
10	0	0	0	0	508	478	
11	0	0	0	0	511	478	
12	0	0	0	0	511	477	
13	0	0	0	0	511	477	
14	0	0	0	0	511	478	
15	0	0	0	0	512	478	
0	0	0	0	0	510	478	
1	0	0	0	0	512	479	
2	0	0	0	0	507	479	
3	0	0	0	0	509	480	
4	0	0	0	0	510	479	
5	0	0	0	0	511	479	
6	0	0	0	0	509	479	
7	0	0	0	0	508	478	
8	0	0	0	0	510	478	
9	0	0	0	0	510	478	
10	0	0	0	0	512	478	
11	0	0	0	0	509	478	
12	0	0	0	0	511	478	
13	0	0	0	0	512	478	
14	0	0	0	0	513	478	
15	0	0	0	0	514	478	
0	0	0	0	0	512	479	
1	0	0	0	0	510	479	
2	0	0	0	0	509	479	
3	0	0	0	0	506	478	
4	0	0	0	0	505	478	
5	0	0	0	0	506	478	
6	0	0	0	0	504	479	
7	0	0	0	0	503	479	
8	0	0	0	0	509	478	
9	0	0	0	0	508	477	
10	0	0	0	0	509	477	
11	0	0	0	0	511	477	
12	0	0	0	0	512	477	
13	0	0	0	0	512	477	
14	0	0	0	0	514	479	
15	0	0	0	0	515	479	
0	0	0	0	0	514	480	
1	0	0	0	0	511	479	
2	0	0	0	0	510	479	
3	0	0	0	0	509	479	
4	0	0	0	0	508	480	
5	0	0	0	0	509	480	
6	0	0	0	0	508	479	
7	0	0	0	0	506	479	
8	0	0	0	0	504	479	
9	0	0	0	0	504	480	
10	0	0	0	0	503	482	
11	0	0	0	0	508	484	
12	0	0	0	0	514	486	
13	0	0	0	0	513	486	
14	0	0	0	0	514	487	
15	0	0	0	0	515	487	
0	0	0	0	0	513	488	
1	0	0	0	0	511	487	
2	0	0	0	0	512	488	
3	0	0	0	0	511	488	
4	0	0	0	0	508	488	
5	0	0	0	0	508	488	
6	0	0	0	0	509	487	
7	0	0	0	0	507	487	
8	0	0	0	0	509	486	
9	0	0	0	0	507	484	
10	0	0	0	0	506	484	
11	0	0	0	0	510	485	
12	0	0	0	0	509	486	
13	0	0	0	0	511	486	
14	0	0	0	0	511	487	
15	0	0	0	0	512	487	
0	0	0	0	0	512	488	
1	0	0	0	0	511	488	
2	0	0	0	0	512	489	
3	0	0	0	0	510	489	
4	0	0	0	0	512	489	
5	0	0	0	0	510	489	
6	0	0	0	0	507	491	
7	0	0	0	0	507	491	
8	0	0	0	0	507	492	
9	0	0	0	0	509	492	
10	0	0	0	0	509	490	
11	0	0	0	0	513	490	
12	0	0	0	0	511	490	
13	0	0	0	0	512	490	
14	0	0	0	0	514	491	
15	0	0	0	0	510	491	
0	0	0	0	0	513	493	
1	0	0	0	0	513	493	
2	0	0	0	0	511	493	
3	0	0	0	0	512	494	
4	0	0	0	0	512	494	
5	0	0	0	0	508	494	
6	0	0	0	0	507	493	
7	0	0	0	0	507	492	
8	0	0	0	0	507	490	
9	0	0	0	0	504	488	
10	0	0	0	0	505	488	
11	0	0	0	0	508	488	
12	0	0	0	0	508	488	
13	0	0	0	0	509	488	
14	0	0	0	0	508	490	
15	0	0	0	0	509	492	
0	0	0	0	0	510	493	
1	0	0	0	0	510	494	
2	0	0	0	0	509	495	
3	0	0	0	0	511	496	
4	0	0	0	0	512	496	
5	0	0	0	0	509	495	
6	0	0	0	0	508	494	
7	0	0	0	0	510	495	
8	0	0	0	0	508	495	
9	0	0	0	0	510	495	
10	0	0	0	0	508	493	
11	0	0	0	0	508	491	
12	0	0	0	0	508	490	
13	0	0	0	0	510	489	
14	0	0	0	0	513	490	
15	0	0	0	0	513	491	
0	0	0	0	0	511	493	
1	0	0	0	0	515	494	
2	0	0	0	0	511	494	
3	0	0	0	0	512	495	
4	0	0	0	0	511	495	
5	0	0	0	0	510	494	
6	0	0	0	0	506	494	
7	0	0	0	0	504	493	
8	0	0	0	0	504	494	
9	0	0	0	0	507	493	
10	0	0	0	0	509	492	
11	0	0	0	0	508	491	
12	0	0	0	0	508	492	
13	0	0	0	0	506	491	
14	0	0	0	0	508	492	
15	0	0	0	0	509	494	
0	0	0	0	0	510	496	
1	0	0	0	0	512	497	
2	0	0	0	0	512	499	
3	0	0	0	0	513	500	
4	0	0	0	0	514	502	
5	0	0	0	0	512	503	
6	0	0	0	0	510	503	
7	0	0	0	0	507	503	
8	0	0	0	0	507	502	
9	0	0	0	0	511	500	
10	0	0	0	0	510	499	
11	0	0	0	0	506	497	
12	0	0	0	0	505	497	
13	0	0	0	0	507	498	
14	0	0	0	0	508	499	
15	0	0	0	0	506	501	
0	0	0	0	0	507	501	
1	0	0	0	0	510	502	
2	0	0	0	0	513	503	
3	0	0	0	0	517	504	
4	0	0	0	0	512	503	
5	0	0	0	0	509	502	
6	0	0	0	0	510	503	
7	0	0	0	0	510	503	
8	0	0	0	0	507	502	
9	0	0	0	0	506	502	
10	0	0	0	0	507	502	
11	0	0	0	0	510	502	
12	0	0	0	0	505	501	
13	0	0	0	0	506	500	
14	0	0	0	0	511	498	
15	0	0	0	0	511	497	
0	0	0	0	0	510	497	
1	0	0	0	0	510	497	
2	0	0	0	0	511	498	
3	0	0	0	0	511	497	
4	0	0	0	0	510	498	
5	0	0	0	0	512	499	
6	0	0	0	0	515	500	
7	0	0	0	0	513	501	
8	0	0	0	0	511	502	
9	0	0	0	0	507	500	
10	0	0	0	0	505	500	
11	0	0	0	0	508	500	
12	0	0	0	0	509	498	
13	0	0	0	0	506	497	
14	0	0	0	0	506	497	
15	0	0	0	0	508	499	
0	0	0	0	0	510	499	
1	0	0	0	0	510	500	
2	0	0	0	0	508	500	
3	0	0	0	0	509	501	
4	0	0	0	0	511	502	
5	0	0	0	0	512	503	
6	0	0	0	0	509	502	
7	0	0	0	0	513	503	
8	0	0	0	0	512	503	
9	0	0	0	0	512	503	
10	0	0	0	0	511	501	
11	0	0	0	0	510	499	
12	0	0	0	0	508	498	
13	0	0	0	0	506	498	
14	0	0	0	0	504	498	
15	0	0	0	0	505	498	
0	0	0	0	0	504	497	
1	0	0	0	0	508	497	
2	0	0	0	0	510	497	
3	0	0	0	0	511	499	
4	0	0	0	0	511	499	
5	0	0	0	0	511	501	
6	0	0	0	0	512	502	
7	0	0	0	0	505	503	
8	0	0	0	0	507	505	
9	0	0	0	0	506	507	
10	0	0	0	0	511	506	
11	0	0	0	0	508	504	
12	0	0	0	0	508	502	
13	0	0	0	0	510	503	
14	0	0	0	0	507	505	
15	0	0	0	0	509	507	
0	0	0	0	0	512	508	
1	0	0	0	0	511	508	
2	0	0	0	0	510	509	
3	0	0	0	0	512	510	
4	0	0	0	0	513	511	
5	0	0	0	0	513	511	
6	0	0	0	0	512	512	
7	0	0	0	0	513	512	
8	0	0	0	0	512	511	
9	0	0	0	0	511	511	
10	0	0	0	0	507	511	
11	0	0	0	0	509	510	
12	0	0	0	0	506	509	
13	0	0	0	0	509	507	
14	0	0	0	0	507	504	
15	0	0	0	0	506	500	
0	0	0	0	0	510	498	
1	0	0	0	0	508	497	
2	0	0	0	0	511	498	
3	0	0	0	0	511	498	
4	0	0	0	0	511	498	
5	0	0	0	0	512	499	
6	0	0	0	0	513	502	
7	0	0	0	0	510	503	
8	0	0	0	0	508	503	
9	0	0	0	0	508	504	
10	0	0	0	0	512	504	
11	0	0	0	0	511	506	
12	0	0	0	0	511	507	
13	0	0	0	0	511	507	
14	0	0	0	0	509	507	
15	0	0	0	0	505	507	
0	0	0	0	0	508	506	
1	0	0	0	0	507	504	
2	0	0	0	0	508	505	
3	0	0	0	0	509	505	
4	0	0	0	0	507	507	
5	0	0	0	0	509	507	
6	0	0	0	0	511	506	
7	0	0	0	0	514	506	
8	0	0	0	0	513	505	
9	0	0	0	0	511	504	
10	0	0	0	0	510	504	
11	0	0	0	0	509	505	
12	0	0	0	0	506	505	
13	0	0	0	0	505	505	
14	0	0	0	0	507	504	
15	0	0	0	0	509	505	
0	0	0	0	0	509	504	
1	0	0	0	0	509	505	
2	0	0	0	0	508	504	
3	0	0	0	0	511	504	
4	0	0	0	0	510	506	
5	0	0	0	0	512	507	
6	0	0	0	0	515	508	
7	0	0	0	0	512	509	
8	0	0	0	0	514	511	
9	0	0	0	0	518	513	
10	0	0	0	0	518	513	
11	0	0	0	0	519	511	
12	0	0	0	0	513	508	
13	0	0	0	0	509	508	
14	0	0	0	0	508	508	
15	0	0	0	0	510	508	
0	0	0	0	0	508	508	
1	0	0	0	0	506	506	
2	0	0	0	0	503	504	
3	0	0	0	0	504	505	
4	0	0	0	0	504	505	
5	0	0	0	0	508	508	
6	0	0	0	0	507	509	
7	0	0	0	0	508	509	
8	0	0	0	0	508	511	
9	0	0	0	0	513	513	
10	0	0	0	0	512	513	
11	0	0	0	0	507	512	
12	0	0	0	0	505	512	
13	0	0	0	0	508	511	
14	0	0	0	0	505	511	
15	0	0	0	0	505	509	
0	0	0	0	0	506	508	
1	0	0	0	0	507	507	
2	0	0	0	0	506	508	
3	0	0	0	0	507	509	
4	0	0	0	0	510	510	
5	0	0	0	0	511	510	
6	0	0	0	0	514	511	
7	0	0	0	0	512	514	
8	0	0	0	0	512	517	
9	0	0	0	0	517	519	
10	0	0	0	0	518	520	
11	0	0	0	0	515	518	
12	0	0	0	0	516	517	
13	0	0	0	0	509	515	
14	0	0	0	0	509	514	
15	0	0	0	0	505	513	
0	0	0	0	0	504	513	
1	0	0	0	0	502	513	
2	0	0	0	0	503	511	
3	0	0	0	0	504	510	
4	0	0	0	0	506	509	
5	0	0	0	0	505	510	
6	0	0	0	0	511	511	
7	0	0	0	0	509	512	
8	0	0	0	0	505	512	
9	0	0	0	0	507	514	
10	0	0	0	0	512	515	
11	0	0	0	0	510	517	
12	0	0	0	0	510	517	
13	0	0	0	0	510	518	
14	0	0	0	0	512	517	
15	0	0	0	0	509	515	
0	0	0	0	0	512	515	
1	0	0	0	0	508	515	
2	0	0	0	0	508	515	
3	0	0	0	0	507	515	
4	0	0	0	0	508	515	
5	0	0	0	0	510	515	
6	0	0	0	0	511	514	
7	0	0	0	0	512	511	
8	0	0	0	0	513	510	
9	0	0	0	0	517	511	
10	0	0	0	0	512	511	
11	0	0	0	0	512	509	
12	0	0	0	0	511	508	
13	0	0	0	0	510	508	
14	0	0	0	0	509	507	
15	0	0	0	0	510	507	
0	0	0	0	0	508	508	
1	0	0	0	0	510	508	
2	0	0	0	0	511	507	
3	0	0	0	0	511	505	
4	0	0	0	0	510	506	
5	0	0	0	0	511	506	
6	0	0	0	0	510	505	
7	0	0	0	0	510	503	
8	0	0	0	0	510	501	
9	0	0	0	0	508	501	
10	0	0	0	0	507	501	
11	0	0	0	0	509	503	
12	0	0	0	0	507	505	
13	0	0	0	0	506	506	
14	0	0	0	0	507	508	
15	0	0	0	0	512	507	
0	0	0	0	0	512	505	
1	0	0	0	0	510	503	
2	0	0	0	0	510	501	
3	0	0	0	0	509	498	
4	0	0	0	0	506	496	
5	0	0	0	0	509	495	
6	0	0	0	0	510	494	
7	0	0	0	0	512	493	
8	0	0	0	0	511	495	
9	0	0	0	0	510	496	
10	0	0	0	0	511	498	
11	0	0	0	0	515	498	
12	0	0	0	0	513	501	
13	0	0	0	0	513	503	
14	0	0	0	0	512	504	
15	0	0	0	0	512	504	
0	0	0	0	0	511	503	
1	0	0	0	0	511	504	
2	0	0	0	0	507	504	
3	0	0	0	0	506	502	
4	0	0	0	0	507	500	
5	0	0	0	0	506	499	
6	0	0	0	0	505	498	
7	0	0	0	0	508	498	
8	0	0	0	0	507	497	
9	0	0	0	0	508	497	
10	0	0	0	0	510	497	
11	0	0	0	0	510	499	
12	0	0	0	0	513	502	
13	0	0	0	0	516	502	
14	0	0	0	0	513	503	
15	0	0	0	0	514	504	
0	0	0	0	0	511	504	
1	0	0	0	0	508	504	
2	0	0	0	0	508	504	
3	0	0	0	0	506	503	
4	0	0	0	0	507	503	
5	0	0	0	0	509	501	
6	0	0	0	0	510	501	
7	0	0	0	0	509	501	
8	0	0	0	0	515	500	
9	0	0	0	0	517	502	
10	0	0	0	0	517	502	
11	0	0	0	0	518	503	
12	0	0	0	0	516	500	
13	0	0	0	0	519	499	
14	0	0	0	0	519	499	
15	0	0	0	0	513	500	
0	0	0	0	0	512	502	
1	0	0	0	0	510	504	
2	0	0	0	0	508	505	
3	0	0	0	0	510	505	
4	0	0	0	0	510	505	
5	0	0	0	0	509	506	
6	0	0	0	0	506	507	
7	0	0	0	0	506	509	
8	0	0	0	0	504	510	
9	0	0	0	0	497	510	
10	0	0	0	0	498	511	
11	0	0	0	0	497	515	
12	0	0	0	0	500	520	
13	0	0	0	0	497	525	
14	0	0	0	0	503	527	
15	0	0	0	0	503	530	
0	0	0	0	0	501	532	
1	0	0	0	0	497	535	
2	0	0	0	0	498	540	
3	0	0	0	0	495	543	
4	0	0	0	0	493	546	
5	0	0	0	0	489	546	
6	0	0	0	0	484	547	
7	0	0	0	0	486	546	
8	0	0	0	0	492	546	
9	0	0	0	0	494	546	
10	0	0	0	0	501	545	
11	0	0	0	0	506	544	
12	0	0	0	0	512	540	
13	0	0	0	0	516	535	
14	0	0	0	0	520	530	
15	0	0	0	0	523	523	
0	0	0	0	0	525	519	
1	0	0	0	0	523	515	
2	0	0	0	0	524	510	
3	0	0	0	0	522	502	
4	0	0	0	0	525	493	
5	0	0	0	0	527	486	
6	0	0	0	0	529	480	
7	0	0	0	0	529	472	
8	0	0	0	0	519	467	
9	0	0	0	0	520	463	
10	0	0	0	0	522	460	
11	0	0	0	0	518	460	
12	0	0	0	0	512	461	
13	0	0	0	0	507	464	
14	0	0	0	0	507	467	
15	0	0	0	0	506	471	
0	0	0	0	0	509	475	
1	0	0	0	0	510	477	
2	0	0	0	0	511	479	
3	0	0	0	0	513	484	
4	0	0	0	0	512	488	
5	0	0	0	0	513	491	
6	0	0	0	0	513	492	
7	0	0	0	0	512	495	
8	0	0	0	0	512	496	
9	0	0	0	0	511	497	
10	0	0	0	0	512	498	
11	0	0	0	0	513	500	
12	0	0	0	0	512	502	
13	0	0	0	0	512	502	
14	0	0	0	0	513	504	
15	0	0	0	0	513	506	
0	0	0	0	0	514	508	
1	0	0	0	0	517	509	
2	0	0	0	0	515	510	
3	0	0	0	0	515	512	
4	0	0	0	0	514	513	
5	0	0	0	0	514	514	
6	0	0	0	0	506	515	
7	0	0	0	0	506	515	
8	0	0	0	0	506	513	
9	0	0	0	0	502	511	
10	0	0	0	0	502	512	
11	0	0	0	0	508	513	
12	0	0	0	0	510	511	
13	0	0	0	0	509	511	
14	0	0	0	0	509	511	
15	0	0	0	0	507	512	
0	0	0	0	0	511	512	
1	0	0	0	0	508	512	
2	0	0	0	0	506	513	
3	0	0	0	0	508	512	
4	0	0	0	0	506	512	
5	0	0	0	0	505	512	
6	0	0	0	0	506	511	
7	0	0	0	0	508	509	
8	0	0	0	0	506	508	
9	0	0	0	0	504	508	
10	0	0	0	0	507	508	
11	0	0	0	0	505	506	
12	0	0	0	0	508	505	
13	0	0	0	0	508	504	
14	0	0	0	0	509	505	
15	0	0	0	0	507	505	
0	0	0	0	0	511	506	
1	0	0	0	0	512	508	
2	0	0	0	0	512	511	
3	0	0	0	0	510	513	
4	0	0	0	0	509	513	
5	0	0	0	0	512	513	
6	0	0	0	0	508	515	
7	0	0	0	0	509	515	
8	0	0	0	0	507	513	
9	0	0	0	0	508	510	
10	0	0	0	0	510	508	
11	0	0	0	0	507	508	
12	0	0	0	0	508	508	
13	0	0	0	0	507	508	
14	0	0	0	0	507	508	
15	0	0	0	0	510	508	
0	0	0	0	0	510	509	
1	0	0	0	0	513	511	
2	0	0	0	0	510	513	
3	0	0	0	0	513	515	
4	0	0	0	0	510	515	
5	0	0	0	0	505	517	
6	0	0	0	0	504	520	
7	0	0	0	0	504	518	
8	0	0	0	0	504	515	
9	0	0	0	0	506	512	
10	0	0	0	0	506	511	
11	0	0	0	0	506	511	
12	0	0	0	0	505	510	
13	0	0	0	0	504	510	
14	0	0	0	0	508	510	
15	0	0	0	0	510	509	
0	0	0	0	0	514	508	
1	0	0	0	0	513	508	
2	0	0	0	0	515	507	
3	0	0	0	0	514	508	
4	0	0	0	0	516	509	
5	0	0	0	0	516	508	
6	0	0	0	0	512	507	
7	0	0	0	0	510	508	
8	0	0	0	0	509	508	
9	0	0	0	0	505	508	
10	0	0	0	0	505	508	
11	0	0	0	0	505	508	
12	0	0	0	0	504	506	
13	0	0	0	0	506	505	
14	0	0	0	0	510	507	
15	0	0	0	0	513	507	
0	0	0	0	0	514	508	
1	0	0	0	0	512	510	
2	0	0	0	0	512	510	
3	0	0	0	0	512	513	
4	0	0	0	0	511	515	
5	0	0	0	0	511	515	
6	0	0	0	0	509	515	
7	0	0	0	0	508	516	
8	0	0	0	0	507	518	
9	0	0	0	0	504	518	
10	0	0	0	0	505	518	
11	0	0	0	0	510	516	
12	0	0	0	0	510	513	
13	0	0	0	0	504	511	
14	0	0	0	0	507	511	
15	0	0	0	0	509	511	
0	0	0	0	0	507	512	
1	0	0	0	0	514	513	
2	0	0	0	0	513	514	
3	0	0	0	0	511	515	
4	0	0	0	0	513	516	
5	0	0	0	0	514	517	
6	0	0	0	0	512	517	
7	0	0	0	0	510	518	
8	0	0	0	0	506	519	
9	0	0	0	0	508	518	
10	0	0	0	0	506	519	
11	0	0	0	0	506	518	
12	0	0	0	0	507	517	
13	0	0	0	0	504	515	
14	0	0	0	0	504	513	
15	0	0	0	0	510	513	
0	0	0	0	0	510	513	
1	0	0	0	0	508	513	
2	0	0	0	0	511	513	
3	0	0	0	0	513	515	
4	0	0	0	0	511	516	
5	0	0	0	0	515	518	
6	0	0	0	0	513	520	
7	0	0	0	0	513	521	
8	0	0	0	0	510	522	
9	0	0	0	0	511	521	
10	0	0	0	0	509	519	
11	0	0	0	0	506	518	
12	0	0	0	0	507	516	
13	0	0	0	0	509	516	
14	0	0	0	0	509	514	
15	0	0	0	0	509	513	
0	0	0	0	0	506	514	
1	0	0	0	0	508	514	
2	0	0	0	0	510	515	
3	0	0	0	0	513	518	
4	0	0	0	0	512	520	
5	0	0	0	0	516	523	
6	0	0	0	0	514	524	
7	0	0	0	0	510	525	
8	0	0	0	0	511	527	
9	0	0	0	0	512	527	
10	0	0	0	0	508	526	
11	0	0	0	0	508	526	
12	0	0	0	0	507	524	
13	0	0	0	0	504	524	
14	0	0	0	0	506	522	
15	0	0	0	0	507	522	
0	0	0	0	0	507	523	
1	0	0	0	0	508	524	
2	0	0	0	0	512	526	
3	0	0	0	0	510	527	
4	0	0	0	0	510	529	
5	0	0	0	0	511	531	
6	0	0	0	0	512	534	
7	0	0	0	0	514	532	
8	0	0	0	0	517	532	
9	0	0	0	0	512	534	
10	0	0	0	0	510	535	
11	0	0	0	0	509	533	
12	0	0	0	0	508	532	
13	0	0	0	0	508	530	
14	0	0	0	0	506	527	
15	0	0	0	0	505	525	
0	0	0	0	0	508	526	
1	0	0	0	0	512	527	
2	0	0	0	0	511	528	
3	0	0	0	0	511	529	
4	0	0	0	0	511	530	
5	0	0	0	0	510	530	
6	0	0	0	0	509	530	
7	0	0	0	0	510	532	
8	0	0	0	0	510	532	
9	0	0	0	0	511	533	
10	0	0	0	0	511	533	
11	0	0	0	0	504	534	
12	0	0	0	0	509	534	
13	0	0	0	0	506	535	
14	0	0	0	0	503	536	
15	0	0	0	0	505	534	
0	0	0	0	0	506	533	
1	0	0	0	0	506	531	
2	0	0	0	0	508	531	
3	0	0	0	0	507	532	
4	0	0	0	0	511	532	
5	0	0	0	0	510	532	
6	0	0	0	0	514	533	
7	0	0	0	0	512	535	
8	0	0	0	0	512	536	
9	0	0	0	0	510	536	
10	0	0	0	0	511	534	
11	0	0	0	0	509	533	
12	0	0	0	0	508	530	
13	0	0	0	0	507	529	
14	0	0	0	0	507	527	
15	0	0	0	0	511	527	
0	0	0	0	0	507	525	
1	0	0	0	0	507	524	
2	0	0	0	0	507	523	
3	0	0	0	0	508	521	
4	0	0	0	0	508	521	
5	0	0	0	0	513	521	
6	0	0	0	0	512	520	
7	0	0	0	0	515	519	
8	0	0	0	0	516	519	
9	0	0	0	0	513	519	
10	0	0	0	0	512	516	
11	0	0	0	0	512	514	
12	0	0	0	0	510	512	
13	0	0	0	0	509	509	
14	0	0	0	0	507	506	
15	0	0	0	0	504	504	
0	0	0	0	0	504	502	
1	0	0	0	0	504	499	
2	0	0	0	0	506	497	
3	0	0	0	0	508	497	
4	0	0	0	0	509	495	
5	0	0	0	0	511	494	
6	0	0	0	0	509	493	
7	0	0	0	0	510	493	
8	0	0	0	0	511	493	
9	0	0	0	0	512	493	
10	0	0	0	0	513	493	
11	0	0	0	0	512	494	
12	0	0	0	0	511	494	
13	0	0	0	0	509	492	
14	0	0	0	0	508	489	
15	0	0	0	0	504	487	
0	0	0	0	0	500	485	
1	0	0	0	0	503	483	
2	0	0	0	0	505	482	
3	0	0	0	0	505	481	
4	0	0	0	0	505	482	
5	0	0	0	0	508	481	
6	0	0	0	0	511	480	
7	0	0	0	0	512	480	
8	0	0	0	0	513	480	
9	0	0	0	0	515	480	
10	0	0	0	0	512	480	
11	0	0	0	0	511	480	
12	0	0	0	0	511	481	
13	0	0	0	0	507	481	
14	0	0	0	0	508	481	
15	0	0	0	0	508	481	
0	0	0	0	0	507	479	
1	0	0	0	0	505	479	
2	0	0	0	0	506	477	
3	0	0	0	0	508	476	
4	0	0	0	0	510	474	
5	0	0	0	0	508	473	
6	0	0	0	0	508	473	
7	0	0	0	0	509	474	
8	0	0	0	0	512	475	
9	0	0	0	0	511	476	
10	0	0	0	0	514	476	
11	0	0	0	0	515	477	
12	0	0	0	0	513	476	
13	0	0	0	0	512	476	
14	0	0	0	0	508	477	
15	0	0	0	0	511	478	
0	0	0	0	0	508	479	
1	0	0	0	0	509	479	
2	0	0	0	0	511	480	
3	0	0	0	0	511	480	
4	0	0	0	0	510	478	
5	0	0	0	0	513	477	
6	0	0	0	0	511	476	
7	0	0	0	0	508	474	
8	0	0	0	0	511	474	
9	0	0	0	0	510	477	
10	0	0	0	0	511	479	
11	0	0	0	0	512	480	
12	0	0	0	0	512	480	
13	0	0	0	0	514	480	
14	0	0	0	0	513	481	
15	0	0	0	0	509	481	
0	0	0	0	0	504	481	
1	0	0	0	0	503	482	
2	0	0	0	0	506	482	
3	0	0	0	0	506	482	
4	0	0	0	0	505	483	
5	0	0	0	0	509	481	
6	0	0	0	0	510	481	
7	0	0	0	0	511	482	
8	0	0	0	0	514	483	
9	0	0	0	0	517	483	
10	0	0	0	0	515	483	
11	0	0	0	0	515	484	
12	0	0	0	0	512	486	
13	0	0	0	0	511	485	
14	0	0	0	0	511	485	
15	0	0	0	0	513	485	
0	0	0	0	0	505	485	
1	0	0	0	0	504	485	
2	0	0	0	0	507	485	
3	0	0	0	0	507	484	
4	0	0	0	0	506	484	
5	0	0	0	0	505	484	
6	0	0	0	0	509	486	
7	0	0	0	0	510	486	
8	0	0	0	0	511	486	
9	0	0	0	0	513	487	
10	0	0	0	0	512	488	
11	0	0	0	0	518	489	
12	0	0	0	0	515	490	
13	0	0	0	0	513	491	
14	0	0	0	0	512	491	
15	0	0	0	0	504	491	
0	0	0	0	0	507	492	
1	0	0	0	0	504	492	
2	0	0	0	0	508	494	
3	0	0	0	0	508	494	
4	0	0	0	0	506	493	
5	0	0	0	0	504	493	
6	0	0	0	0	507	493	
7	0	0	0	0	511	493	
8	0	0	0	0	510	494	
9	0	0	0	0	515	496	
10	0	0	0	0	513	497	
11	0	0	0	0	511	498	
12	0	0	0	0	511	498	
13	0	0	0	0	515	498	
14	0	0	0	0	512	498	
15	0	0	0	0	510	497	
0	0	0	0	0	511	497	
1	0	0	0	0	510	496	
2	0	0	0	0	507	495	
3	0	0	0	0	504	496	
4	0	0	0	0	504	496	
5	0	0	0	0	503	496	
6	0	0	0	0	504	496	
7	0	0	0	0	508	496	
8	0	0	0	0	508	496	
9	0	0	0	0	514	496	
10	0	0	0	0	510	496	
11	0	0	0	0	515	496	
12	0	0	0	0	517	496	
13	0	0	0	0	515	496	
14	0	0	0	0	515	496	
15	0	0	0	0	511	497	
0	0	0	0	0	510	499	
1	0	0	0	0	507	498	
2	0	0	0	0	505	498	
3	0	0	0	0	505	497	
4	0	0	0	0	503	497	
5	0	0	0	0	500	498	
6	0	0	0	0	499	498	
7	0	0	0	0	506	497	
8	0	0	0	0	508	496	
9	0	0	0	0	508	495	
10	0	0	0	0	511	495	
11	0	0	0	0	511	495	
12	0	0	0	0	511	496	
13	0	0	0	0	512	498	
14	0	0	0	0	514	497	
15	0	0	0	0	513	498	
0	0	0	0	0	512	497	
1	0	0	0	0	510	497	
2	0	0	0	0	511	497	
3	0	0	0	0	508	496	
4	0	0	0	0	508	496	
5	0	0	0	0	506	494	
6	0	0	0	0	506	494	
7	0	0	0	0	507	495	
8	0	0	0	0	504	496	
9	0	0	0	0	509	494	
10	0	0	0	0	512	491	
11	0	0	0	0	511	489	
12	0	0	0	0	512	489	
13	0	0	0	0	513	490	
14	0	0	0	0	512	492	
15	0	0	0	0	513	496	
0	0	0	0	0	511	496	
1	0	0	0	0	511	498	
2	0	0	0	0	509	499	
3	0	0	0	0	509	499	
4	0	0	0	0	508	499	
5	0	0	0	0	515	499	
6	0	0	0	0	507	496	
7	0	0	0	0	507	496	
8	0	0	0	0	505	497	
9	0	0	0	0	509	496	
10	0	0	0	0	507	497	
11	0	0	0	0	511	497	
12	0	0	0	0	512	498	
13	0	0	0	0	509	499	
14	0	0	0	0	509	499	
15	0	0	0	0	511	500	
0	0	0	0	0	511	500	
1	0	0	0	0	514	499	
2	0	0	0	0	514	495	
3	0	0	0	0	513	492	
4	0	0	0	0	510	494	
5	0	0	0	0	508	497	
6	0	0	0	0	507	498	
7	0	0	0	0	510	497	
8	0	0	0	0	509	495	
9	0	0	0	0	508	494	
10	0	0	0	0	505	495	
11	0	0	0	0	508	497	
12	0	0	0	0	509	497	
13	0	0	0	0	516	498	
14	0	0	0	0	513	500	
15	0	0	0	0	510	500	
0	0	0	0	0	512	499	
1	0	0	0	0	511	500	
2	0	0	0	0	509	500	
3	0	0	0	0	508	500	
4	0	0	0	0	511	499	
5	0	0	0	0	506	498	
6	0	0	0	0	505	498	
7	0	0	0	0	505	496	
8	0	0	0	0	503	495	
9	0	0	0	0	506	494	
10	0	0	0	0	508	493	
11	0	0	0	0	506	494	
12	0	0	0	0	509	493	
13	0	0	0	0	510	494	
14	0	0	0	0	509	496	
15	0	0	0	0	510	498	
0	0	0	0	0	516	499	
1	0	0	0	0	516	501	
2	0	0	0	0	513	503	
3	0	0	0	0	512	505	
4	0	0	0	0	512	505	
5	0	0	0	0	508	504	
6	0	0	0	0	507	502	
7	0	0	0	0	504	502	
8	0	0	0	0	507	502	
9	0	0	0	0	507	501	
10	0	0	0	0	504	500	
11	0	0	0	0	508	501	
12	0	0	0	0	511	502	
13	0	0	0	0	512	502	
14	0	0	0	0	514	502	
15	0	0	0	0	511	502	
0	0	0	0	0	513	500	
1	0	0	0	0	514	500	
2	0	0	0	0	514	502	
3	0	0	0	0	512	503	
4	0	0	0	0	511	504	
5	0	0	0	0	510	504	
6	0	0	0	0	508	503	
7	0	0	0	0	507	502	
8	0	0	0	0	504	501	
9	0	0	0	0	508	502	
10	0	0	0	0	508	501	
11	0	0	0	0	503	502	
12	0	0	0	0	511	502	
13	0	0	0	0	512	499	
14	0	0	0	0	511	500	
15	0	0	0	0	510	500	
0	0	0	0	0	514	501	
1	0	0	0	0	513	502	
2	0	0	0	0	513	503	
3	0	0	0	0	515	503	
4	0	0	0	0	511	502	
5	0	0	0	0	512	502	
6	0	0	0	0	509	503	
7	0	0	0	0	507	502	
8	0	0	0	0	504	502	
9	0	0	0	0	505	501	
10	0	0	0	0	505	500	
11	0	0	0	0	504	500	
12	0	0	0	0	506	499	
13	0	0	0	0	509	499	
14	0	0	0	0	512	499	
15	0	0	0	0	514	499	
0	0	0	0	0	515	498	
1	0	0	0	0	514	497	
2	0	0	0	0	515	497	
3	0	0	0	0	513	499	
4	0	0	0	0	514	501	
5	0	0	0	0	510	502	
6	0	0	0	0	509	503	
7	0	0	0	0	504	505	
8	0	0	0	0	505	507	
9	0	0	0	0	504	507	
10	0	0	0	0	503	507	
11	0	0	0	0	504	503	
12	0	0	0	0	508	501	
13	0	0	0	0	509	500	
14	0	0	0	0	511	501	
15	0	0	0	0	512	501	
0	0	0	0	0	514	501	
1	0	0	0	0	517	502	
2	0	0	0	0	516	502	
3	0	0	0	0	515	505	
4	0	0	0	0	509	508	
5	0	0	0	0	510	508	
6	0	0	0	0	511	508	
7	0	0	0	0	506	506	
8	0	0	0	0	508	504	
9	0	0	0	0	504	503	
10	0	0	0	0	504	500	
11	0	0	0	0	509	500	
12	0	0	0	0	508	498	
13	0	0	0	0	508	498	
14	0	0	0	0	510	499	
15	0	0	0	0	512	498	
0	0	0	0	0	512	499	
1	0	0	0	0	515	500	
2	0	0	0	0	514	500	
3	0	0	0	0	516	500	
4	0	0	0	0	512	502	
5	0	0	0	0	512	503	
6	0	0	0	0	510	504	
7	0	0	0	0	505	505	
8	0	0	0	0	507	506	
9	0	0	0	0	507	504	
10	0	0	0	0	508	503	
11	0	0	0	0	507	502	
12	0	0	0	0	506	503	
13	0	0	0	0	508	501	
14	0	0	0	0	504	500	
15	0	0	0	0	504	499	
0	0	0	0	0	508	499	
1	0	0	0	0	507	500	
2	0	0	0	0	511	500	
3	0	0	0	0	510	501	
4	0	0	0	0	513	502	
5	0	0	0	0	513	504	
6	0	0	0	0	512	505	
7	0	0	0	0	512	508	
8	0	0	0	0	510	508	
9	0	0	0	0	509	508	
10	0	0	0	0	507	509	
11	0	0	0	0	506	510	
12	0	0	0	0	506	512	
13	0	0	0	0	504	511	
14	0	0	0	0	504	512	
15	0	0	0	0	509	511	
0	0	0	0	0	511	510	
1	0	0	0	0	511	512	
2	0	0	0	0	511	512	
3	0	0	0	0	513	513	
4	0	0	0	0	513	513	
5	0	0	0	0	519	514	
6	0	0	0	0	516	515	
7	0	0	0	0	513	515	
8	0	0	0	0	513	514	
9	0	0	0	0	508	515	
10	0	0	0	0	504	516	
11	0	0	0	0	504	516	
12	0	0	0	0	503	513	
13	0	0	0	0	502	513	
14	0	0	0	0	502	511	
15	0	0	0	0	504	511	
0	0	0	0	0	507	512	
1	0	0	0	0	509	513	
2	0	0	0	0	512	513	
3	0	0	0	0	512	515	
4	0	0	0	0	513	518	
5	0	0	0	0	514	519	
6	0	0	0	0	515	520	
7	0	0	0	0	516	521	
8	0	0	0	0	511	523	
9	0	0	0	0	510	523	
10	0	0	0	0	510	522	
11	0	0	0	0	508	519	
12	0	0	0	0	505	517	
13	0	0	0	0	507	514	
14	0	0	0	0	504	510	
15	0	0	0	0	508	507	
0	0	0	0	0	510	504	
1	0	0	0	0	509	504	
2	0	0	0	0	512	503	
3	0	0	0	0	513	504	
4	0	0	0	0	515	505	
5	0	0	0	0	511	506	
6	0	0	0	0	514	507	
7	0	0	0	0	515	507	
8	0	0	0	0	514	506	
9	0	0	0	0	515	505	
10	0	0	0	0	513	507	
11	0	0	0	0	511	507	
12	0	0	0	0	509	504	
13	0	0	0	0	505	502	
14	0	0	0	0	505	499	
15	0	0	0	0	504	497	
0	0	0	0	0	505	497	
1	0	0	0	0	504	495	
2	0	0	0	0	510	494	
3	0	0	0	0	512	494	
4	0	0	0	0	512	494	
5	0	0	0	0	510	494	
6	0	0	0	0	510	495	
7	0	0	0	0	514	496	
8	0	0	0	0	512	497	
9	0	0	0	0	511	496	
10	0	0	0	0	509	497	
11	0	0	0	0	511	497	
12	0	0	0	0	505	496	
13	0	0	0	0	506	495	
14	0	0	0	0	502	495	
15	0	0	0	0	500	496	
0	0	0	0	0	503	496	
1	0	0	0	0	507	497	
2	0	0	0	0	507	497	
3	0	0	0	0	511	497	
4	0	0	0	0	512	497	
5	0	0	0	0	519	498	
6	0	0	0	0	517	499	
7	0	0	0	0	517	498	
8	0	0	0	0	518	497	
9	0	0	0	0	515	497	
10	0	0	0	0	515	498	
11	0	0	0	0	509	498	
12	0	0	0	0	507	499	
13	0	0	0	0	508	499	
14	0	0	0	0	506	500	
15	0	0	0	0	503	499	
0	0	0	0	0	500	498	
1	0	0	0	0	501	497	
2	0	0	0	0	507	495	
3	0	0	0	0	509	493	
4	0	0	0	0	508	493	
5	0	0	0	0	512	493	
6	0	0	0	0	512	492	
7	0	0	0	0	512	492	
8	0	0	0	0	509	492	
9	0	0	0	0	513	494	
10	0	0	0	0	515	496	
11	0	0	0	0	513	498	
12	0	0	0	0	511	499	
13	0	0	0	0	513	501	
14	0	0	0	0	518	499	
15	0	0	0	0	516	498	
0	0	0	0	0	515	497	
1	0	0	0	0	516	495	
2	0	0	0	0	512	493	
3	0	0	0	0	512	490	
4	0	0	0	0	513	489	
5	0	0	0	0	512	489	
6	0	0	0	0	512	494	
7	0	0	0	0	511	497	
8	0	0	0	0	515	500	
9	0	0	0	0	515	504	
10	0	0	0	0	515	507	
11	0	0	0	0	512	509	
12	0	0	0	0	511	512	
13	0	0	0	0	506	513	
14	0	0	0	0	504	515	
15	0	0	0	0	498	516	
0	0	0	0	0	498	519	
1	0	0	0	0	494	521	
2	0	0	0	0	490	524	
3	0	0	0	0	495	528	
4	0	0	0	0	497	531	
5	0	0	0	0	503	535	
6	0	0	0	0	503	537	
7	0	0	0	0	501	539	
8	0	0	0	0	499	543	
9	0	0	0	0	501	547	
10	0	0	0	0	501	551	
11	0	0	0	0	496	558	
12	0	0	0	0	495	559	
13	0	0	0	0	491	556	
14	0	0	0	0	492	553	
15	0	0	0	0	492	551	
0	0	0	0	0	494	549	
1	0	0	0	0	498	544	
2	0	0	0	0	498	538	
3	0	0	0	0	503	529	
4	0	0	0	0	508	522	
5	0	0	0	0	517	514	
6	0	0	0	0	525	507	
7	0	0	0	0	526	500	
8	0	0	0	0	528	493	
9	0	0	0	0	529	484	
10	0	0	0	0	533	477	
11	0	0	0	0	535	471	
12	0	0	0	0	533	467	
13	0	0	0	0	529	464	
14	0	0	0	0	527	461	
15	0	0	0	0	524	457	
0	0	0	0	0	516	455	
1	0	0	0	0	511	454	
2	0	0	0	0	510	455	
3	0	0	0	0	507	457	
4	0	0	0	0	503	460	
5	0	0	0	0	499	463	
6	0	0	0	0	500	468	
7	0	0	0	0	507	472	
8	0	0	0	0	509	477	
9	0	0	0	0	511	483	
10	0	0	0	0	518	485	
11	0	0	0	0	523	487	
12	0	0	0	0	519	489	
13	0	0	0	0	515	489	
14	0	0	0	0	514	490	
15	0	0	0	0	514	492	
0	0	0	0	0	511	496	
1	0	0	0	0	509	500	
2	0	0	0	0	505	501	
3	0	0	0	0	508	502	
4	0	0	0	0	509	501	
5	0	0	0	0	508	501	
6	0	0	0	0	514	503	
7	0	0	0	0	514	503	
8	0	0	0	0	516	505	
9	0	0	0	0	520	509	
10	0	0	0	0	519	512	
11	0	0	0	0	519	513	
12	0	0	0	0	521	512	
13	0	0	0	0	516	514	
14	0	0	0	0	512	517	
15	0	0	0	0	509	519	
0	0	0	0	0	503	519	
1	0	0	0	0	501	519	
2	0	0	0	0	503	518	
3	0	0	0	0	502	516	
4	0	0	0	0	502	513	
5	0	0	0	0	502	510	
6	0	0	0	0	501	506	
7	0	0	0	0	503	504	
8	0	0	0	0	506	502	
9	0	0	0	0	508	502	
10	0	0	0	0	510	502	
11	0	0	0	0	508	502	
12	0	0	0	0	509	502	
13	0	0	0	0	511	502	
14	0	0	0	0	505	502	
15	0	0	0	0	506	502	
0	0	0	0	0	503	501	
1	0	0	0	0	505	499	
2	0	0	0	0	506	497	
3	0	0	0	0	505	496	
4	0	0	0	0	504	497	
5	0	0	0	0	505	498	
6	0	0	0	0	509	499	
7	0	0	0	0	511	497	
8	0	0	0	0	515	497	
9	0	0	0	0	516	499	
10	0	0	0	0	514	500	
11	0	0	0	0	515	504	
12	0	0	0	0	518	505	
13	0	0	0	0	515	506	
14	0	0	0	0	514	508	
15	0	0	0	0	511	510	
0	0	0	0	0	509	512	
1	0	0	0	0	508	513	
2	0	0	0	0	506	513	
3	0	0	0	0	505	513	
4	0	0	0	0	504	512	
5	0	0	0	0	505	512	
6	0	0	0	0	499	512	
7	0	0	0	0	503	511	
8	0	0	0	0	506	511	
9	0	0	0	0	507	510	
10	0	0	0	0	513	508	
11	0	0	0	0	515	506	
12	0	0	0	0	516	506	
13	0	0	0	0	515	507	
14	0	0	0	0	515	509	
15	0	0	0	0	507	510	
0	0	0	0	0	508	512	
1	0	0	0	0	509	513	
2	0	0	0	0	502	514	
3	0	0	0	0	505	514	
4	0	0	0	0	507	515	
5	0	0	0	0	505	514	
6	0	0	0	0	504	513	
7	0	0	0	0	505	511	
8	0	0	0	0	509	509	
9	0	0	0	0	511	508	
10	0	0	0	0	507	508	
11	0	0	0	0	510	508	
12	0	0	0	0	512	508	
13	0	0	0	0	513	507	
14	0	0	0	0	513	509	
15	0	0	0	0	514	510	
0	0	0	0	0	515	511	
1	0	0	0	0	522	514	
2	0	0	0	0	515	515	
3	0	0	0	0	509	516	
4	0	0	0	0	505	516	
5	0	0	0	0	500	516	
6	0	0	0	0	500	516	
7	0	0	0	0	499	516	
8	0	0	0	0	503	516	
9	0	0	0	0	505	515	
10	0	0	0	0	506	514	
11	0	0	0	0	506	515	
12	0	0	0	0	508	517	
13	0	0	0	0	512	519	
14	0	0	0	0	513	519	
15	0	0	0	0	515	520	
0	0	0	0	0	518	522	
1	0	0	0	0	516	522	
2	0	0	0	0	516	524	
3	0	0	0	0	513	524	
4	0	0	0	0	508	523	
5	0	0	0	0	507	519	
6	0	0	0	0	507	516	
7	0	0	0	0	505	513	
8	0	0	0	0	503	508	
9	0	0	0	0	506	504	
10	0	0	0	0	512	502	
11	0	0	0	0	518	505	
12	0	0	0	0	518	512	
13	0	0	0	0	518	516	
14	0	0	0	0	517	520	
15	0	0	0	0	518	523	
0	0	0	0	0	515	525	
1	0	0	0	0	513	526	
2	0	0	0	0	512	526	
3	0	0	0	0	508	526	
4	0	0	0	0	506	526	
5	0	0	0	0	503	523	
6	0	0	0	0	495	522	
7	0	0	0	0	498	522	
8	0	0	0	0	501	522	
9	0	0	0	0	504	521	
10	0	0	0	0	509	522	
11	0	0	0	0	512	523	
12	0	0	0	0	511	525	
13	0	0	0	0	511	526	
14	0	0	0	0	517	527	
15	0	0	0	0	511	526	
0	0	0	0	0	508	526	
1	0	0	0	0	518	525	
2	0	0	0	0	513	526	
3	0	0	0	0	512	525	
4	0	0	0	0	507	524	
5	0	0	0	0	507	524	
6	0	0	0	0	508	521	
7	0	0	0	0	504	520	
8	0	0	0	0	506	521	
9	0	0	0	0	504	520	
10	0	0	0	0	503	521	
11	0	0	0	0	503	521	
12	0	0	0	0	508	523	
13	0	0	0	0	512	524	
14	0	0	0	0	515	525	
15	0	0	0	0	513	527	
0	0	0	0	0	514	528	
1	0	0	0	0	517	530	
2	0	0	0	0	516	530	
3	0	0	0	0	513	530	
4	0	0	0	0	509	531	
5	0	0	0	0	508	531	
6	0	0	0	0	506	531	
7	0	0	0	0	502	531	
8	0	0	0	0	504	532	
9	0	0	0	0	504	533	
10	0	0	0	0	505	531	
11	0	0	0	0	505	531	
12	0	0	0	0	508	531	
13	0	0	0	0	509	532	
14	0	0	0	0	511	535	
15	0	0	0	0	512	536	
0	0	0	0	0	513	537	
1	0	0	0	0	513	539	
2	0	0	0	0	515	540	
3	0	0	0	0	516	542	
4	0	0	0	0	511	542	
5	0	0	0	0	508	542	
6	0	0	0	0	508	543	
7	0	0	0	0	507	541	
8	0	0	0	0	501	541	
9	0	0	0	0	502	541	
10	0	0	0	0	501	540	
11	0	0	0	0	505	539	
12	0	0	0	0	504	539	
13	0	0	0	0	507	539	
14	0	0	0	0	510	539	
15	0	0	0	0	513	539	
0	0	0	0	0	513	539	
1	0	0	0	0	514	539	
2	0	0	0	0	515	540	
3	0	0	0	0	516	540	
4	0	0	0	0	513	541	
5	0	0	0	0	513	541	
6	0	0	0	0	508	542	
7	0	0	0	0	507	542	
8	0	0	0	0	507	540	
9	0	0	0	0	508	539	
10	0	0	0	0	508	539	
11	0	0	0	0	504	537	
12	0	0	0	0	505	536	
13	0	0	0	0	510	535	
14	0	0	0	0	512	535	
15	0	0	0	0	514	535	
0	0	0	0	0	515	534	
1	0	0	0	0	515	535	
2	0	0	0	0	514	536	
3	0	0	0	0	516	535	
4	0	0	0	0	514	536	
5	0	0	0	0	511	534	
6	0	0	0	0	512	532	
7	0	0	0	0	507	530	
8	0	0	0	0	506	528	
9	0	0	0	0	503	524	
10	0	0	0	0	506	522	
11	0	0	0	0	504	520	
12	0	0	0	0	500	519	
13	0	0	0	0	501	517	
14	0	0	0	0	509	514	
15	0	0	0	0	509	512	
0	0	0	0	0	508	512	
1	0	0	0	0	515	511	
2	0	0	0	0	515	511	
3	0	0	0	0	512	510	
4	0	0	0	0	515	509	
5	0	0	0	0	512	509	
6	0	0	0	0	510	507	
7	0	0	0	0	508	505	
8	0	0	0	0	504	503	
9	0	0	0	0	505	499	
10	0	0	0	0	504	497	
11	0	0	0	0	503	495	
12	0	0	0	0	500	493	
13	0	0	0	0	500	490	
14	0	0	0	0	503	488	
15	0	0	0	0	505	487	
0	0	0	0	0	509	486	
1	0	0	0	0	512	484	
2	0	0	0	0	516	485	
3	0	0	0	0	517	484	
4	0	0	0	0	518	484	
5	0	0	0	0	517	484	
6	0	0	0	0	516	485	
7	0	0	0	0	513	485	
8	0	0	0	0	509	485	
9	0	0	0	0	506	484	
10	0	0	0	0	504	482	
11	0	0	0	0	503	481	
12	0	0	0	0	505	481	
13	0	0	0	0	507	478	
14	0	0	0	0	507	476	
15	0	0	0	0	505	474	
0	0	0	0	0	513	473	
1	0	0	0	0	512	472	
2	0	0	0	0	514	472	
3	0	0	0	0	513	473	
4	0	0	0	0	512	473	
5	0	0	0	0	514	473	
6	0	0	0	0	515	475	
7	0	0	0	0	511	475	
8	0	0	0	0	506	476	
9	0	0	0	0	508	475	
10	0	0	0	0	506	475	
11	0	0	0	0	507	474	
12	0	0	0	0	504	472	
13	0	0	0	0	505	471	
14	0	0	0	0	503	468	
15	0	0	0	0	505	468	
0	0	0	0	0	508	468	
1	0	0	0	0	508	468	
2	0	0	0	0	511	469	
3	0	0	0	0	513	470	
4	0	0	0	0	513	471	
5	0	0	0	0	510	472	
6	0	0	0	0	512	473	
7	0	0	0	0	512	475	
8	0	0	0	0	511	476	
9	0	0	0	0	510	476	
10	0	0	0	0	506	476	
11	0	0	0	0	505	476	
12	0	0	0	0	502	475	
13	0	0	0	0	504	474	
14	0	0	0	0	505	474	
15	0	0	0	0	504	473	
0	0	0	0	0	507	474	
1	0	0	0	0	509	475	
2	0	0	0	0	513	475	
3	0	0	0	0	514	476	
4	0	0	0	0	515	476	
5	0	0	0	0	513	476	
6	0	0	0	0	515	477	
7	0	0	0	0	518	478	
8	0	0	0	0	516	479	
9	0	0	0	0	510	479	
10	0	0	0	0	509	479	
11	0	0	0	0	506	479	
12	0	0	0	0	508	478	
13	0	0	0	0	506	477	
14	0	0	0	0	502	479	
15	0	0	0	0	503	479	
0	0	0	0	0	505	478	
1	0	0	0	0	507	476	
2	0	0	0	0	510	476	
3	0	0	0	0	511	478	
4	0	0	0	0	512	479	
5	0	0	0	0	516	481	
6	0	0	0	0	515	482	
7	0	0	0	0	516	483	
8	0	0	0	0	516	484	
9	0	0	0	0	517	485	
10	0	0	0	0	511	486	
11	0	0	0	0	510	486	
12	0	0	0	0	509	486	
13	0	0	0	0	510	485	
14	0	0	0	0	508	484	
15	0	0	0	0	505	483	
0	0	0	0	0	502	482	
1	0	0	0	0	505	480	
2	0	0	0	0	507	480	
3	0	0	0	0	509	479	
4	0	0	0	0	517	480	
5	0	0	0	0	513	481	
6	0	0	0	0	513	483	
7	0	0	0	0	513	484	
8	0	0	0	0	515	485	
9	0	0	0	0	515	487	
10	0	0	0	0	513	490	
11	0	0	0	0	511	490	
12	0	0	0	0	506	489	
13	0	0	0	0	504	490	
14	0	0	0	0	503	492	
15	0	0	0	0	507	492	
0	0	0	0	0	503	492	
1	0	0	0	0	503	490	
2	0	0	0	0	506	488	
3	0	0	0	0	509	486	
4	0	0	0	0	511	487	
5	0	0	0	0	512	488	
6	0	0	0	0	513	489	
7	0	0	0	0	513	491	
8	0	0	0	0	513	492	
9	0	0	0	0	513	494	
10	0	0	0	0	512	496	
11	0	0	0	0	513	498	
12	0	0	0	0	509	498	
13	0	0	0	0	506	500	
14	0	0	0	0	506	501	
15	0	0	0	0	504	500	
0	0	0	0	0	508	500	
1	0	0	0	0	505	498	
2	0	0	0	0	508	496	
3	0	0	0	0	511	494	
4	0	0	0	0	511	493	
5	0	0	0	0	515	492	
6	0	0	0	0	514	492	
7	0	0	0	0	515	492	
8	0	0	0	0	512	493	
9	0	0	0	0	515	495	
10	0	0	0	0	516	496	
11	0	0	0	0	513	497	
12	0	0	0	0	511	497	
13	0	0	0	0	509	498	
14	0	0	0	0	510	498	
15	0	0	0	0	505	497	
0	0	0	0	0	505	496	
1	0	0	0	0	504	495	
2	0	0	0	0	505	494	
3	0	0	0	0	504	492	
4	0	0	0	0	508	492	
5	0	0	0	0	512	492	
6	0	0	0	0	512	492	
7	0	0	0	0	512	493	
8	0	0	0	0	510	495	
9	0	0	0	0	510	497	
10	0	0	0	0	512	498	
11	0	0	0	0	514	500	
12	0	0	0	0	512	501	
13	0	0	0	0	508	502	
14	0	0	0	0	507	503	
15	0	0	0	0	504	503	
0	0	0	0	0	503	501	
1	0	0	0	0	505	500	
2	0	0	0	0	508	500	
3	0	0	0	0	505	499	
4	0	0	0	0	506	499	
5	0	0	0	0	510	497	
6	0	0	0	0	510	497	
7	0	0	0	0	513	498	
8	0	0	0	0	513	498	
9	0	0	0	0	515	498	
10	0	0	0	0	513	499	
11	0	0	0	0	515	500	
12	0	0	0	0	515	503	
13	0	0	0	0	514	504	
14	0	0	0	0	511	504	
15	0	0	0	0	508	504	
0	0	0	0	0	504	504	
1	0	0	0	0	507	503	
2	0	0	0	0	506	502	
3	0	0	0	0	504	502	
4	0	0	0	0	502	501	
5	0	0	0	0	503	499	
6	0	0	0	0	505	499	
7	0	0	0	0	510	499	
8	0	0	0	0	512	499	
9	0	0	0	0	512	501	
10	0	0	0	0	515	502	
11	0	0	0	0	516	503	
12	0	0	0	0	516	504	
13	0	0	0	0	516	506	
14	0	0	0	0	511	508	
15	0	0	0	0	508	508	
0	0	0	0	0	507	507	
1	0	0	0	0	503	507	
2	0	0	0	0	505	508	
3	0	0	0	0	507	508	
4	0	0	0	0	505	506	
5	0	0	0	0	508	505	
6	0	0	0	0	509	504	
7	0	0	0	0	511	503	
8	0	0	0	0	511	503	
9	0	0	0	0	512	503	
10	0	0	0	0	513	504	
11	0	0	0	0	511	504	
12	0	0	0	0	511	505	
13	0	0	0	0	514	508	
14	0	0	0	0	512	508	
15	0	0	0	0	511	508	
0	0	0	0	0	507	508	
1	0	0	0	0	507	507	
2	0	0	0	0	506	506	
3	0	0	0	0	505	505	
4	0	0	0	0	506	504	
5	0	0	0	0	502	504	
6	0	0	0	0	505	504	
7	0	0	0	0	509	504	
8	0	0	0	0	508	505	
9	0	0	0	0	511	505	
10	0	0	0	0	515	506	
11	0	0	0	0	515	507	
12	0	0	0	0	518	507	
13	0	0	0	0	515	508	
14	0	0	0	0	518	510	
15	0	0	0	0	512	510	
0	0	0	0	0	511	509	
1	0	0	0	0	507	509	
2	0	0	0	0	507	508	
3	0	0	0	0	506	507	
4	0	0	0	0	504	505	
5	0	0	0	0	501	503	
6	0	0	0	0	502	502	
7	0	0	0	0	507	501	
8	0	0	0	0	507	499	
9	0	0	0	0	511	499	
10	0	0	0	0	515	499	
11	0	0	0	0	514	501	
12	0	0	0	0	514	502	
13	0	0	0	0	515	504	
14	0	0	0	0	518	505	
15	0	0	0	0	513	507	
0	0	0	0	0	510	507	
1	0	0	0	0	512	507	
2	0	0	0	0	507	506	
3	0	0	0	0	504	506	
4	0	0	0	0	505	505	
5	0	0	0	0	506	505	
6	0	0	0	0	504	504	
7	0	0	0	0	506	504	
8	0	0	0	0	509	504	
9	0	0	0	0	507	503	
10	0	0	0	0	507	504	
11	0	0	0	0	513	505	
12	0	0	0	0	511	506	
13	0	0	0	0	512	507	
14	0	0	0	0	511	508	
15	0	0	0	0	515	509	
0	0	0	0	0	512	510	
1	0	0	0	0	510	511	
2	0	0	0	0	505	511	
3	0	0	0	0	505	510	
4	0	0	0	0	502	509	
5	0	0	0	0	505	506	
6	0	0	0	0	505	504	
7	0	0	0	0	505	502	
8	0	0	0	0	505	500	
9	0	0	0	0	508	499	
10	0	0	0	0	512	497	
11	0	0	0	0	512	496	
12	0	0	0	0	516	496	
13	0	0	0	0	515	497	
14	0	0	0	0	513	500	
15	0	0	0	0	516	501	
0	0	0	0	0	513	502	
1	0	0	0	0	511	502	
2	0	0	0	0	506	503	
3	0	0	0	0	507	505	
4	0	0	0	0	504	504	
5	0	0	0	0	504	504	
6	0	0	0	0	504	504	
7	0	0	0	0	502	504	
8	0	0	0	0	504	502	
9	0	0	0	0	508	501	
10	0	0	0	0	510	503	
11	0	0	0	0	510	503	
12	0	0	0	0	511	504	
13	0	0	0	0	513	505	
14	0	0	0	0	515	505	
15	0	0	0	0	520	505	
0	0	0	0	0	526	507	
1	0	0	0	0	518	508	
2	0	0	0	0	514	508	
3	0	0	0	0	511	508	
4	0	0	0	0	507	507	
5	0	0	0	0	506	505	
6	0	0	0	0	503	503	
7	0	0	0	0	502	502	
8	0	0	0	0	498	501	
9	0	0	0	0	501	501	
10	0	0	0	0	503	503	
11	0	0	0	0	510	504	
12	0	0	0	0	511	503	
13	0	0	0	0	512	502	
14	0	0	0	0	514	502	
15	0	0	0	0	511	503	
0	0	0	0	0	512	504	
1	0	0	0	0	511	507	
2	0	0	0	0	511	509	
3	0	0	0	0	508	509	
4	0	0	0	0	505	510	
5	0	0	0	0	503	509	
6	0	0	0	0	502	508	
7	0	0	0	0	501	508	
8	0	0	0	0	505	507	
9	0	0	0	0	504	507	
10	0	0	0	0	508	505	
11	0	0	0	0	508	504	
12	0	0	0	0	510	504	
13	0	0	0	0	514	506	
14	0	0	0	0	516	510	
15	0	0	0	0	514	512	
0	0	0	0	0	515	516	
1	0	0	0	0	515	518	
2	0	0	0	0	515	519	
3	0	0	0	0	511	519	
4	0	0	0	0	508	520	
5	0	0	0	0	508	519	
6	0	0	0	0	508	519	
7	0	0	0	0	505	518	
8	0	0	0	0	504	518	
9	0	0	0	0	503	517	
10	0	0	0	0	507	515	
11	0	0	0	0	511	513	
12	0	0	0	0	511	514	
13	0	0	0	0	513	514	
14	0	0	0	0	511	513	
15	0	0	0	0	513	514	
0	0	0	0	0	513	515	
1	0	0	0	0	513	518	
2	0	0	0	0	512	519	
3	0	0	0	0	512	519	
4	0	0	0	0	509	520	
5	0	0	0	0	511	519	
6	0	0	0	0	507	519	
7	0	0	0	0	506	518	
8	0	0	0	0	506	517	
9	0	0	0	0	504	517	
10	0	0	0	0	505	515	
11	0	0	0	0	509	514	
12	0	0	0	0	508	513	
13	0	0	0	0	508	511	
14	0	0	0	0	509	510	
15	0	0	0	0	511	511	
0	0	0	0	0	515	512	
1	0	0	0	0	515	513	
2	0	0	0	0	516	514	
3	0	0	0	0	513	516	
4	0	0	0	0	511	516	
5	0	0	0	0	509	515	
6	0	0	0	0	507	514	
7	0	0	0	0	504	514	
8	0	0	0	0	506	513	
9	0	0	0	0	500	511	
10	0	0	0	0	508	510	
11	0	0	0	0	503	508	
12	0	0	0	0	509	506	
13	0	0	0	0	512	505	
14	0	0	0	0	509	504	
15	0	0	0	0	512	505	
0	0	0	0	0	515	506	
1	0	0	0	0	511	507	
2	0	0	0	0	513	509	
3	0	0	0	0	513	510	
4	0	0	0	0	514	511	
5	0	0	0	0	513	511	
6	0	0	0	0	511	510	
7	0	0	0	0	508	510	
8	0	0	0	0	505	510	
9	0	0	0	0	501	510	
10	0	0	0	0	505	510	
11	0	0	0	0	504	509	
12	0	0	0	0	502	507	
13	0	0	0	0	507	506	
14	0	0	0	0	512	505	
15	0	0	0	0	512	504	
0	0	0	0	0	513	505	
1	0	0	0	0	518	505	
2	0	0	0	0	514	505	
3	0	0	0	0	518	504	
4	0	0	0	0	518	506	
5	0	0	0	0	514	507	
6	0	0	0	0	509	508	
7	0	0	0	0	508	509	
8	0	0	0	0	509	508	
9	0	0	0	0	506	507	
10	0	0	0	0	502	505	
11	0	0	0	0	504	504	
12	0	0	0	0	502	503	
13	0	0	0	0	506	501	
14	0	0	0	0	508	499	
15	0	0	0	0	509	497	
0	0	0	0	0	511	496	
1	0	0	0	0	510	498	
2	0	0	0	0	511	499	
3	0	0	0	0	512	499	
4	0	0	0	0	513	500	
5	0	0	0	0	515	504	
6	0	0	0	0	513	505	
7	0	0	0	0	512	508	
8	0	0	0	0	515	509	
9	0	0	0	0	513	509	
10	0	0	0	0	511	509	
11	0	0	0	0	508	507	
12	0	0	0	0	510	505	
13	0	0	0	0	505	504	
14	0	0	0	0	508	503	
15	0	0	0	0	512	501	
0	0	0	0	0	517	498	
1	0	0	0	0	517	496	
2	0	0	0	0	518	494	
3	0	0	0	0	519	493	
4	0	0	0	0	516	493	
5	0	0	0	0	514	494	
6	0	0	0	0	516	496	
7	0	0	0	0	513	499	
8	0	0	0	0	511	504	
9	0	0	0	0	511	507	
10	0	0	0	0	509	508	
11	0	0	0	0	506	509	
12	0	0	0	0	504	511	
13	0	0	0	0	506	513	
14	0	0	0	0	505	514	
15	0	0	0	0	501	515	
0	0	0	0	0	498	518	
1	0	0	0	0	501	521	
2	0	0	0	0	501	524	
3	0	0	0	0	502	528	
4	0	0	0	0	503	532	
5	0	0	0	0	502	537	
6	0	0	0	0	505	539	
7	0	0	0	0	505	543	
8	0	0	0	0	500	547	
9	0	0	0	0	497	550	
10	0	0	0	0	496	552	
11	0	0	0	0	492	553	
12	0	0	0	0	487	554	
13	0	0	0	0	489	554	
14	0	0	0	0	488	552	
15	0	0	0	0	489	550	
0	0	0	0	0	496	548	
1	0	0	0	0	501	546	
2	0	0	0	0	506	544	
3	0	0	0	0	502	542	
4	0	0	0	0	507	540	
5	0	0	0	0	515	536	
6	0	0	0	0	521	533	
7	0	0	0	0	525	528	
8	0	0	0	0	524	521	
9	0	0	0	0	524	515	
10	0	0	0	0	526	507	
11	0	0	0	0	523	497	
12	0	0	0	0	522	488	
13	0	0	0	0	523	479	
14	0	0	0	0	521	472	
15	0	0	0	0	522	467	
0	0	0	0	0	519	465	
1	0	0	0	0	517	466	
2	0	0	0	0	522	465	
3	0	0	0	0	518	467	
4	0	0	0	0	516	470	
5	0	0	0	0	513	472	
6	0	0	0	0	508	473	
7	0	0	0	0	506	476	
8	0	0	0	0	510	480	
9	0	0	0	0	506	483	
10	0	0	0	0	510	484	
11	0	0	0	0	511	488	
12	0	0	0	0	511	491	
13	0	0	0	0	512	491	
14	0	0	0	0	510	494	
15	0	0	0	0	508	495	
0	0	0	0	0	506	496	
1	0	0	0	0	504	497	
2	0	0	0	0	512	499	
3	0	0	0	0	511	500	
4	0	0	0	0	511	501	
5	0	0	0	0	510	502	
6	0	0	0	0	510	504	
7	0	0	0	0	515	505	
8	0	0	0	0	516	505	
9	0	0	0	0	515	506	
10	0	0	0	0	514	507	
11	0	0	0	0	515	508	
12	0	0	0	0	513	509	
13	0	0	0	0	516	508	
14	0	0	0	0	513	509	
15	0	0	0	0	510	509	
0	0	0	0	0	512	507	
1	0	0	0	0	510	507	
2	0	0	0	0	513	506	
3	0	0	0	0	514	505	
4	0	0	0	0	511	506	
5	0	0	0	0	512	507	
6	0	0	0	0	514	507	
7	0	0	0	0	509	508	
8	0	0	0	0	514	510	
9	0	0	0	0	509	513	
10	0	0	0	0	509	513	
11	0	0	0	0	508	514	
12	0	0	0	0	506	515	
13	0	0	0	0	506	515	
14	0	0	0	0	503	515	
15	0	0	0	0	503	515	
0	0	0	0	0	502	515	
1	0	0	0	0	498	514	
2	0	0	0	0	502	513	
3	0	0	0	0	504	513	
4	0	0	0	0	507	516	
5	0	0	0	0	510	517	
6	0	0	0	0	514	517	
7	0	0	0	0	511	517	
8	0	0	0	0	508	518	
9	0	0	0	0	512	519	
10	0	0	0	0	514	521	
11	0	0	0	0	511	523	
12	0	0	0	0	511	524	
13	0	0	0	0	509	524	
14	0	0	0	0	506	523	
15	0	0	0	0	505	523	
0	0	0	0	0	504	521	
1	0	0	0	0	502	519	
2	0	0	0	0	504	518	
3	0	0	0	0	504	519	
4	0	0	0	0	510	518	
5	0	0	0	0	512	517	
6	0	0	0	0	513	516	
7	0	0	0	0	516	516	
8	0	0	0	0	515	517	
9	0	0	0	0	513	520	
10	0	0	0	0	513	523	
11	0	0	0	0	518	523	
12	0	0	0	0	512	522	
13	0	0	0	0	513	521	
14	0	0	0	0	511	520	
15	0	0	0	0	508	519	
0	0	0	0	0	502	518	
1	0	0	0	0	503	518	
2	0	0	0	0	503	516	
3	0	0	0	0	502	515	
4	0	0	0	0	509	513	
5	0	0	0	0	507	512	
6	0	0	0	0	510	512	
7	0	0	0	0	510	513	
8	0	0	0	0	509	515	
9	0	0	0	0	512	516	
10	0	0	0	0	509	518	
11	0	0	0	0	512	521	
12	0	0	0	0	515	521	
13	0	0	0	0	510	522	
14	0	0	0	0	509	522	
15	0	0	0	0	508	521	
0	0	0	0	0	505	521	
1	0	0	0	0	505	521	
2	0	0	0	0	505	521	
3	0	0	0	0	508	520	
4	0	0	0	0	507	517	
5	0	0	0	0	506	516	
6	0	0	0	0	511	516	
7	0	0	0	0	511	517	
8	0	0	0	0	513	518	
9	0	0	0	0	512	520	
10	0	0	0	0	511	522	
11	0	0	0	0	515	524	
12	0	0	0	0	515	526	
13	0	0	0	0	512	526	
14	0	0	0	0	510	527	
15	0	0	0	0	509	527	
0	0	0	0	0	504	528	
1	0	0	0	0	505	528	
2	0	0	0	0	505	527	
3	0	0	0	0	504	525	
4	0	0	0	0	501	523	
5	0	0	0	0	504	522	
6	0	0	0	0	508	521	
7	0	0	0	0	510	519	
8	0	0	0	0	511	519	
9	0	0	0	0	512	522	
10	0	0	0	0	512	524	
11	0	0	0	0	512	524	
12	0	0	0	0	514	526	
13	0	0	0	0	517	526	
14	0	0	0	0	517	529	
15	0	0	0	0	510	531	
0	0	0	0	0	512	531	
1	0	0	0	0	510	531	
2	0	0	0	0	508	531	
3	0	0	0	0	507	530	
4	0	0	0	0	506	528	
5	0	0	0	0	503	526	
6	0	0	0	0	504	526	
7	0	0	0	0	506	525	
8	0	0	0	0	509	524	
9	0	0	0	0	512	524	
10	0	0	0	0	515	525	
11	0	0	0	0	515	528	
12	0	0	0	0	517	531	
13	0	0	0	0	514	534	
14	0	0	0	0	515	535	
15	0	0	0	0	514	536	
0	0	0	0	0	510	536	
1	0	0	0	0	508	536	
2	0	0	0	0	507	532	
3	0	0	0	0	504	530	
4	0	0	0	0	504	529	
5	0	0	0	0	504	528	
6	0	0	0	0	506	527	
7	0	0	0	0	508	529	
8	0	0	0	0	508	530	
9	0	0	0	0	511	532	
10	0	0	0	0	513	533	
11	0	0	0	0	512	535	
12	0	0	0	0	512	536	
13	0	0	0	0	512	538	
14	0	0	0	0	514	540	
15	0	0	0	0	514	542	
0	0	0	0	0	512	542	
1	0	0	0	0	512	542	
2	0	0	0	0	510	542	
3	0	0	0	0	508	541	
4	0	0	0	0	504	539	
5	0	0	0	0	507	537	
6	0	0	0	0	504	536	
7	0	0	0	0	505	535	
8	0	0	0	0	506	534	
9	0	0	0	0	509	534	
10	0	0	0	0	509	536	
11	0	0	0	0	511	536	
12	0	0	0	0	513	536	
13	0	0	0	0	512	539	
14	0	0	0	0	516	543	
15	0	0	0	0	516	547	
0	0	0	0	0	514	550	
1	0	0	0	0	512	550	
2	0	0	0	0	511	550	
3	0	0	0	0	509	550	
4	0	0	0	0	503	548	
5	0	0	0	0	503	548	
6	0	0	0	0	503	547	
7	0	0	0	0	503	546	
8	0	0	0	0	505	545	
9	0	0	0	0	508	543	
10	0	0	0	0	508	543	
11	0	0	0	0	514	543	
12	0	0	0	0	516	545	
13	0	0	0	0	514	546	
14	0	0	0	0	517	547	
15	0	0	0	0	514	547	
0	0	0	0	0	515	549	
1	0	0	0	0	513	551	
2	0	0	0	0	509	551	
3	0	0	0	0	506	551	
4	0	0	0	0	505	551	
5	0	0	0	0	503	550	
6	0	0	0	0	503	548	
7	0	0	0	0	500	547	
8	0	0	0	0	504	545	
9	0	0	0	0	508	545	
10	0	0	0	0	507	544	
11	0	0	0	0	509	543	
12	0	0	0	0	508	543	
13	0	0	0	0	515	543	
14	0	0	0	0	517	544	
15	0	0	0	0	514	545	
0	0	0	0	0	519	545	
1	0	0	0	0	516	547	
2	0	0	0	0	510	547	
3	0	0	0	0	511	546	
4	0	0	0	0	506	543	
5	0	0	0	0	502	541	
6	0	0	0	0	506	540	
7	0	0	0	0	504	538	
8	0	0	0	0	504	536	
9	0	0	0	0	504	532	
10	0	0	0	0	505	529	
11	0	0	0	0	507	528	
12	0	0	0	0	508	527	
13	0	0	0	0	512	525	
14	0	0	0	0	514	524	
15	0	0	0	0	514	524	
0	0	0	0	0	517	524	
1	0	0	0	0	519	523	
2	0	0	0	0	519	523	
3	0	0	0	0	516	521	
4	0	0	0	0	511	519	
5	0	0	0	0	510	518	
6	0	0	0	0	507	515	
7	0	0	0	0	503	514	
8	0	0	0	0	503	512	
9	0	0	0	0	500	510	
10	0	0	0	0	498	508	
11	0	0	0	0	502	507	
12	0	0	0	0	504	505	
13	0	0	0	0	510	504	
14	0	0	0	0	511	504	
15	0	0	0	0	511	505	
0	0	0	0	0	517	507	
1	0	0	0	0	518	508	
2	0	0	0	0	518	507	
3	0	0	0	0	513	506	
4	0	0	0	0	511	504	
5	0	0	0	0	510	503	
6	0	0	0	0	505	503	
7	0	0	0	0	503	502	
8	0	0	0	0	505	499	
9	0	0	0	0	502	496	
10	0	0	0	0	502	494	
11	0	0	0	0	501	492	
12	0	0	0	0	505	490	
13	0	0	0	0	508	489	
14	0	0	0	0	508	488	
15	0	0	0	0	510	489	
0	0	0	0	0	514	488	
1	0	0	0	0	515	488	
2	0	0	0	0	518	490	
3	0	0	0	0	516	492	
4	0	0	0	0	515	492	
5	0	0	0	0	511	493	
6	0	0	0	0	504	492	
7	0	0	0	0	507	491	
8	0	0	0	0	504	489	
9	0	0	0	0	503	487	
10	0	0	0	0	501	485	
11	0	0	0	0	504	483	
12	0	0	0	0	504	480	
13	0	0	0	0	509	479	
14	0	0	0	0	512	479	
15	0	0	0	0	512	479	
0	0	0	0	0	515	480	
1	0	0	0	0	516	481	
2	0	0	0	0	517	483	
3	0	0	0	0	517	486	
4	0	0	0	0	514	488	
5	0	0	0	0	514	489	
6	0	0	0	0	511	489	
7	0	0	0	0	505	489	
8	0	0	0	0	505	488	
9	0	0	0	0	505	488	
10	0	0	0	0	505	487	
11	0	0	0	0	504	485	
12	0	0	0	0	505	483	
13	0	0	0	0	507	481	
14	0	0	0	0	508	480	
15	0	0	0	0	509	480	
0	0	0	0	0	510	480	
1	0	0	0	0	514	482	
2	0	0	0	0	513	483	
3	0	0	0	0	515	486	
4	0	0	0	0	514	487	
5	0	0	0	0	511	489	
6	0	0	0	0	512	490	
7	0	0	0	0	507	491	
8	0	0	0	0	507	492	
9	0	0	0	0	509	492	
10	0	0	0	0	502	492	
11	0	0	0	0	504	492	
12	0	0	0	0	503	491	
13	0	0	0	0	506	489	
14	0	0	0	0	509	487	
15	0	0	0	0	510	487	
0	0	0	0	0	512	487	
1	0	0	0	0	511	488	
2	0	0	0	0	512	489	
3	0	0	0	0	515	491	
4	0	0	0	0	517	495	
5	0	0	0	0	518	497	
6	0	0	0	0	516	497	
7	0	0	0	0	512	498	
8	0	0	0	0	511	497	
9	0	0	0	0	503	497	
10	0	0	0	0	504	497	
11	0	0	0	0	502	496	
12	0	0	0	0	500	495	
13	0	0	0	0	503	493	
14	0	0	0	0	504	492	
15	0	0	0	0	506	492	
0	0	0	0	0	507	493	
1	0	0	0	0	512	495	
2	0	0	0	0	511	496	
3	0	0	0	0	514	498	
4	0	0	0	0	516	500	
5	0	0	0	0	519	503	
6	0	0	0	0	517	504	
7	0	0	0	0	514	506	
8	0	0	0	0	512	507	
9	0	0	0	0	508	506	
10	0	0	0	0	506	504	
11	0	0	0	0	506	500	
12	0	0	0	0	503	496	
13	0	0	0	0	500	493	
14	0	0	0	0	505	491	
15	0	0	0	0	505	490	
0	0	0	0	0	506	489	
1	0	0	0	0	509	489	
2	0	0	0	0	513	491	
3	0	0	0	0	513	493	
4	0	0	0	0	517	495	
5	0	0	0	0	519	497	
6	0	0	0	0	518	498	
7	0	0	0	0	515	500	
8	0	0	0	0	514	500	
9	0	0	0	0	512	501	
10	0	0	0	0	510	500	
11	0	0	0	0	505	499	
12	0	0	0	0	502	499	
13	0	0	0	0	502	497	
14	0	0	0	0	500	494	
15	0	0	0	0	504	493	
0	0	0	0	0	505	492	
1	0	0	0	0	505	491	
2	0	0	0	0	511	492	
3	0	0	0	0	510	495	
4	0	0	0	0	514	497	
5	0	0	0	0	517	499	
6	0	0	0	0	520	501	
7	0	0	0	0	518	503	
8	0	0	0	0	514	503	
9	0	0	0	0	512	504	
10	0	0	0	0	508	504	
11	0	0	0	0	504	504	
12	0	0	0	0	501	504	
13	0	0	0	0	501	502	
14	0	0	0	0	502	499	
15	0	0	0	0	504	498	
0	0	0	0	0	505	499	
1	0	0	0	0	507	498	
2	0	0	0	0	511	498	
3	0	0	0	0	511	499	
4	0	0	0	0	513	499	
5	0	0	0	0	512	500	
6	0	0	0	0	516	503	
7	0	0	0	0	518	505	
8	0	0	0	0	514	505	
9	0	0	0	0	513	507	
10	0	0	0	0	511	508	
11	0	0	0	0	507	508	
12	0	0	0	0	503	507	
13	0	0	0	0	503	505	
14	0	0	0	0	504	504	
15	0	0	0	0	503	501	
0	0	0	0	0	503	498	
1	0	0	0	0	505	497	
2	0	0	0	0	509	498	
3	0	0	0	0	511	498	
4	0	0	0	0	511	497	
5	0	0	0	0	514	497	
6	0	0	0	0	514	498	
7	0	0	0	0	516	501	
8	0	0	0	0	516	503	
9	0	0	0	0	515	505	
10	0	0	0	0	516	506	
11	0	0	0	0	511	506	
12	0	0	0	0	509	504	
13	0	0	0	0	505	501	
14	0	0	0	0	504	499	
15	0	0	0	0	503	496	
0	0	0	0	0	501	495	
1	0	0	0	0	503	495	
2	0	0	0	0	504	496	
3	0	0	0	0	507	496	
4	0	0	0	0	510	496	
5	0	0	0	0	511	496	
6	0	0	0	0	510	498	
7	0	0	0	0	513	500	
8	0	0	0	0	516	503	
9	0	0	0	0	519	504	
10	0	0	0	0	515	504	
11	0	0	0	0	514	505	
12	0	0	0	0	510	504	
13	0	0	0	0	509	503	
14	0	0	0	0	504	501	
15	0	0	0	0	502	500	
0	0	0	0	0	502	499	
1	0	0	0	0	501	498	
2	0	0	0	0	504	496	
3	0	0	0	0	507	496	
4	0	0	0	0	508	496	
5	0	0	0	0	510	496	
6	0	0	0	0	511	496	
7	0	0	0	0	512	497	
8	0	0	0	0	516	499	
9	0	0	0	0	518	501	
10	0	0	0	0	516	504	
11	0	0	0	0	515	504	
12	0	0	0	0	512	504	
13	0	0	0	0	510	503	
14	0	0	0	0	505	501	
15	0	0	0	0	502	499	
0	0	0	0	0	505	498	
1	0	0	0	0	501	496	
2	0	0	0	0	502	494	
3	0	0	0	0	506	494	
4	0	0	0	0	508	493	
5	0	0	0	0	509	493	
6	0	0	0	0	513	494	
7	0	0	0	0	515	494	
8	0	0	0	0	513	494	
9	0	0	0	0	516	495	
10	0	0	0	0	519	498	
11	0	0	0	0	515	501	
12	0	0	0	0	515	502	
13	0	0	0	0	508	503	
14	0	0	0	0	505	504	
15	0	0	0	0	504	502	
0	0	0	0	0	503	500	
1	0	0	0	0	500	499	
2	0	0	0	0	501	498	
3	0	0	0	0	503	497	
4	0	0	0	0	506	496	
5	0	0	0	0	507	496	
6	0	0	0	0	510	497	
7	0	0	0	0	513	497	
8	0	0	0	0	513	499	
9	0	0	0	0	515	499	
10	0	0	0	0	517	501	
11	0	0	0	0	515	503	
12	0	0	0	0	516	504	
13	0	0	0	0	512	505	
14	0	0	0	0	508	504	
15	0	0	0	0	504	504	
0	0	0	0	0	504	503	
1	0	0	0	0	504	502	
2	0	0	0	0	504	500	
3	0	0	0	0	504	498	
4	0	0	0	0	506	496	
5	0	0	0	0	507	495	
6	0	0	0	0	510	495	
7	0	0	0	0	514	496	
8	0	0	0	0	515	496	
9	0	0	0	0	516	498	
10	0	0	0	0	521	499	
11	0	0	0	0	519	502	
12	0	0	0	0	518	504	
13	0	0	0	0	518	505	
14	0	0	0	0	516	505	
15	0	0	0	0	511	503	
0	0	0	0	0	510	501	
1	0	0	0	0	508	501	
2	0	0	0	0	504	498	
3	0	0	0	0	499	495	
4	0	0	0	0	499	496	
5	0	0	0	0	503	496	
6	0	0	0	0	506	496	
7	0	0	0	0	510	495	
8	0	0	0	0	512	495	
9	0	0	0	0	513	495	
10	0	0	0	0	511	495	
11	0	0	0	0	513	497	
12	0	0	0	0	512	500	
13	0	0	0	0	512	502	
14	0	0	0	0	512	502	
15	0	0	0	0	508	502	
0	0	0	0	0	504	503	
1	0	0	0	0	504	503	
2	0	0	0	0	502	503	
3	0	0	0	0	502	503	
4	0	0	0	0	503	501	
5	0	0	0	0	503	500	
6	0	0	0	0	503	500	
7	0	0	0	0	509	501	
8	0	0	0	0	512	503	
9	0	0	0	0	516	504	
10	0	0	0	0	518	504	
11	0	0	0	0	519	506	
12	0	0	0	0	518	509	
13	0	0	0	0	518	512	
14	0	0	0	0	513	513	
15	0	0	0	0	508	515	
0	0	0	0	0	507	515	
1	0	0	0	0	502	515	
2	0	0	0	0	505	513	
3	0	0	0	0	504	511	
4	0	0	0	0	504	509	
5	0	0	0	0	506	507	
6	0	0	0	0	505	505	
7	0	0	0	0	508	505	
8	0	0	0	0	510	503	
9	0	0	0	0	508	504	
10	0	0	0	0	512	506	
11	0	0	0	0	511	509	
12	0	0	0	0	515	512	
13	0	0	0	0	516	512	
14	0	0	0	0	519	514	
15	0	0	0	0	512	515	
0	0	0	0	0	510	515	
1	0	0	0	0	507	515	
2	0	0	0	0	506	513	
3	0	0	0	0	503	511	
4	0	0	0	0	505	508	
5	0	0	0	0	503	507	
6	0	0	0	0	503	503	
7	0	0	0	0	506	501	
8	0	0	0	0	509	500	
9	0	0	0	0	511	500	
10	0	0	0	0	512	501	
11	0	0	0	0	513	501	
12	0	0	0	0	514	501	
13	0	0	0	0	518	503	
14	0	0	0	0	517	504	
15	0	0	0	0	514	505	
0	0	0	0	0	513	507	
1	0	0	0	0	510	507	
2	0	0	0	0	507	508	
3	0	0	0	0	502	507	
4	0	0	0	0	502	507	
5	0	0	0	0	503	505	
6	0	0	0	0	503	502	
7	0	0	0	0	505	499	
8	0	0	0	0	510	498	
9	0	0	0	0	512	497	
10	0	0	0	0	515	497	
11	0	0	0	0	515	498	
12	0	0	0	0	515	499	
13	0	0	0	0	513	500	
14	0	0	0	0	516	502	
15	0	0	0	0	517	504	
0	0	0	0	0	514	505	
1	0	0	0	0	511	504	
2	0	0	0	0	510	504	
3	0	0	0	0	506	503	
4	0	0	0	0	504	501	
5	0	0	0	0	502	498	
6	0	0	0	0	501	496	
7	0	0	0	0	503	494	
8	0	0	0	0	503	493	
9	0	0	0	0	507	494	
10	0	0	0	0	505	496	
11	0	0	0	0	513	496	
12	0	0	0	0	511	496	
13	0	0	0	0	514	495	
14	0	0	0	0	517	496	
15	0	0	0	0	519	497	
0	0	0	0	0	520	499	
1	0	0	0	0	516	499	
2	0	0	0	0	511	500	
3	0	0	0	0	507	501	
4	0	0	0	0	505	501	
5	0	0	0	0	503	500	
6	0	0	0	0	501	498	
7	0	0	0	0	500	495	
8	0	0	0	0	502	494	
9	0	0	0	0	504	492	
10	0	0	0	0	506	492	
11	0	0	0	0	510	492	
12	0	0	0	0	511	493	
13	0	0	0	0	513	494	
14	0	0	0	0	516	495	
15	0	0	0	0	517	497	
0	0	0	0	0	519	499	
1	0	0	0	0	516	498	
2	0	0	0	0	514	499	
3	0	0	0	0	511	500	
4	0	0	0	0	509	501	
5	0	0	0	0	507	499	
6	0	0	0	0	505	498	
7	0	0	0	0	503	496	
8	0	0	0	0	504	494	
9	0	0	0	0	509	492	
10	0	0	0	0	512	491	
11	0	0	0	0	516	488	
12	0	0	0	0	519	487	
13	0	0	0	0	520	486	
14	0	0	0	0	519	486	
15	0	0	0	0	519	486	
0	0	0	0	0	521	487	
1	0	0	0	0	518	489	
2	0	0	0	0	516	492	
3	0	0	0	0	514	495	
4	0	0	0	0	515	496	
5	0	0	0	0	511	498	
6	0	0	0	0	509	497	
7	0	0	0	0	505	497	
8	0	0	0	0	503	498	
9	0	0	0	0	499	498	
10	0	0	0	0	499	498	
11	0	0	0	0	498	501	
12	0	0	0	0	496	504	
13	0	0	0	0	499	508	
14	0	0	0	0	499	513	
15	0	0	0	0	499	518	
0	0	0	0	0	504	522	
1	0	0	0	0	505	526	
2	0	0	0	0	502	532	
3	0	0	0	0	498	537	
4	0	0	0	0	497	542	
5	0	0	0	0	491	544	
6	0	0	0	0	489	546	
7	0	0	0	0	486	548	
8	0	0	0	0	487	546	
9	0	0	0	0	484	543	
10	0	0	0	0	485	542	
11	0	0	0	0	491	542	
12	0	0	0	0	497	540	
13	0	0	0	0	503	539	
14	0	0	0	0	509	539	
15	0	0	0	0	515	537	
0	0	0	0	0	519	535	
1	0	0	0	0	526	534	
2	0	0	0	0	529	531	
3	0	0	0	0	529	527	
4	0	0	0	0	528	520	
5	0	0	0	0	527	512	
6	0	0	0	0	528	504	
7	0	0	0	0	529	494	
8	0	0	0	0	526	486	
9	0	0	0	0	524	480	
10	0	0	0	0	516	474	
11	0	0	0	0	517	470	
12	0	0	0	0	518	467	
13	0	0	0	0	517	466	
14	0	0	0	0	517	466	
15	0	0	0	0	514	467	
0	0	0	0	0	510	470	
1	0	0	0	0	510	474	
2	0	0	0	0	511	481	
3	0	0	0	0	511	487	
4	0	0	0	0	513	496	
5	0	0	0	0	515	505	
6	0	0	0	0	514	513	
7	0	0	0	0	515	519	
8	0	0	0	0	518	525	
9	0	0	0	0	520	529	
10	0	0	0	0	519	531	
11	0	0	0	0	511	530	
12	0	0	0	0	508	528	
13	0	0	0	0	505	526	
14	0	0	0	0	505	521	
15	0	0	0	0	505	518	
0	0	0	0	0	505	515	
1	0	0	0	0	504	511	
2	0	0	0	0	508	507	
3	0	0	0	0	512	505	
4	0	0	0	0	514	503	
5	0	0	0	0	514	500	
6	0	0	0	0	516	498	
7	0	0	0	0	516	497	
8	0	0	0	0	511	496	
9	0	0	0	0	511	495	
10	0	0	0	0	506	492	
11	0	0	0	0	505	489	
12	0	0	0	0	504	487	
13	0	0	0	0	504	486	
14	0	0	0	0	510	485	
15	0	0	0	0	511	487	
0	0	0	0	0	513	487	
1	0	0	0	0	512	488	
2	0	0	0	0	513	491	
3	0	0	0	0	515	495	
4	0	0	0	0	517	499	
5	0	0	0	0	515	504	
6	0	0	0	0	514	508	
7	0	0	0	0	507	511	
8	0	0	0	0	503	513	
9	0	0	0	0	502	514	
10	0	0	0	0	499	515	
11	0	0	0	0	496	516	
12	0	0	0	0	493	517	
13	0	0	0	0	495	519	
14	0	0	0	0	497	521	
15	0	0	0	0	500	525	
0	0	0	0	0	507	529	
1	0	0	0	0	512	534	
2	0	0	0	0	513	536	
3	0	0	0	0	517	540	
4	0	0	0	0	521	543	
5	0	0	0	0	519	545	
6	0	0	0	0	515	545	
7	0	0	0	0	515	543	
8	0	0	0	0	512	539	
9	0	0	0	0	508	534	
10	0	0	0	0	501	527	
11	0	0	0	0	500	521	
12	0	0	0	0	502	515	
13	0	0	0	0	502	509	
14	0	0	0	0	502	503	
15	0	0	0	0	502	497	
0	0	0	0	0	504	495	
1	0	0	0	0	504	495	
2	0	0	0	0	504	495	
3	0	0	0	0	510	495	
4	0	0	0	0	515	495	
5	0	0	0	0	516	496	
6	0	0	0	0	519	498	
7	0	0	0	0	519	498	
8	0	0	0	0	518	498	
9	0	0	0	0	516	498	
10	0	0	0	0	513	496	
11	0	0	0	0	513	495	
12	0	0	0	0	510	493	
13	0	0	0	0	504	491	
14	0	0	0	0	508	488	
15	0	0	0	0	507	487	
0	0	0	0	0	507	486	
1	0	0	0	0	510	485	
2	0	0	0	0	509	485	
3	0	0	0	0	510	487	
4	0	0	0	0	509	487	
5	0	0	0	0	513	490	
6	0	0	0	0	513	493	
7	0	0	0	0	514	495	
8	0	0	0	0	512	497	
9	0	0	0	0	515	497	
10	0	0	0	0	509	499	
11	0	0	0	0	505	498	
12	0	0	0	0	504	499	
13	0	0	0	0	504	500	
14	0	0	0	0	501	500	
15	0	0	0	0	505	501	
0	0	0	0	0	509	502	
1	0	0	0	0	509	503	
2	0	0	0	0	510	505	
3	0	0	0	0	510	507	
4	0	0	0	0	510	510	
5	0	0	0	0	514	511	
6	0	0	0	0	517	514	
7	0	0	0	0	517	516	
8	0	0	0	0	515	518	
9	0	0	0	0	510	517	
10	0	0	0	0	508	516	
11	0	0	0	0	502	515	
12	0	0	0	0	504	512	
13	0	0	0	0	505	510	
14	0	0	0	0	502	508	
15	0	0	0	0	499	505	
0	0	0	0	0	501	504	
1	0	0	0	0	510	503	
2	0	0	0	0	508	501	
3	0	0	0	0	512	502	
4	0	0	0	0	513	505	
5	0	0	0	0	515	510	
6	0	0	0	0	518	515	
7	0	0	0	0	519	519	
8	0	0	0	0	517	523	
9	0	0	0	0	516	526	
10	0	0	0	0	519	529	
11	0	0	0	0	516	531	
12	0	0	0	0	516	532	
13	0	0	0	0	516	533	
14	0	0	0	0	511	532	
15	0	0	0	0	504	528	
0	0	0	0	0	498	524	
1	0	0	0	0	500	521	
2	0	0	0	0	502	520	
3	0	0	0	0	505	518	
4	0	0	0	0	510	517	
5	0	0	0	0	514	517	
6	0	0	0	0	515	516	
7	0	0	0	0	513	517	
8	0	0	0	0	512	518	
9	0	0	0	0	511	518	
10	0	0	0	0	509	518	
11	0	0	0	0	507	516	
12	0	0	0	0	503	515	
13	0	0	0	0	504	512	
14	0	0	0	0	500	509	
15	0	0	0	0	501	507	
0	0	0	0	0	502	504	
1	0	0	0	0	506	501	
2	0	0	0	0	508	501	
3	0	0	0	0	513	500	
4	0	0	0	0	512	500	
5	0	0	0	0	516	502	
6	0	0	0	0	515	505	
7	0	0	0	0	512	510	
8	0	0	0	0	517	518	
9	0	0	0	0	516	525	
10	0	0	0	0	511	531	
11	0	0	0	0	510	538	
12	0	0	0	0	512	543	
13	0	0	0	0	511	546	
14	0	0	0	0	509	549	
15	0	0	0	0	507	550	
0	0	0	0	0	507	550	
1	0	0	0	0	502	548	
2	0	0	0	0	501	546	
3	0	0	0	0	507	542	
4	0	0	0	0	511	538	
5	0	0	0	0	512	534	
6	0	0	0	0	512	531	
7	0	0	0	0	510	529	
8	0	0	0	0	512	527	
9	0	0	0	0	511	526	
10	0	0	0	0	510	526	
11	0	0	0	0	511	527	
12	0	0	0	0	511	528	
13	0	0	0	0	513	528	
14	0	0	0	0	508	529	
15	0	0	0	0	508	529	
0	0	0	0	0	507	528	
1	0	0	0	0	504	526	
2	0	0	0	0	501	523	
3	0	0	0	0	501	521	
4	0	0	0	0	505	520	
5	0	0	0	0	506	518	
6	0	0	0	0	507	518	
7	0	0	0	0	510	518	
8	0	0	0	0	512	517	
9	0	0	0	0	515	519	
10	0	0	0	0	516	519	
11	0	0	0	0	514	519	
12	0	0	0	0	512	518	
13	0	0	0	0	511	518	
14	0	0	0	0	512	518	
15	0	0	0	0	508	518	
0	0	0	0	0	507	516	
1	0	0	0	0	505	514	
2	0	0	0	0	504	512	
3	0	0	0	0	504	510	
4	0	0	0	0	507	510	
5	0	0	0	0	507	509	
6	0	0	0	0	508	510	
7	0	0	0	0	508	511	
8	0	0	0	0	511	514	
9	0	0	0	0	513	517	
10	0	0	0	0	515	520	
11	0	0	0	0	520	524	
12	0	0	0	0	519	526	
13	0	0	0	0	518	527	
14	0	0	0	0	511	528	
15	0	0	0	0	505	528	
0	0	0	0	0	505	526	
1	0	0	0	0	504	524	
2	0	0	0	0	502	520	
3	0	0	0	0	502	517	
4	0	0	0	0	505	514	
5	0	0	0	0	506	511	
6	0	0	0	0	508	510	
7	0	0	0	0	508	508	
8	0	0	0	0	512	507	
9	0	0	0	0	516	506	
10	0	0	0	0	513	507	
11	0	0	0	0	518	508	
12	0	0	0	0	518	508	
13	0	0	0	0	516	508	
14	0	0	0	0	512	509	
15	0	0	0	0	512	508	
0	0	0	0	0	508	507	
1	0	0	0	0	508	507	
2	0	0	0	0	504	507	
3	0	0	0	0	497	507	
4	0	0	0	0	498	507	
5	0	0	0	0	503	507	
6	0	0	0	0	504	508	
7	0	0	0	0	505	508	
8	0	0	0	0	507	510	
9	0	0	0	0	508	509	
10	0	0	0	0	513	511	
11	0	0	0	0	512	512	
12	0	0	0	0	515	514	
13	0	0	0	0	512	514	
14	0	0	0	0	505	513	
15	0	0	0	0	501	510	
0	0	0	0	0	508	507	
1	0	0	0	0	508	502	
2	0	0	0	0	504	495	
3	0	0	0	0	501	488	
4	0	0	0	0	501	480	
5	0	0	0	0	506	473	
6	0	0	0	0	510	469	
7	0	0	0	0	511	466	
8	0	0	0	0	514	462	
9	0	0	0	0	518	459	
10	0	0	0	0	521	458	
11	0	0	0	0	522	458	
12	0	0	0	0	520	460	
13	0	0	0	0	521	462	
14	0	0	0	0	515	462	
15	0	0	0	0	512	462	
0	0	0	0	0	511	462	
1	0	0	0	0	509	461	
2	0	0	0	0	504	460	
3	0	0	0	0	502	459	
4	0	0	0	0	501	457	
5	0	0	0	0	500	454	
6	0	0	0	0	499	452	
7	0	0	0	0	505	451	
8	0	0	0	0	506	452	
9	0	0	0	0	511	454	
10	0	0	0	0	515	455	
11	0	0	0	0	515	457	
12	0	0	0	0	516	460	
13	0	0	0	0	520	463	
14	0	0	0	0	516	467	
15	0	0	0	0	514	468	
0	0	0	0	0	510	470	
1	0	0	0	0	510	472	
2	0	0	0	0	503	471	
3	0	0	0	0	502	471	
4	0	0	0	0	504	470	
5	0	0	0	0	502	467	
6	0	0	0	0	500	466	
7	0	0	0	0	503	465	
8	0	0	0	0	506	463	
9	0	0	0	0	511	464	
10	0	0	0	0	512	466	
11	0	0	0	0	513	467	
12	0	0	0	0	514	470	
13	0	0	0	0	518	473	
14	0	0	0	0	521	476	
15	0	0	0	0	519	479	
0	0	0	0	0	516	481	
1	0	0	0	0	511	482	
2	0	0	0	0	508	481	
3	0	0	0	0	502	481	
4	0	0	0	0	503	480	
5	0	0	0	0	505	479	
6	0	0	0	0	503	477	
7	0	0	0	0	503	476	
8	0	0	0	0	505	475	
9	0	0	0	0	506	474	
10	0	0	0	0	507	474	
11	0	0	0	0	510	475	
12	0	0	0	0	512	477	
13	0	0	0	0	514	479	
14	0	0	0	0	516	482	
15	0	0	0	0	517	485	
0	0	0	0	0	517	486	
1	0	0	0	0	514	488	
2	0	0	0	0	514	488	
3	0	0	0	0	509	489	
4	0	0	0	0	505	487	
5	0	0	0	0	503	486	
6	0	0	0	0	501	483	
7	0	0	0	0	499	481	
8	0	0	0	0	501	478	
9	0	0	0	0	502	478	
10	0	0	0	0	506	477	
11	0	0	0	0	511	480	
12	0	0	0	0	512	481	
13	0	0	0	0	514	482	
14	0	0	0	0	515	484	
15	0	0	0	0	517	487	
0	0	0	0	0	520	489	
1	0	0	0	0	518	491	
2	0	0	0	0	515	492	
3	0	0	0	0	510	493	
4	0	0	0	0	509	494	
5	0	0	0	0	507	493	
6	0	0	0	0	502	493	
7	0	0	0	0	502	492	
8	0	0	0	0	502	488	
9	0	0	0	0	502	486	
10	0	0	0	0	506	485	
11	0	0	0	0	509	485	
12	0	0	0	0	512	485	
13	0	0	0	0	513	487	
14	0	0	0	0	515	487	
15	0	0	0	0	514	490	
0	0	0	0	0	514	493	
1	0	0	0	0	516	495	
2	0	0	0	0	513	496	
3	0	0	0	0	512	497	
4	0	0	0	0	511	498	
5	0	0	0	0	506	497	
6	0	0	0	0	504	496	
7	0	0	0	0	508	494	
8	0	0	0	0	506	491	
9	0	0	0	0	503	491	
10	0	0	0	0	504	489	
11	0	0	0	0	507	488	
12	0	0	0	0	508	489	
13	0	0	0	0	513	490	
14	0	0	0	0	513	491	
15	0	0	0	0	512	493	
0	0	0	0	0	515	497	
1	0	0	0	0	515	499	
2	0	0	0	0	517	502	
3	0	0	0	0	512	504	
4	0	0	0	0	511	504	
5	0	0	0	0	505	504	
6	0	0	0	0	504	504	
7	0	0	0	0	500	503	
8	0	0	0	0	501	501	
9	0	0	0	0	501	498	
10	0	0	0	0	504	497	
11	0	0	0	0	505	495	
12	0	0	0	0	508	493	
13	0	0	0	0	510	492	
14	0	0	0	0	514	492	
15	0	0	0	0	516	493	
0	0	0	0	0	516	494	
1	0	0	0	0	519	497	
2	0	0	0	0	516	499	
3	0	0	0	0	515	501	
4	0	0	0	0	514	504	
5	0	0	0	0	512	504	
6	0	0	0	0	505	504	
7	0	0	0	0	504	504	
8	0	0	0	0	504	502	
9	0	0	0	0	502	500	
10	0	0	0	0	500	498	
11	0	0	0	0	503	496	
12	0	0	0	0	507	496	
13	0	0	0	0	507	496	
14	0	0	0	0	507	498	
15	0	0	0	0	507	499	
0	0	0	0	0	512	501	
1	0	0	0	0	516	503	
2	0	0	0	0	517	505	
3	0	0	0	0	519	508	
4	0	0	0	0	516	509	
5	0	0	0	0	515	509	
6	0	0	0	0	509	509	
7	0	0	0	0	507	509	
8	0	0	0	0	506	507	
9	0	0	0	0	506	504	
10	0	0	0	0	503	502	
11	0	0	0	0	501	501	
12	0	0	0	0	503	500	
13	0	0	0	0	506	500	
14	0	0	0	0	509	499	
15	0	0	0	0	511	498	
0	0	0	0	0	513	499	
1	0	0	0	0	517	499	
2	0	0	0	0	516	502	
3	0	0	0	0	519	504	
4	0	0	0	0	515	506	
5	0	0	0	0	514	508	
6	0	0	0	0	512	509	
7	0	0	0	0	508	510	
8	0	0	0	0	505	509	
9	0	0	0	0	506	507	
10	0	0	0	0	504	504	
11	0	0	0	0	501	500	
12	0	0	0	0	502	500	
13	0	0	0	0	505	498	
14	0	0	0	0	507	497	
15	0	0	0	0	507	498	
0	0	0	0	0	510	500	
1	0	0	0	0	513	502	
2	0	0	0	0	515	503	
3	0	0	0	0	514	505	
4	0	0	0	0	517	508	
5	0	0	0	0	515	510	
6	0	0	0	0	515	511	
7	0	0	0	0	511	510	
8	0	0	0	0	507	509	
9	0	0	0	0	505	507	
10	0	0	0	0	504	504	
11	0	0	0	0	503	502	
12	0	0	0	0	502	497	
13	0	0	0	0	503	494	
14	0	0	0	0	508	492	
15	0	0	0	0	508	491	
0	0	0	0	0	511	492	
1	0	0	0	0	515	492	
2	0	0	0	0	515	494	
3	0	0	0	0	517	497	
4	0	0	0	0	517	500	
5	0	0	0	0	517	503	
6	0	0	0	0	513	506	
7	0	0	0	0	512	508	
8	0	0	0	0	510	510	
9	0	0	0	0	507	510	
10	0	0	0	0	504	508	
11	0	0	0	0	502	508	
12	0	0	0	0	501	505	
13	0	0	0	0	502	503	
14	0	0	0	0	503	500	
15	0	0	0	0	507	499	
0	0	0	0	0	508	497	
1	0	0	0	0	513	498	
2	0	0	0	0	515	499	
3	0	0	0	0	515	501	
4	0	0	0	0	515	504	
5	0	0	0	0	515	508	
6	0	0	0	0	515	510	
7	0	0	0	0	515	511	
8	0	0	0	0	515	511	
9	0	0	0	0	510	510	
10	0	0	0	0	507	508	
11	0	0	0	0	504	507	
12	0	0	0	0	503	504	
13	0	0	0	0	501	500	
14	0	0	0	0	502	497	
15	0	0	0	0	504	496	
0	0	0	0	0	507	496	
1	0	0	0	0	510	496	
2	0	0	0	0	512	495	
3	0	0	0	0	513	495	
4	0	0	0	0	514	497	
5	0	0	0	0	519	501	
6	0	0	0	0	520	505	
7	0	0	0	0	517	507	
8	0	0	0	0	513	508	
9	0	0	0	0	509	508	
10	0	0	0	0	508	509	
11	0	0	0	0	504	508	
12	0	0	0	0	505	506	
13	0	0	0	0	508	504	
14	0	0	0	0	507	501	
15	0	0	0	0	508	499	
0	0	0	0	0	512	497	
1	0	0	0	0	512	496	
2	0	0	0	0	513	496	
3	0	0	0	0	514	497	
4	0	0	0	0	516	498	
5	0	0	0	0	516	500	
6	0	0	0	0	515	504	
7	0	0	0	0	516	507	
8	0	0	0	0	512	508	
9	0	0	0	0	511	510	
10	0	0	0	0	509	511	
11	0	0	0	0	504	510	
12	0	0	0	0	503	509	
13	0	0	0	0	499	508	
14	0	0	0	0	497	507	
15	0	0	0	0	496	507	
0	0	0	0	0	499	505	
1	0	0	0	0	503	504	
2	0	0	0	0	506	504	
3	0	0	0	0	510	504	
4	0	0	0	0	512	506	
5	0	0	0	0	515	507	
6	0	0	0	0	516	510	
7	0	0	0	0	521	513	
8	0	0	0	0	518	515	
9	0	0	0	0	517	517	
10	0	0	0	0	515	518	
11	0	0	0	0	509	516	
12	0	0	0	0	508	515	
13	0	0	0	0	505	513	
14	0	0	0	0	505	513	
15	0	0	0	0	501	510	
0	0	0	0	0	499	508	
1	0	0	0	0	502	508	
2	0	0	0	0	506	508	
3	0	0	0	0	510	508	
4	0	0	0	0	510	509	
5	0	0	0	0	512	510	
6	0	0	0	0	517	512	
7	0	0	0	0	515	515	
8	0	0	0	0	518	518	
9	0	0	0	0	516	519	
10	0	0	0	0	513	521	
11	0	0	0	0	511	522	
12	0	0	0	0	508	521	
13	0	0	0	0	502	521	
14	0	0	0	0	499	521	
15	0	0	0	0	501	519	
0	0	0	0	0	501	517	
1	0	0	0	0	504	516	
2	0	0	0	0	508	515	
3	0	0	0	0	509	513	
4	0	0	0	0	511	513	
5	0	0	0	0	514	514	
6	0	0	0	0	514	515	
7	0	0	0	0	513	516	
8	0	0	0	0	515	519	
9	0	0	0	0	517	522	
10	0	0	0	0	518	523	
11	0	0	0	0	513	524	
12	0	0	0	0	509	524	
13	0	0	0	0	508	521	
14	0	0	0	0	508	519	
15	0	0	0	0	506	516	
0	0	0	0	0	505	513	
1	0	0	0	0	504	509	
2	0	0	0	0	503	506	
3	0	0	0	0	505	505	
4	0	0	0	0	507	505	
5	0	0	0	0	509	507	
6	0	0	0	0	513	508	
7	0	0	0	0	515	508	
8	0	0	0	0	515	510	
9	0	0	0	0	519	511	
10	0	0	0	0	518	513	
11	0	0	0	0	514	514	
12	0	0	0	0	514	515	
13	0	0	0	0	512	513	
14	0	0	0	0	506	512	
15	0	0	0	0	507	510	
0	0	0	0	0	505	508	
1	0	0	0	0	503	504	
2	0	0	0	0	502	501	
3	0	0	0	0	504	500	
4	0	0	0	0	508	500	
5	0	0	0	0	506	501	
6	0	0	0	0	510	502	
7	0	0	0	0	513	503	
8	0	0	0	0	516	503	
9	0	0	0	0	516	505	
10	0	0	0	0	519	508	
11	0	0	0	0	516	509	
12	0	0	0	0	516	509	
13	0	0	0	0	511	509	
14	0	0	0	0	508	508	
15	0	0	0	0	505	507	
0	0	0	0	0	504	504	
1	0	0	0	0	504	500	
2	0	0	0	0	501	497	
3	0	0	0	0	503	495	
4	0	0	0	0	504	493	
5	0	0	0	0	507	492	
6	0	0	0	0	510	491	
7	0	0	0	0	512	492	
8	0	0	0	0	513	493	
9	0	0	0	0	512	497	
10	0	0	0	0	515	501	
11	0	0	0	0	516	505	
12	0	0	0	0	515	508	
13	0	0	0	0	512	510	
14	0	0	0	0	510	511	
15	0	0	0	0	507	511	
0	0	0	0	0	503	510	
1	0	0	0	0	503	509	
2	0	0	0	0	500	508	
3	0	0	0	0	504	507	
4	0	0	0	0	504	506	
5	0	0	0	0	507	504	
6	0	0	0	0	509	504	
7	0	0	0	0	512	504	
8	0	0	0	0	515	504	
9	0	0	0	0	519	503	
10	0	0	0	0	523	503	
11	0	0	0	0	524	502	
12	0	0	0	0	526	502	
13	0	0	0	0	522	502	
14	0	0	0	0	520	500	
15	0	0	0	0	514	499	
0	0	0	0	0	513	497	
1	0	0	0	0	512	494	
2	0	0	0	0	509	491	
3	0	0	0	0	505	490	
4	0	0	0	0	502	489	
5	0	0	0	0	504	491	
6	0	0	0	0	507	492	
7	0	0	0	0	510	494	
8	0	0	0	0	515	495	
9	0	0	0	0	510	497	
10	0	0	0	0	512	500	
11	0	0	0	0	512	504	
12	0	0	0	0	510	509	
13	0	0	0	0	506	513	
14	0	0	0	0	500	519	
15	0	0	0	0	499	523	
0	0	0	0	0	491	527	
1	0	0	0	0	490	529	
2	0	0	0	0	487	530	
3	0	0	0	0	487	531	
4	0	0	0	0	481	531	
5	0	0	0	0	484	534	
6	0	0	0	0	486	537	
7	0	0	0	0	486	541	
8	0	0	0	0	487	545	
9	0	0	0	0	489	547	
10	0	0	0	0	488	551	
11	0	0	0	0	494	555	
12	0	0	0	0	499	559	
13	0	0	0	0	510	562	
14	0	0	0	0	513	562	
15	0	0	0	0	515	560	
0	0	0	0	0	518	555	
1	0	0	0	0	515	548	
2	0	0	0	0	517	541	
3	0	0	0	0	518	533	
4	0	0	0	0	516	525	
5	0	0	0	0	518	516	
6	0	0	0	0	519	508	
7	0	0	0	0	522	498	
8	0	0	0	0	527	489	
9	0	0	0	0	531	482	
10	0	0	0	0	533	477	
11	0	0	0	0	536	473	
12	0	0	0	0	533	471	
13	0	0	0	0	532	471	
14	0	0	0	0	526	471	
15	0	0	0	0	521	473	
0	0	0	0	0	516	475	
1	0	0	0	0	508	476	
2	0	0	0	0	505	478	
3	0	0	0	0	503	479	
4	0	0	0	0	502	480	
5	0	0	0	0	501	480	
6	0	0	0	0	504	480	
7	0	0	0	0	506	481	
8	0	0	0	0	511	482	
9	0	0	0	0	515	483	
10	0	0	0	0	517	486	
11	0	0	0	0	520	488	
12	0	0	0	0	523	491	
13	0	0	0	0	523	494	
14	0	0	0	0	524	498	
15	0	0	0	0	522	502	
0	0	0	0	0	516	504	
1	0	0	0	0	515	506	
2	0	0	0	0	508	506	
3	0	0	0	0	505	507	
4	0	0	0	0	505	508	
5	0	0	0	0	504	508	
6	0	0	0	0	505	507	
7	0	0	0	0	507	506	
8	0	0	0	0	510	505	
9	0	0	0	0	510	504	
10	0	0	0	0	512	505	
11	0	0	0	0	514	505	
12	0	0	0	0	515	506	
13	0	0	0	0	516	508	
14	0	0	0	0	514	511	
15	0	0	0	0	515	513	
0	0	0	0	0	511	515	
1	0	0	0	0	510	513	
2	0	0	0	0	508	511	
3	0	0	0	0	504	509	
4	0	0	0	0	501	508	
5	0	0	0	0	499	505	
6	0	0	0	0	497	503	
7	0	0	0	0	497	501	
8	0	0	0	0	497	498	
9	0	0	0	0	502	496	
10	0	0	0	0	506	495	
11	0	0	0	0	504	494	
12	0	0	0	0	507	495	
13	0	0	0	0	510	496	
14	0	0	0	0	512	499	
15	0	0	0	0	517	503	
0	0	0	0	0	513	506	
1	0	0	0	0	514	508	
2	0	0	0	0	513	509	
3	0	0	0	0	510	509	
4	0	0	0	0	507	509	
5	0	0	0	0	502	508	
6	0	0	0	0	504	508	
7	0	0	0	0	503	505	
8	0	0	0	0	504	502	
9	0	0	0	0	506	500	
10	0	0	0	0	505	499	
11	0	0	0	0	507	499	
12	0	0	0	0	510	499	
13	0	0	0	0	513	501	
14	0	0	0	0	512	503	
15	0	0	0	0	513	505	
0	0	0	0	0	517	508	
1	0	0	0	0	516	508	
2	0	0	0	0	511	509	
3	0	0	0	0	509	511	
4	0	0	0	0	507	512	
5	0	0	0	0	505	512	
6	0	0	0	0	504	511	
7	0	0	0	0	502	509	
8	0	0	0	0	500	506	
9	0	0	0	0	503	504	
10	0	0	0	0	505	504	
11	0	0	0	0	506	502	
12	0	0	0	0	510	502	
13	0	0	0	0	512	504	
14	0	0	0	0	514	504	
15	0	0	0	0	513	505	
0	0	0	0	0	515	508	
1	0	0	0	0	521	511	
2	0	0	0	0	515	511	
3	0	0	0	0	511	511	
4	0	0	0	0	508	511	
5	0	0	0	0	508	510	
6	0	0	0	0	504	509	
7	0	0	0	0	505	508	
8	0	0	0	0	504	505	
9	0	0	0	0	501	504	
10	0	0	0	0	499	502	
11	0	0	0	0	503	503	
12	0	0	0	0	507	504	
13	0	0	0	0	511	506	
14	0	0	0	0	515	509	
15	0	0	0	0	519	511	
0	0	0	0	0	517	515	
1	0	0	0	0	519	519	
2	0	0	0	0	520	524	
3	0	0	0	0	520	528	
4	0	0	0	0	516	530	
5	0	0	0	0	511	531	
6	0	0	0	0	502	532	
7	0	0	0	0	500	532	
8	0	0	0	0	502	530	
9	0	0	0	0	499	527	
10	0	0	0	0	500	524	
11	0	0	0	0	503	519	
12	0	0	0	0	507	515	
13	0	0	0	0	510	510	
14	0	0	0	0	514	508	
15	0	0	0	0	516	505	
0	0	0	0	0	518	504	
1	0	0	0	0	517	504	
2	0	0	0	0	518	506	
3	0	0	0	0	518	505	
4	0	0	0	0	515	505	
5	0	0	0	0	511	504	
6	0	0	0	0	507	504	
7	0	0	0	0	505	503	
8	0	0	0	0	504	502	
9	0	0	0	0	503	500	
10	0	0	0	0	498	497	
11	0	0	0	0	498	496	
12	0	0	0	0	505	496	
13	0	0	0	0	510	495	
14	0	0	0	0	509	496	
15	0	0	0	0	512	497	
0	0	0	0	0	513	499	
1	0	0	0	0	516	502	
2	0	0	0	0	519	507	
3	0	0	0	0	520	511	
4	0	0	0	0	517	515	
5	0	0	0	0	513	518	
6	0	0	0	0	514	519	
7	0	0	0	0	509	521	
8	0	0	0	0	507	521	
9	0	0	0	0	503	521	
10	0	0	0	0	504	522	
11	0	0	0	0	500	522	
12	0	0	0	0	499	523	
13	0	0	0	0	503	523	
14	0	0	0	0	508	524	
15	0	0	0	0	511	524	
0	0	0	0	0	512	527	
1	0	0	0	0	514	527	
2	0	0	0	0	518	528	
3	0	0	0	0	523	529	
4	0	0	0	0	523	529	
5	0	0	0	0	516	528	
6	0	0	0	0	509	527	
7	0	0	0	0	508	527	
8	0	0	0	0	506	523	
9	0	0	0	0	503	519	
10	0	0	0	0	501	518	
11	0	0	0	0	501	515	
12	0	0	0	0	501	512	
13	0	0	0	0	503	512	
14	0	0	0	0	503	512	
15	0	0	0	0	509	513	
0	0	0	0	0	513	515	
1	0	0	0	0	512	519	
2	0	0	0	0	515	521	
3	0	0	0	0	518	526	
4	0	0	0	0	519	532	
5	0	0	0	0	521	537	
6	0	0	0	0	515	541	
7	0	0	0	0	513	545	
8	0	0	0	0	507	549	
9	0	0	0	0	507	551	
10	0	0	0	0	506	553	
11	0	0	0	0	505	554	
12	0	0	0	0	504	555	
13	0	0	0	0	501	555	
14	0	0	0	0	506	555	
15	0	0	0	0	508	553	
0	0	0	0	0	507	553	
1	0	0	0	0	510	552	
2	0	0	0	0	507	551	
3	0	0	0	0	511	550	
4	0	0	0	0	513	549	
5	0	0	0	0	518	548	
6	0	0	0	0	512	546	
7	0	0	0	0	510	543	
8	0	0	0	0	511	541	
9	0	0	0	0	508	536	
10	0	0	0	0	507	531	
11	0	0	0	0	508	527	
12	0	0	0	0	503	523	
13	0	0	0	0	503	519	
14	0	0	0	0	505	517	
15	0	0	0	0	506	515	
0	0	0	0	0	506	515	
1	0	0	0	0	511	518	
2	0	0	0	0	513	520	
3	0	0	0	0	515	521	
4	0	0	0	0	514	524	
5	0	0	0	0	520	527	
6	0	0	0	0	519	531	
7	0	0	0	0	514	533	
8	0	0	0	0	515	535	
9	0	0	0	0	511	536	
10	0	0	0	0	509	536	
11	0	0	0	0	509	536	
12	0	0	0	0	507	537	
13	0	0	0	0	506	536	
14	0	0	0	0	505	537	
15	0	0	0	0	502	538	
0	0	0	0	0	501	537	
1	0	0	0	0	499	537	
2	0	0	0	0	503	540	
3	0	0	0	0	505	541	
4	0	0	0	0	508	541	
5	0	0	0	0	508	540	
6	0	0	0	0	515	540	
7	0	0	0	0	515	540	
8	0	0	0	0	519	538	
9	0	0	0	0	521	537	
10	0	0	0	0	518	537	
11	0	0	0	0	506	540	
12	0	0	0	0	504	542	
13	0	0	0	0	503	546	
14	0	0	0	0	501	547	
15	0	0	0	0	504	548	
0	0	0	0	0	508	551	
1	0	0	0	0	511	552	
2	0	0	0	0	518	550	
3	0	0	0	0	521	545	
4	0	0	0	0	519	539	
5	0	0	0	0	515	531	
6	0	0	0	0	518	524	
7	0	0	0	0	516	516	
8	0	0	0	0	516	508	
9	0	0	0	0	509	498	
10	0	0	0	0	504	488	
11	0	0	0	0	495	479	
12	0	0	0	0	492	471	
13	0	0	0	0	491	463	
14	0	0	0	0	492	457	
15	0	0	0	0	494	453	
0	0	0	0	0	495	448	
1	0	0	0	0	503	445	
2	0	0	0	0	507	444	
3	0	0	0	0	512	443	
4	0	0	0	0	516	444	
5	0	0	0	0	519	447	
6	0	0	0	0	519	449	
7	0	0	0	0	521	454	
8	0	0	0	0	521	457	
9	0	0	0	0	518	460	
10	0	0	0	0	514	461	
11	0	0	0	0	513	462	
12	0	0	0	0	508	462	
13	0	0	0	0	506	461	
14	0	0	0	0	503	461	
15	0	0	0	0	502	459	
0	0	0	0	0	502	457	
1	0	0	0	0	503	457	
2	0	0	0	0	504	458	
3	0	0	0	0	507	460	
4	0	0	0	0	514	462	
5	0	0	0	0	517	465	
6	0	0	0	0	519	468	
7	0	0	0	0	519	472	
8	0	0	0	0	524	479	
9	0	0	0	0	524	483	
10	0	0	0	0	517	488	
11	0	0	0	0	514	491	
12	0	0	0	0	505	494	
13	0	0	0	0	500	497	
14	0	0	0	0	492	502	
15	0	0	0	0	494	506	
0	0	0	0	0	496	509	
1	0	0	0	0	501	511	
2	0	0	0	0	508	513	
3	0	0	0	0	507	516	
4	0	0	0	0	513	518	
5	0	0	0	0	514	518	
6	0	0	0	0	510	516	
7	0	0	0	0	507	512	
8	0	0	0	0	512	510	
9	0	0	0	0	514	505	
10	0	0	0	0	517	498	
11	0	0	0	0	516	491	
12	0	0	0	0	514	483	
13	0	0	0	0	509	476	
14	0	0	0	0	509	468	
15	0	0	0	0	509	461	
0	0	0	0	0	507	455	
1	0	0	0	0	505	451	
2	0	0	0	0	504	448	
3	0	0	0	0	507	447	
4	0	0	0	0	505	447	
5	0	0	0	0	510	450	
6	0	0	0	0	511	454	
7	0	0	0	0	512	459	
8	0	0	0	0	512	462	
9	0	0	0	0	515	465	
10	0	0	0	0	515	469	
11	0	0	0	0	518	471	
12	0	0	0	0	519	471	
13	0	0	0	0	512	472	
14	0	0	0	0	508	473	
15	0	0	0	0	506	472	
0	0	0	0	0	504	472	
1	0	0	0	0	504	469	
2	0	0	0	0	501	466	
3	0	0	0	0	500	464	
4	0	0	0	0	503	464	
5	0	0	0	0	509	465	
6	0	0	0	0	508	467	
7	0	0	0	0	513	469	
8	0	0	0	0	511	472	
9	0	0	0	0	515	476	
10	0	0	0	0	517	481	
11	0	0	0	0	518	484	
12	0	0	0	0	519	488	
13	0	0	0	0	518	491	
14	0	0	0	0	514	492	
15	0	0	0	0	509	495	
0	0	0	0	0	503	495	
1	0	0	0	0	505	494	
2	0	0	0	0	500	491	
3	0	0	0	0	502	489	
4	0	0	0	0	503	487	
5	0	0	0	0	507	486	
6	0	0	0	0	508	485	
7	0	0	0	0	508	485	
8	0	0	0	0	508	486	
9	0	0	0	0	514	487	
10	0	0	0	0	514	490	
11	0	0	0	0	518	492	
12	0	0	0	0	517	494	
13	0	0	0	0	515	496	
14	0	0	0	0	512	498	
15	0	0	0	0	511	499	
0	0	0	0	0	506	499	
1	0	0	0	0	506	499	
2	0	0	0	0	501	500	
3	0	0	0	0	499	499	
4	0	0	0	0	502	499	
5	0	0	0	0	505	501	
6	0	0	0	0	508	502	
7	0	0	0	0	512	505	
8	0	0	0	0	510	509	
9	0	0	0	0	509	513	
10	0	0	0	0	513	519	
11	0	0	0	0	519	522	
12	0	0	0	0	526	525	
13	0	0	0	0	521	526	
14	0	0	0	0	514	526	
15	0	0	0	0	508	525	
0	0	0	0	0	507	522	
1	0	0	0	0	499	519	
2	0	0	0	0	497	516	
3	0	0	0	0	496	512	
4	0	0	0	0	497	510	
5	0	0	0	0	504	509	
6	0	0	0	0	510	509	
7	0	0	0	0	512	511	
8	0	0	0	0	514	512	
9	0	0	0	0	517	514	
10	0	0	0	0	518	517	
11	0	0	0	0	521	521	
12	0	0	0	0	524	526	
13	0	0	0	0	522	531	
14	0	0	0	0	517	536	
15	0	0	0	0	511	539	
0	0	0	0	0	504	540	
1	0	0	0	0	504	539	
2	0	0	0	0	504	538	
3	0	0	0	0	504	536	
4	0	0	0	0	503	530	
5	0	0	0	0	497	521	
6	0	0	0	0	500	511	
7	0	0	0	0	503	499	
8	0	0	0	0	498	488	
9	0	0	0	0	496	480	
10	0	0	0	0	503	470	
11	0	0	0	0	515	462	
12	0	0	0	0	518	457	
13	0	0	0	0	514	455	
14	0	0	0	0	512	453	
15	0	0	0	0	514	452	
0	0	0	0	0	514	452	
1	0	0	0	0	513	453	
2	0	0	0	0	511	452	
3	0	0	0	0	508	453	
4	0	0	0	0	506	456	
5	0	0	0	0	503	459	
6	0	0	0	0	504	462	
7	0	0	0	0	510	466	
8	0	0	0	0	509	471	
9	0	0	0	0	509	475	
10	0	0	0	0	513	480	
11	0	0	0	0	517	485	
12	0	0	0	0	517	490	
13	0	0	0	0	517	495	
14	0	0	0	0	517	499	
15	0	0	0	0	518	502	
0	0	0	0	0	513	503	
1	0	0	0	0	508	504	
2	0	0	0	0	505	502	
3	0	0	0	0	502	501	
