# OpenSignals Text File Format. Version 1
# {"98:D3:41:FD:4F:50": {"position": 0, "device": "bitalino_rev", "device name": "98:D3:41:FD:4F:50", "device connection": "BTH98:D3:41:FD:4F:50", "sampling rate": 1000, "resolution": [4, 1, 1, 1, 1, 10, 10], "firmware version": 1282, "comments": "", "keywords": "", "mode": 0, "sync interval": 2, "date": "2025-7-2", "time": "12:36:56.873", "channels": [1, 2], "sensor": ["EMGBITREV", "ECGBIT"], "label": ["A1", "A2"], "column": ["nSeq", "I1", "I2", "O1", "O2", "A1", "A2"], "special": [{}, {}], "digital IO": [0, 0, 1, 1]}}
# EndOfHeader
0	0	0	0	0	533	435	
1	0	0	0	0	579	437	
2	0	0	0	0	613	439	
3	0	0	0	0	608	444	
4	0	0	0	0	576	447	
5	0	0	0	0	545	451	
6	0	0	0	0	497	456	
7	0	0	0	0	429	460	
8	0	0	0	0	392	463	
9	0	0	0	0	408	464	
10	0	0	0	0	441	464	
11	0	0	0	0	462	465	
12	0	0	0	0	480	467	
13	0	0	0	0	492	471	
14	0	0	0	0	498	473	
15	0	0	0	0	506	476	
0	0	0	0	0	512	479	
1	0	0	0	0	530	481	
2	0	0	0	0	581	485	
3	0	0	0	0	610	490	
4	0	0	0	0	592	496	
5	0	0	0	0	561	502	
6	0	0	0	0	533	506	
7	0	0	0	0	477	511	
8	0	0	0	0	417	514	
9	0	0	0	0	400	515	
10	0	0	0	0	427	514	
11	0	0	0	0	462	512	
12	0	0	0	0	487	511	
13	0	0	0	0	503	510	
14	0	0	0	0	515	509	
15	0	0	0	0	523	508	
0	0	0	0	0	527	508	
1	0	0	0	0	532	508	
2	0	0	0	0	562	508	
3	0	0	0	0	611	508	
4	0	0	0	0	619	512	
5	0	0	0	0	593	515	
6	0	0	0	0	559	519	
7	0	0	0	0	527	522	
8	0	0	0	0	458	524	
9	0	0	0	0	407	524	
10	0	0	0	0	406	524	
11	0	0	0	0	441	520	
12	0	0	0	0	467	519	
13	0	0	0	0	489	519	
14	0	0	0	0	503	519	
15	0	0	0	0	512	518	
0	0	0	0	0	519	516	
1	0	0	0	0	525	515	
2	0	0	0	0	531	515	
3	0	0	0	0	574	515	
4	0	0	0	0	613	516	
5	0	0	0	0	613	519	
6	0	0	0	0	576	521	
7	0	0	0	0	545	524	
8	0	0	0	0	498	526	
9	0	0	0	0	431	527	
10	0	0	0	0	396	527	
11	0	0	0	0	413	525	
12	0	0	0	0	449	522	
13	0	0	0	0	474	519	
14	0	0	0	0	491	517	
15	0	0	0	0	504	516	
0	0	0	0	0	514	515	
1	0	0	0	0	519	514	
2	0	0	0	0	520	513	
3	0	0	0	0	537	511	
4	0	0	0	0	591	511	
5	0	0	0	0	618	512	
6	0	0	0	0	601	516	
7	0	0	0	0	563	519	
8	0	0	0	0	535	522	
9	0	0	0	0	476	524	
10	0	0	0	0	419	525	
11	0	0	0	0	401	524	
12	0	0	0	0	426	522	
13	0	0	0	0	455	518	
14	0	0	0	0	480	517	
15	0	0	0	0	494	516	
0	0	0	0	0	510	515	
1	0	0	0	0	516	513	
2	0	0	0	0	522	512	
3	0	0	0	0	525	511	
4	0	0	0	0	553	511	
5	0	0	0	0	603	511	
6	0	0	0	0	615	513	
7	0	0	0	0	589	515	
8	0	0	0	0	554	517	
9	0	0	0	0	525	519	
10	0	0	0	0	456	522	
11	0	0	0	0	406	522	
12	0	0	0	0	403	520	
13	0	0	0	0	437	516	
14	0	0	0	0	464	514	
15	0	0	0	0	486	512	
0	0	0	0	0	503	511	
1	0	0	0	0	512	509	
2	0	0	0	0	519	509	
3	0	0	0	0	520	509	
4	0	0	0	0	530	508	
5	0	0	0	0	572	508	
6	0	0	0	0	612	510	
7	0	0	0	0	610	513	
8	0	0	0	0	577	515	
9	0	0	0	0	547	518	
10	0	0	0	0	504	520	
11	0	0	0	0	435	523	
12	0	0	0	0	399	522	
13	0	0	0	0	411	520	
14	0	0	0	0	446	516	
15	0	0	0	0	472	514	
0	0	0	0	0	491	513	
1	0	0	0	0	505	512	
2	0	0	0	0	512	511	
3	0	0	0	0	519	510	
4	0	0	0	0	521	509	
5	0	0	0	0	537	509	
6	0	0	0	0	589	509	
7	0	0	0	0	616	510	
8	0	0	0	0	600	513	
9	0	0	0	0	566	515	
10	0	0	0	0	536	518	
11	0	0	0	0	481	521	
12	0	0	0	0	420	521	
13	0	0	0	0	400	521	
14	0	0	0	0	422	519	
15	0	0	0	0	453	516	
0	0	0	0	0	478	514	
1	0	0	0	0	497	512	
2	0	0	0	0	508	511	
3	0	0	0	0	517	509	
4	0	0	0	0	521	509	
5	0	0	0	0	524	508	
6	0	0	0	0	551	508	
7	0	0	0	0	602	507	
8	0	0	0	0	613	510	
9	0	0	0	0	589	512	
10	0	0	0	0	555	515	
11	0	0	0	0	526	517	
12	0	0	0	0	459	519	
13	0	0	0	0	409	518	
14	0	0	0	0	403	517	
15	0	0	0	0	438	513	
0	0	0	0	0	462	511	
1	0	0	0	0	485	509	
2	0	0	0	0	499	507	
3	0	0	0	0	509	506	
4	0	0	0	0	516	505	
5	0	0	0	0	521	505	
6	0	0	0	0	530	504	
7	0	0	0	0	569	504	
8	0	0	0	0	611	504	
9	0	0	0	0	612	507	
10	0	0	0	0	577	509	
11	0	0	0	0	546	512	
12	0	0	0	0	505	515	
13	0	0	0	0	437	517	
14	0	0	0	0	402	516	
15	0	0	0	0	412	515	
0	0	0	0	0	446	511	
1	0	0	0	0	471	508	
2	0	0	0	0	490	507	
3	0	0	0	0	505	507	
4	0	0	0	0	513	506	
5	0	0	0	0	517	505	
6	0	0	0	0	523	504	
7	0	0	0	0	538	503	
8	0	0	0	0	585	503	
9	0	0	0	0	614	504	
10	0	0	0	0	604	509	
11	0	0	0	0	566	512	
12	0	0	0	0	537	516	
13	0	0	0	0	480	518	
14	0	0	0	0	418	519	
15	0	0	0	0	395	518	
0	0	0	0	0	420	516	
1	0	0	0	0	454	512	
2	0	0	0	0	476	511	
3	0	0	0	0	497	508	
4	0	0	0	0	508	508	
5	0	0	0	0	515	507	
6	0	0	0	0	519	507	
7	0	0	0	0	524	507	
8	0	0	0	0	549	507	
9	0	0	0	0	599	508	
10	0	0	0	0	616	512	
11	0	0	0	0	593	515	
12	0	0	0	0	555	518	
13	0	0	0	0	526	521	
14	0	0	0	0	459	523	
15	0	0	0	0	409	524	
0	0	0	0	0	403	523	
1	0	0	0	0	434	519	
2	0	0	0	0	462	518	
3	0	0	0	0	485	518	
4	0	0	0	0	499	517	
5	0	0	0	0	510	516	
6	0	0	0	0	515	516	
7	0	0	0	0	521	516	
8	0	0	0	0	531	516	
9	0	0	0	0	569	516	
10	0	0	0	0	611	516	
11	0	0	0	0	609	520	
12	0	0	0	0	579	522	
13	0	0	0	0	546	525	
14	0	0	0	0	509	527	
15	0	0	0	0	439	529	
0	0	0	0	0	400	529	
1	0	0	0	0	411	527	
2	0	0	0	0	446	524	
3	0	0	0	0	469	522	
4	0	0	0	0	490	520	
5	0	0	0	0	502	519	
6	0	0	0	0	512	516	
7	0	0	0	0	519	515	
8	0	0	0	0	523	514	
9	0	0	0	0	533	514	
10	0	0	0	0	585	514	
11	0	0	0	0	618	515	
12	0	0	0	0	605	519	
13	0	0	0	0	571	521	
14	0	0	0	0	539	524	
15	0	0	0	0	484	526	
0	0	0	0	0	423	526	
1	0	0	0	0	399	526	
2	0	0	0	0	421	524	
3	0	0	0	0	453	520	
4	0	0	0	0	478	519	
5	0	0	0	0	495	517	
6	0	0	0	0	506	516	
7	0	0	0	0	517	515	
8	0	0	0	0	521	513	
9	0	0	0	0	522	512	
10	0	0	0	0	547	511	
11	0	0	0	0	601	511	
12	0	0	0	0	618	513	
13	0	0	0	0	594	515	
14	0	0	0	0	560	516	
15	0	0	0	0	531	518	
0	0	0	0	0	466	520	
1	0	0	0	0	413	520	
2	0	0	0	0	403	519	
3	0	0	0	0	439	515	
4	0	0	0	0	463	513	
5	0	0	0	0	487	511	
6	0	0	0	0	501	509	
7	0	0	0	0	512	507	
8	0	0	0	0	518	505	
9	0	0	0	0	524	503	
10	0	0	0	0	529	502	
11	0	0	0	0	565	499	
12	0	0	0	0	611	499	
13	0	0	0	0	613	502	
14	0	0	0	0	582	504	
15	0	0	0	0	550	506	
0	0	0	0	0	511	507	
1	0	0	0	0	441	507	
2	0	0	0	0	405	505	
3	0	0	0	0	413	504	
4	0	0	0	0	447	499	
5	0	0	0	0	471	497	
6	0	0	0	0	493	494	
7	0	0	0	0	506	491	
8	0	0	0	0	515	489	
9	0	0	0	0	519	487	
10	0	0	0	0	523	485	
11	0	0	0	0	536	483	
12	0	0	0	0	583	481	
13	0	0	0	0	616	481	
14	0	0	0	0	607	483	
15	0	0	0	0	570	485	
0	0	0	0	0	539	486	
1	0	0	0	0	487	487	
2	0	0	0	0	425	486	
3	0	0	0	0	400	485	
4	0	0	0	0	420	483	
5	0	0	0	0	452	478	
6	0	0	0	0	479	475	
7	0	0	0	0	495	473	
8	0	0	0	0	506	472	
9	0	0	0	0	515	469	
10	0	0	0	0	519	467	
11	0	0	0	0	521	465	
12	0	0	0	0	545	464	
13	0	0	0	0	598	463	
14	0	0	0	0	614	465	
15	0	0	0	0	593	466	
0	0	0	0	0	558	468	
1	0	0	0	0	529	470	
2	0	0	0	0	465	472	
3	0	0	0	0	413	472	
4	0	0	0	0	401	471	
5	0	0	0	0	427	465	
6	0	0	0	0	461	463	
7	0	0	0	0	481	462	
8	0	0	0	0	498	461	
9	0	0	0	0	508	459	
10	0	0	0	0	516	457	
11	0	0	0	0	521	455	
12	0	0	0	0	526	453	
13	0	0	0	0	561	452	
14	0	0	0	0	608	453	
15	0	0	0	0	612	456	
0	0	0	0	0	580	458	
1	0	0	0	0	548	461	
2	0	0	0	0	514	464	
3	0	0	0	0	440	465	
4	0	0	0	0	400	465	
5	0	0	0	0	406	464	
6	0	0	0	0	443	460	
7	0	0	0	0	468	459	
8	0	0	0	0	488	458	
9	0	0	0	0	502	456	
10	0	0	0	0	512	456	
11	0	0	0	0	515	455	
12	0	0	0	0	521	454	
13	0	0	0	0	533	454	
14	0	0	0	0	580	455	
15	0	0	0	0	615	455	
0	0	0	0	0	604	460	
1	0	0	0	0	572	461	
2	0	0	0	0	541	464	
3	0	0	0	0	487	467	
4	0	0	0	0	425	469	
5	0	0	0	0	397	469	
6	0	0	0	0	414	467	
7	0	0	0	0	449	465	
8	0	0	0	0	475	464	
9	0	0	0	0	492	463	
10	0	0	0	0	506	463	
11	0	0	0	0	514	462	
12	0	0	0	0	518	462	
13	0	0	0	0	523	462	
14	0	0	0	0	545	461	
15	0	0	0	0	595	462	
0	0	0	0	0	617	466	
1	0	0	0	0	594	468	
2	0	0	0	0	561	471	
3	0	0	0	0	531	474	
4	0	0	0	0	468	476	
5	0	0	0	0	412	477	
6	0	0	0	0	403	477	
7	0	0	0	0	428	474	
8	0	0	0	0	460	472	
9	0	0	0	0	480	472	
10	0	0	0	0	499	471	
11	0	0	0	0	507	471	
12	0	0	0	0	517	470	
13	0	0	0	0	521	470	
14	0	0	0	0	527	470	
15	0	0	0	0	561	470	
0	0	0	0	0	604	471	
1	0	0	0	0	611	475	
2	0	0	0	0	583	476	
3	0	0	0	0	552	480	
4	0	0	0	0	515	483	
5	0	0	0	0	444	486	
6	0	0	0	0	402	486	
7	0	0	0	0	408	486	
8	0	0	0	0	444	482	
9	0	0	0	0	468	481	
10	0	0	0	0	488	480	
11	0	0	0	0	500	480	
12	0	0	0	0	512	479	
13	0	0	0	0	519	478	
14	0	0	0	0	523	478	
15	0	0	0	0	534	478	
0	0	0	0	0	581	478	
1	0	0	0	0	613	478	
2	0	0	0	0	609	483	
3	0	0	0	0	572	486	
4	0	0	0	0	539	489	
5	0	0	0	0	490	492	
6	0	0	0	0	430	493	
7	0	0	0	0	400	493	
8	0	0	0	0	417	492	
9	0	0	0	0	450	488	
10	0	0	0	0	474	487	
11	0	0	0	0	494	485	
12	0	0	0	0	505	485	
13	0	0	0	0	512	484	
14	0	0	0	0	520	483	
15	0	0	0	0	524	482	
0	0	0	0	0	543	482	
1	0	0	0	0	595	483	
2	0	0	0	0	617	488	
3	0	0	0	0	598	488	
4	0	0	0	0	559	491	
5	0	0	0	0	532	494	
6	0	0	0	0	468	496	
7	0	0	0	0	412	497	
8	0	0	0	0	402	497	
9	0	0	0	0	429	493	
10	0	0	0	0	460	492	
11	0	0	0	0	482	489	
12	0	0	0	0	499	488	
13	0	0	0	0	508	487	
14	0	0	0	0	518	487	
15	0	0	0	0	520	487	
0	0	0	0	0	525	487	
1	0	0	0	0	558	486	
2	0	0	0	0	607	487	
3	0	0	0	0	615	489	
4	0	0	0	0	584	492	
5	0	0	0	0	553	495	
6	0	0	0	0	521	497	
7	0	0	0	0	448	499	
8	0	0	0	0	402	500	
9	0	0	0	0	406	499	
10	0	0	0	0	442	496	
11	0	0	0	0	467	494	
12	0	0	0	0	489	493	
13	0	0	0	0	502	492	
14	0	0	0	0	511	491	
15	0	0	0	0	518	491	
0	0	0	0	0	522	489	
1	0	0	0	0	532	488	
2	0	0	0	0	575	488	
3	0	0	0	0	614	489	
4	0	0	0	0	608	493	
5	0	0	0	0	574	496	
6	0	0	0	0	544	498	
7	0	0	0	0	493	500	
8	0	0	0	0	428	502	
9	0	0	0	0	398	502	
10	0	0	0	0	415	500	
11	0	0	0	0	450	497	
12	0	0	0	0	473	496	
13	0	0	0	0	493	496	
14	0	0	0	0	507	495	
15	0	0	0	0	515	494	
0	0	0	0	0	521	493	
1	0	0	0	0	523	492	
2	0	0	0	0	540	492	
3	0	0	0	0	591	492	
4	0	0	0	0	618	498	
5	0	0	0	0	598	497	
6	0	0	0	0	562	500	
7	0	0	0	0	534	503	
8	0	0	0	0	475	504	
9	0	0	0	0	418	505	
10	0	0	0	0	402	504	
11	0	0	0	0	428	503	
12	0	0	0	0	455	499	
13	0	0	0	0	480	498	
14	0	0	0	0	495	497	
15	0	0	0	0	508	496	
0	0	0	0	0	515	495	
1	0	0	0	0	521	494	
2	0	0	0	0	526	492	
3	0	0	0	0	559	492	
4	0	0	0	0	605	491	
5	0	0	0	0	613	494	
6	0	0	0	0	584	496	
7	0	0	0	0	550	499	
8	0	0	0	0	521	501	
9	0	0	0	0	450	503	
10	0	0	0	0	405	503	
11	0	0	0	0	408	501	
12	0	0	0	0	443	497	
13	0	0	0	0	465	496	
14	0	0	0	0	487	494	
15	0	0	0	0	502	493	
0	0	0	0	0	508	492	
1	0	0	0	0	515	492	
2	0	0	0	0	520	492	
3	0	0	0	0	534	491	
4	0	0	0	0	576	491	
5	0	0	0	0	614	493	
6	0	0	0	0	611	497	
7	0	0	0	0	575	499	
8	0	0	0	0	542	502	
9	0	0	0	0	495	504	
10	0	0	0	0	430	506	
11	0	0	0	0	400	507	
12	0	0	0	0	416	505	
13	0	0	0	0	451	502	
14	0	0	0	0	471	500	
15	0	0	0	0	491	499	
0	0	0	0	0	505	497	
1	0	0	0	0	513	496	
2	0	0	0	0	520	496	
3	0	0	0	0	522	495	
4	0	0	0	0	539	495	
5	0	0	0	0	592	496	
6	0	0	0	0	619	497	
7	0	0	0	0	598	501	
8	0	0	0	0	563	504	
9	0	0	0	0	535	506	
10	0	0	0	0	476	509	
11	0	0	0	0	418	510	
12	0	0	0	0	400	509	
13	0	0	0	0	427	506	
14	0	0	0	0	455	503	
15	0	0	0	0	480	501	
0	0	0	0	0	496	500	
1	0	0	0	0	508	499	
2	0	0	0	0	514	499	
3	0	0	0	0	518	499	
4	0	0	0	0	524	499	
5	0	0	0	0	555	500	
6	0	0	0	0	602	501	
7	0	0	0	0	612	505	
8	0	0	0	0	587	508	
9	0	0	0	0	553	511	
10	0	0	0	0	524	515	
11	0	0	0	0	452	517	
12	0	0	0	0	406	517	
13	0	0	0	0	405	516	
14	0	0	0	0	440	512	
15	0	0	0	0	463	511	
0	0	0	0	0	486	510	
1	0	0	0	0	503	509	
2	0	0	0	0	512	508	
3	0	0	0	0	521	507	
4	0	0	0	0	523	507	
5	0	0	0	0	530	506	
6	0	0	0	0	572	506	
7	0	0	0	0	613	507	
8	0	0	0	0	611	511	
9	0	0	0	0	575	513	
10	0	0	0	0	542	516	
11	0	0	0	0	499	519	
12	0	0	0	0	432	520	
13	0	0	0	0	397	520	
14	0	0	0	0	413	518	
15	0	0	0	0	450	514	
0	0	0	0	0	473	512	
1	0	0	0	0	494	511	
2	0	0	0	0	503	510	
3	0	0	0	0	513	509	
4	0	0	0	0	519	508	
5	0	0	0	0	525	507	
6	0	0	0	0	539	506	
7	0	0	0	0	590	505	
8	0	0	0	0	614	506	
9	0	0	0	0	599	509	
10	0	0	0	0	566	512	
11	0	0	0	0	539	515	
12	0	0	0	0	479	517	
13	0	0	0	0	419	518	
14	0	0	0	0	403	517	
15	0	0	0	0	423	515	
0	0	0	0	0	455	512	
1	0	0	0	0	478	512	
2	0	0	0	0	498	512	
3	0	0	0	0	508	512	
4	0	0	0	0	514	510	
5	0	0	0	0	519	508	
6	0	0	0	0	525	507	
7	0	0	0	0	552	506	
8	0	0	0	0	600	506	
9	0	0	0	0	614	510	
10	0	0	0	0	588	512	
11	0	0	0	0	556	515	
12	0	0	0	0	523	518	
13	0	0	0	0	454	519	
14	0	0	0	0	406	520	
15	0	0	0	0	404	519	
0	0	0	0	0	441	516	
1	0	0	0	0	464	514	
2	0	0	0	0	486	512	
3	0	0	0	0	502	511	
4	0	0	0	0	511	510	
5	0	0	0	0	518	509	
6	0	0	0	0	522	508	
7	0	0	0	0	527	508	
8	0	0	0	0	574	508	
9	0	0	0	0	613	509	
10	0	0	0	0	611	512	
11	0	0	0	0	576	514	
12	0	0	0	0	546	518	
13	0	0	0	0	500	521	
14	0	0	0	0	433	522	
15	0	0	0	0	398	523	
0	0	0	0	0	414	521	
1	0	0	0	0	449	519	
2	0	0	0	0	472	517	
3	0	0	0	0	491	516	
4	0	0	0	0	504	515	
5	0	0	0	0	513	514	
6	0	0	0	0	520	513	
7	0	0	0	0	521	511	
8	0	0	0	0	537	509	
9	0	0	0	0	587	508	
10	0	0	0	0	616	509	
11	0	0	0	0	603	512	
12	0	0	0	0	566	515	
13	0	0	0	0	536	517	
14	0	0	0	0	478	519	
15	0	0	0	0	420	519	
0	0	0	0	0	400	519	
1	0	0	0	0	422	517	
2	0	0	0	0	455	513	
3	0	0	0	0	478	512	
4	0	0	0	0	496	510	
5	0	0	0	0	507	509	
6	0	0	0	0	515	508	
7	0	0	0	0	521	507	
8	0	0	0	0	524	506	
9	0	0	0	0	552	505	
10	0	0	0	0	599	504	
11	0	0	0	0	613	507	
12	0	0	0	0	590	510	
13	0	0	0	0	558	513	
14	0	0	0	0	528	515	
15	0	0	0	0	458	517	
0	0	0	0	0	405	517	
1	0	0	0	0	402	516	
2	0	0	0	0	435	514	
3	0	0	0	0	462	511	
4	0	0	0	0	484	509	
5	0	0	0	0	501	508	
6	0	0	0	0	510	508	
7	0	0	0	0	517	507	
8	0	0	0	0	522	505	
9	0	0	0	0	529	505	
10	0	0	0	0	569	505	
11	0	0	0	0	610	505	
12	0	0	0	0	611	509	
13	0	0	0	0	577	511	
14	0	0	0	0	545	513	
15	0	0	0	0	502	515	
0	0	0	0	0	437	517	
1	0	0	0	0	400	517	
2	0	0	0	0	409	516	
3	0	0	0	0	449	512	
4	0	0	0	0	470	510	
5	0	0	0	0	493	508	
6	0	0	0	0	504	508	
7	0	0	0	0	512	507	
8	0	0	0	0	518	505	
9	0	0	0	0	523	505	
10	0	0	0	0	540	504	
11	0	0	0	0	588	504	
12	0	0	0	0	618	504	
13	0	0	0	0	602	508	
14	0	0	0	0	566	511	
15	0	0	0	0	537	514	
0	0	0	0	0	481	517	
1	0	0	0	0	421	517	
2	0	0	0	0	399	516	
3	0	0	0	0	423	513	
4	0	0	0	0	455	508	
5	0	0	0	0	480	507	
6	0	0	0	0	497	505	
7	0	0	0	0	507	505	
8	0	0	0	0	512	504	
9	0	0	0	0	518	503	
10	0	0	0	0	526	503	
11	0	0	0	0	550	502	
12	0	0	0	0	601	502	
13	0	0	0	0	615	504	
14	0	0	0	0	589	506	
15	0	0	0	0	555	508	
0	0	0	0	0	529	511	
1	0	0	0	0	459	512	
2	0	0	0	0	408	513	
3	0	0	0	0	404	511	
4	0	0	0	0	432	508	
5	0	0	0	0	466	505	
6	0	0	0	0	485	503	
7	0	0	0	0	498	502	
8	0	0	0	0	509	502	
9	0	0	0	0	519	502	
10	0	0	0	0	522	501	
11	0	0	0	0	529	500	
12	0	0	0	0	567	499	
13	0	0	0	0	610	500	
14	0	0	0	0	611	503	
15	0	0	0	0	582	507	
0	0	0	0	0	546	510	
1	0	0	0	0	508	512	
2	0	0	0	0	438	514	
3	0	0	0	0	399	514	
4	0	0	0	0	409	512	
5	0	0	0	0	447	509	
6	0	0	0	0	468	508	
7	0	0	0	0	492	505	
8	0	0	0	0	504	504	
9	0	0	0	0	513	502	
10	0	0	0	0	520	501	
11	0	0	0	0	521	500	
12	0	0	0	0	536	499	
13	0	0	0	0	586	499	
14	0	0	0	0	616	499	
15	0	0	0	0	605	503	
0	0	0	0	0	568	505	
1	0	0	0	0	536	508	
2	0	0	0	0	483	511	
3	0	0	0	0	422	512	
4	0	0	0	0	399	512	
5	0	0	0	0	422	511	
6	0	0	0	0	453	507	
7	0	0	0	0	477	507	
8	0	0	0	0	493	505	
9	0	0	0	0	506	505	
10	0	0	0	0	515	504	
11	0	0	0	0	519	503	
12	0	0	0	0	522	503	
13	0	0	0	0	547	502	
14	0	0	0	0	598	502	
15	0	0	0	0	616	506	
0	0	0	0	0	591	507	
1	0	0	0	0	558	510	
2	0	0	0	0	530	513	
3	0	0	0	0	466	515	
4	0	0	0	0	411	516	
5	0	0	0	0	402	514	
6	0	0	0	0	436	512	
7	0	0	0	0	463	510	
8	0	0	0	0	487	509	
9	0	0	0	0	498	509	
10	0	0	0	0	510	508	
11	0	0	0	0	515	507	
12	0	0	0	0	520	505	
13	0	0	0	0	527	505	
14	0	0	0	0	568	505	
15	0	0	0	0	608	506	
0	0	0	0	0	615	510	
1	0	0	0	0	582	513	
2	0	0	0	0	547	516	
3	0	0	0	0	508	519	
4	0	0	0	0	441	520	
5	0	0	0	0	401	520	
6	0	0	0	0	410	519	
7	0	0	0	0	446	516	
8	0	0	0	0	471	515	
9	0	0	0	0	491	514	
10	0	0	0	0	502	513	
11	0	0	0	0	511	513	
12	0	0	0	0	515	512	
13	0	0	0	0	522	512	
14	0	0	0	0	533	511	
15	0	0	0	0	582	511	
0	0	0	0	0	615	512	
1	0	0	0	0	602	515	
2	0	0	0	0	568	517	
3	0	0	0	0	540	521	
4	0	0	0	0	485	524	
5	0	0	0	0	423	525	
6	0	0	0	0	398	525	
7	0	0	0	0	417	524	
8	0	0	0	0	454	519	
9	0	0	0	0	476	518	
10	0	0	0	0	496	516	
11	0	0	0	0	508	515	
12	0	0	0	0	514	513	
13	0	0	0	0	520	512	
14	0	0	0	0	522	511	
15	0	0	0	0	543	511	
0	0	0	0	0	594	511	
1	0	0	0	0	616	514	
2	0	0	0	0	591	516	
3	0	0	0	0	558	518	
4	0	0	0	0	534	521	
5	0	0	0	0	467	524	
6	0	0	0	0	414	524	
7	0	0	0	0	403	524	
8	0	0	0	0	435	522	
9	0	0	0	0	463	520	
10	0	0	0	0	486	519	
11	0	0	0	0	501	519	
12	0	0	0	0	510	518	
13	0	0	0	0	518	517	
14	0	0	0	0	521	516	
15	0	0	0	0	529	516	
0	0	0	0	0	562	515	
1	0	0	0	0	606	515	
2	0	0	0	0	611	519	
3	0	0	0	0	583	521	
4	0	0	0	0	552	525	
5	0	0	0	0	518	527	
6	0	0	0	0	447	529	
7	0	0	0	0	404	530	
8	0	0	0	0	411	529	
9	0	0	0	0	444	526	
10	0	0	0	0	468	524	
11	0	0	0	0	489	523	
12	0	0	0	0	503	522	
13	0	0	0	0	512	521	
14	0	0	0	0	519	522	
15	0	0	0	0	521	522	
0	0	0	0	0	535	521	
1	0	0	0	0	581	521	
2	0	0	0	0	615	522	
3	0	0	0	0	607	526	
4	0	0	0	0	571	528	
5	0	0	0	0	542	530	
6	0	0	0	0	490	532	
7	0	0	0	0	427	533	
8	0	0	0	0	401	532	
9	0	0	0	0	419	531	
10	0	0	0	0	452	527	
11	0	0	0	0	477	526	
12	0	0	0	0	496	525	
13	0	0	0	0	506	523	
14	0	0	0	0	515	522	
15	0	0	0	0	518	521	
0	0	0	0	0	521	520	
1	0	0	0	0	543	519	
2	0	0	0	0	593	518	
3	0	0	0	0	617	521	
4	0	0	0	0	593	522	
5	0	0	0	0	562	525	
6	0	0	0	0	533	527	
7	0	0	0	0	471	528	
8	0	0	0	0	413	527	
9	0	0	0	0	400	525	
10	0	0	0	0	426	520	
11	0	0	0	0	459	518	
12	0	0	0	0	482	515	
13	0	0	0	0	499	514	
14	0	0	0	0	508	512	
15	0	0	0	0	516	511	
0	0	0	0	0	520	509	
1	0	0	0	0	524	509	
2	0	0	0	0	559	508	
3	0	0	0	0	606	508	
4	0	0	0	0	614	511	
5	0	0	0	0	584	513	
6	0	0	0	0	550	516	
7	0	0	0	0	515	518	
8	0	0	0	0	445	520	
9	0	0	0	0	403	519	
10	0	0	0	0	409	517	
11	0	0	0	0	443	512	
12	0	0	0	0	469	511	
13	0	0	0	0	489	509	
14	0	0	0	0	502	508	
15	0	0	0	0	512	506	
0	0	0	0	0	518	506	
1	0	0	0	0	521	505	
2	0	0	0	0	533	504	
3	0	0	0	0	580	504	
4	0	0	0	0	611	506	
5	0	0	0	0	604	510	
6	0	0	0	0	573	513	
7	0	0	0	0	542	515	
8	0	0	0	0	491	516	
9	0	0	0	0	426	518	
10	0	0	0	0	399	516	
11	0	0	0	0	413	515	
12	0	0	0	0	452	511	
13	0	0	0	0	475	509	
14	0	0	0	0	493	508	
15	0	0	0	0	505	507	
0	0	0	0	0	513	506	
1	0	0	0	0	519	504	
2	0	0	0	0	521	504	
3	0	0	0	0	542	503	
4	0	0	0	0	591	503	
5	0	0	0	0	617	507	
6	0	0	0	0	597	507	
7	0	0	0	0	560	510	
8	0	0	0	0	531	513	
9	0	0	0	0	472	515	
10	0	0	0	0	415	515	
11	0	0	0	0	403	514	
12	0	0	0	0	430	511	
13	0	0	0	0	459	510	
14	0	0	0	0	482	508	
15	0	0	0	0	497	507	
0	0	0	0	0	509	506	
1	0	0	0	0	517	505	
2	0	0	0	0	521	504	
3	0	0	0	0	525	503	
4	0	0	0	0	561	503	
5	0	0	0	0	603	503	
6	0	0	0	0	612	507	
7	0	0	0	0	582	510	
8	0	0	0	0	549	514	
9	0	0	0	0	517	518	
10	0	0	0	0	448	520	
11	0	0	0	0	401	521	
12	0	0	0	0	402	521	
13	0	0	0	0	435	519	
14	0	0	0	0	459	519	
15	0	0	0	0	479	519	
0	0	0	0	0	492	521	
1	0	0	0	0	500	521	
2	0	0	0	0	506	522	
3	0	0	0	0	509	522	
4	0	0	0	0	518	523	
5	0	0	0	0	563	526	
6	0	0	0	0	600	529	
7	0	0	0	0	600	535	
8	0	0	0	0	569	540	
9	0	0	0	0	539	547	
10	0	0	0	0	494	553	
11	0	0	0	0	434	558	
12	0	0	0	0	412	562	
13	0	0	0	0	427	566	
14	0	0	0	0	462	567	
15	0	0	0	0	488	570	
0	0	0	0	0	511	572	
1	0	0	0	0	526	575	
2	0	0	0	0	535	576	
3	0	0	0	0	539	577	
4	0	0	0	0	548	579	
5	0	0	0	0	563	580	
6	0	0	0	0	613	581	
7	0	0	0	0	640	582	
8	0	0	0	0	616	582	
9	0	0	0	0	582	579	
10	0	0	0	0	551	575	
11	0	0	0	0	492	570	
12	0	0	0	0	431	561	
13	0	0	0	0	414	550	
14	0	0	0	0	436	536	
15	0	0	0	0	460	520	
0	0	0	0	0	478	510	
1	0	0	0	0	493	502	
2	0	0	0	0	509	495	
3	0	0	0	0	515	490	
4	0	0	0	0	519	485	
5	0	0	0	0	521	483	
6	0	0	0	0	544	480	
7	0	0	0	0	587	477	
8	0	0	0	0	597	477	
9	0	0	0	0	567	475	
10	0	0	0	0	530	472	
11	0	0	0	0	498	467	
12	0	0	0	0	430	462	
13	0	0	0	0	385	455	
14	0	0	0	0	394	447	
15	0	0	0	0	437	440	
0	0	0	0	0	463	435	
1	0	0	0	0	485	432	
2	0	0	0	0	501	430	
3	0	0	0	0	510	430	
4	0	0	0	0	520	431	
5	0	0	0	0	523	432	
6	0	0	0	0	534	433	
7	0	0	0	0	576	435	
8	0	0	0	0	614	438	
9	0	0	0	0	609	443	
10	0	0	0	0	575	447	
11	0	0	0	0	543	452	
12	0	0	0	0	495	457	
13	0	0	0	0	427	462	
14	0	0	0	0	396	464	
15	0	0	0	0	406	466	
0	0	0	0	0	442	466	
1	0	0	0	0	462	468	
2	0	0	0	0	480	471	
3	0	0	0	0	492	474	
4	0	0	0	0	501	478	
5	0	0	0	0	510	480	
6	0	0	0	0	513	482	
7	0	0	0	0	529	484	
8	0	0	0	0	583	487	
9	0	0	0	0	609	492	
10	0	0	0	0	594	497	
11	0	0	0	0	561	503	
12	0	0	0	0	531	508	
13	0	0	0	0	475	512	
14	0	0	0	0	417	514	
15	0	0	0	0	401	514	
0	0	0	0	0	431	514	
1	0	0	0	0	462	511	
2	0	0	0	0	486	511	
3	0	0	0	0	504	512	
4	0	0	0	0	513	512	
5	0	0	0	0	521	512	
6	0	0	0	0	527	512	
7	0	0	0	0	531	512	
8	0	0	0	0	563	511	
9	0	0	0	0	609	512	
10	0	0	0	0	619	515	
11	0	0	0	0	591	518	
12	0	0	0	0	556	520	
13	0	0	0	0	526	522	
14	0	0	0	0	458	524	
15	0	0	0	0	409	524	
0	0	0	0	0	407	522	
1	0	0	0	0	442	520	
2	0	0	0	0	469	518	
3	0	0	0	0	487	516	
4	0	0	0	0	503	515	
5	0	0	0	0	512	514	
6	0	0	0	0	519	513	
7	0	0	0	0	522	512	
8	0	0	0	0	532	511	
9	0	0	0	0	574	510	
10	0	0	0	0	613	510	
11	0	0	0	0	611	513	
12	0	0	0	0	576	517	
13	0	0	0	0	545	519	
14	0	0	0	0	499	523	
15	0	0	0	0	434	524	
0	0	0	0	0	400	525	
1	0	0	0	0	413	523	
2	0	0	0	0	451	519	
3	0	0	0	0	471	519	
4	0	0	0	0	493	517	
5	0	0	0	0	504	517	
6	0	0	0	0	514	516	
7	0	0	0	0	519	515	
8	0	0	0	0	524	515	
9	0	0	0	0	539	514	
10	0	0	0	0	589	514	
11	0	0	0	0	615	517	
12	0	0	0	0	598	519	
13	0	0	0	0	564	522	
14	0	0	0	0	536	525	
15	0	0	0	0	478	527	
0	0	0	0	0	418	527	
1	0	0	0	0	399	527	
2	0	0	0	0	426	526	
3	0	0	0	0	459	522	
4	0	0	0	0	481	520	
5	0	0	0	0	497	518	
6	0	0	0	0	508	517	
7	0	0	0	0	514	516	
8	0	0	0	0	520	515	
9	0	0	0	0	524	514	
10	0	0	0	0	550	514	
11	0	0	0	0	601	514	
12	0	0	0	0	617	518	
13	0	0	0	0	590	519	
14	0	0	0	0	554	522	
15	0	0	0	0	526	524	
0	0	0	0	0	455	526	
1	0	0	0	0	407	526	
2	0	0	0	0	407	525	
3	0	0	0	0	436	519	
4	0	0	0	0	465	519	
5	0	0	0	0	485	519	
6	0	0	0	0	500	518	
7	0	0	0	0	510	517	
8	0	0	0	0	518	516	
9	0	0	0	0	521	515	
10	0	0	0	0	529	515	
11	0	0	0	0	571	515	
12	0	0	0	0	609	515	
13	0	0	0	0	609	519	
14	0	0	0	0	577	521	
15	0	0	0	0	544	524	
0	0	0	0	0	502	527	
1	0	0	0	0	435	528	
2	0	0	0	0	403	527	
3	0	0	0	0	414	526	
4	0	0	0	0	449	521	
5	0	0	0	0	470	520	
6	0	0	0	0	492	518	
7	0	0	0	0	503	518	
8	0	0	0	0	513	517	
9	0	0	0	0	520	516	
10	0	0	0	0	523	515	
11	0	0	0	0	536	513	
12	0	0	0	0	586	514	
13	0	0	0	0	615	515	
14	0	0	0	0	602	519	
15	0	0	0	0	566	521	
0	0	0	0	0	535	524	
1	0	0	0	0	477	526	
2	0	0	0	0	418	527	
3	0	0	0	0	401	526	
4	0	0	0	0	422	523	
5	0	0	0	0	456	519	
6	0	0	0	0	479	518	
7	0	0	0	0	496	516	
8	0	0	0	0	507	515	
9	0	0	0	0	515	514	
10	0	0	0	0	519	513	
11	0	0	0	0	524	512	
12	0	0	0	0	551	512	
13	0	0	0	0	599	512	
14	0	0	0	0	615	516	
15	0	0	0	0	591	518	
0	0	0	0	0	554	521	
1	0	0	0	0	527	523	
2	0	0	0	0	459	524	
3	0	0	0	0	407	525	
4	0	0	0	0	403	524	
5	0	0	0	0	435	521	
6	0	0	0	0	463	519	
7	0	0	0	0	486	517	
8	0	0	0	0	501	516	
9	0	0	0	0	509	515	
10	0	0	0	0	515	514	
11	0	0	0	0	523	512	
12	0	0	0	0	529	511	
13	0	0	0	0	567	511	
14	0	0	0	0	610	511	
15	0	0	0	0	613	514	
0	0	0	0	0	577	516	
1	0	0	0	0	544	519	
2	0	0	0	0	507	521	
3	0	0	0	0	439	523	
4	0	0	0	0	401	523	
5	0	0	0	0	411	521	
6	0	0	0	0	447	517	
7	0	0	0	0	472	516	
8	0	0	0	0	487	515	
9	0	0	0	0	502	515	
10	0	0	0	0	512	514	
11	0	0	0	0	519	513	
12	0	0	0	0	522	512	
13	0	0	0	0	538	511	
14	0	0	0	0	585	512	
15	0	0	0	0	615	513	
0	0	0	0	0	600	518	
1	0	0	0	0	565	521	
2	0	0	0	0	538	524	
3	0	0	0	0	481	527	
4	0	0	0	0	420	529	
5	0	0	0	0	399	529	
6	0	0	0	0	420	528	
7	0	0	0	0	454	525	
8	0	0	0	0	477	524	
9	0	0	0	0	496	524	
10	0	0	0	0	508	524	
11	0	0	0	0	514	523	
12	0	0	0	0	521	523	
13	0	0	0	0	523	522	
14	0	0	0	0	548	521	
15	0	0	0	0	599	521	
0	0	0	0	0	612	524	
1	0	0	0	0	592	526	
2	0	0	0	0	558	529	
3	0	0	0	0	529	531	
4	0	0	0	0	462	533	
5	0	0	0	0	410	534	
6	0	0	0	0	403	532	
7	0	0	0	0	432	528	
8	0	0	0	0	459	526	
9	0	0	0	0	485	526	
10	0	0	0	0	503	525	
11	0	0	0	0	511	523	
12	0	0	0	0	517	521	
13	0	0	0	0	521	520	
14	0	0	0	0	527	519	
15	0	0	0	0	566	519	
0	0	0	0	0	607	519	
1	0	0	0	0	613	523	
2	0	0	0	0	579	526	
3	0	0	0	0	545	528	
4	0	0	0	0	507	531	
5	0	0	0	0	440	533	
6	0	0	0	0	400	532	
7	0	0	0	0	410	531	
8	0	0	0	0	446	527	
9	0	0	0	0	469	526	
10	0	0	0	0	490	525	
11	0	0	0	0	505	524	
12	0	0	0	0	514	524	
13	0	0	0	0	518	523	
14	0	0	0	0	524	522	
15	0	0	0	0	536	521	
0	0	0	0	0	585	521	
1	0	0	0	0	615	521	
2	0	0	0	0	606	525	
3	0	0	0	0	568	528	
4	0	0	0	0	541	531	
5	0	0	0	0	486	533	
6	0	0	0	0	424	534	
7	0	0	0	0	401	533	
8	0	0	0	0	422	531	
9	0	0	0	0	454	526	
10	0	0	0	0	477	525	
11	0	0	0	0	496	523	
12	0	0	0	0	508	522	
13	0	0	0	0	515	520	
14	0	0	0	0	522	519	
15	0	0	0	0	524	517	
0	0	0	0	0	548	516	
1	0	0	0	0	601	515	
2	0	0	0	0	615	519	
3	0	0	0	0	593	520	
4	0	0	0	0	558	522	
5	0	0	0	0	531	524	
6	0	0	0	0	467	524	
7	0	0	0	0	414	525	
8	0	0	0	0	404	524	
9	0	0	0	0	432	519	
10	0	0	0	0	462	518	
11	0	0	0	0	486	516	
12	0	0	0	0	503	515	
13	0	0	0	0	513	513	
14	0	0	0	0	519	511	
15	0	0	0	0	524	509	
0	0	0	0	0	531	506	
1	0	0	0	0	564	505	
2	0	0	0	0	611	504	
3	0	0	0	0	616	505	
4	0	0	0	0	582	506	
5	0	0	0	0	552	507	
6	0	0	0	0	515	509	
7	0	0	0	0	446	508	
8	0	0	0	0	404	507	
9	0	0	0	0	412	504	
10	0	0	0	0	446	498	
11	0	0	0	0	472	495	
12	0	0	0	0	490	492	
13	0	0	0	0	503	491	
14	0	0	0	0	513	489	
15	0	0	0	0	521	487	
0	0	0	0	0	523	486	
1	0	0	0	0	535	483	
2	0	0	0	0	582	483	
3	0	0	0	0	615	483	
4	0	0	0	0	608	485	
5	0	0	0	0	572	486	
6	0	0	0	0	542	487	
7	0	0	0	0	487	488	
8	0	0	0	0	425	488	
9	0	0	0	0	402	487	
10	0	0	0	0	419	485	
11	0	0	0	0	455	480	
12	0	0	0	0	475	478	
13	0	0	0	0	494	476	
14	0	0	0	0	506	475	
15	0	0	0	0	516	474	
0	0	0	0	0	519	472	
1	0	0	0	0	523	471	
2	0	0	0	0	545	470	
3	0	0	0	0	594	469	
4	0	0	0	0	614	472	
5	0	0	0	0	593	473	
6	0	0	0	0	558	476	
7	0	0	0	0	528	478	
8	0	0	0	0	465	479	
9	0	0	0	0	409	479	
10	0	0	0	0	399	478	
11	0	0	0	0	429	475	
12	0	0	0	0	459	472	
13	0	0	0	0	483	470	
14	0	0	0	0	496	469	
15	0	0	0	0	508	468	
0	0	0	0	0	518	468	
1	0	0	0	0	522	467	
2	0	0	0	0	524	467	
3	0	0	0	0	558	466	
4	0	0	0	0	605	467	
5	0	0	0	0	613	470	
6	0	0	0	0	580	472	
7	0	0	0	0	547	474	
8	0	0	0	0	513	476	
9	0	0	0	0	445	478	
10	0	0	0	0	401	478	
11	0	0	0	0	408	478	
12	0	0	0	0	440	474	
13	0	0	0	0	467	472	
14	0	0	0	0	486	470	
15	0	0	0	0	500	468	
0	0	0	0	0	512	466	
1	0	0	0	0	516	465	
2	0	0	0	0	518	463	
3	0	0	0	0	533	462	
4	0	0	0	0	577	462	
5	0	0	0	0	613	463	
6	0	0	0	0	607	466	
7	0	0	0	0	571	468	
8	0	0	0	0	540	471	
9	0	0	0	0	490	473	
10	0	0	0	0	426	475	
11	0	0	0	0	400	473	
12	0	0	0	0	417	472	
13	0	0	0	0	453	469	
14	0	0	0	0	476	469	
15	0	0	0	0	492	468	
0	0	0	0	0	504	468	
1	0	0	0	0	513	467	
2	0	0	0	0	519	466	
3	0	0	0	0	521	466	
4	0	0	0	0	541	465	
5	0	0	0	0	592	465	
6	0	0	0	0	617	470	
7	0	0	0	0	597	472	
8	0	0	0	0	559	475	
9	0	0	0	0	531	478	
10	0	0	0	0	472	480	
11	0	0	0	0	412	482	
12	0	0	0	0	401	482	
13	0	0	0	0	428	480	
14	0	0	0	0	461	478	
15	0	0	0	0	480	476	
0	0	0	0	0	498	475	
1	0	0	0	0	510	473	
2	0	0	0	0	515	473	
3	0	0	0	0	522	472	
4	0	0	0	0	526	472	
5	0	0	0	0	560	472	
6	0	0	0	0	606	473	
7	0	0	0	0	612	477	
8	0	0	0	0	584	480	
9	0	0	0	0	550	483	
10	0	0	0	0	515	486	
11	0	0	0	0	447	487	
12	0	0	0	0	404	488	
13	0	0	0	0	407	487	
14	0	0	0	0	441	484	
15	0	0	0	0	465	483	
0	0	0	0	0	486	482	
1	0	0	0	0	502	481	
2	0	0	0	0	513	480	
3	0	0	0	0	520	480	
4	0	0	0	0	523	479	
5	0	0	0	0	534	478	
6	0	0	0	0	578	478	
7	0	0	0	0	614	478	
8	0	0	0	0	606	481	
9	0	0	0	0	572	485	
10	0	0	0	0	543	487	
11	0	0	0	0	494	491	
12	0	0	0	0	428	493	
13	0	0	0	0	399	492	
14	0	0	0	0	417	491	
15	0	0	0	0	450	487	
0	0	0	0	0	472	486	
1	0	0	0	0	494	485	
2	0	0	0	0	506	485	
3	0	0	0	0	515	484	
4	0	0	0	0	522	485	
5	0	0	0	0	523	485	
6	0	0	0	0	542	485	
7	0	0	0	0	593	485	
8	0	0	0	0	617	489	
9	0	0	0	0	598	491	
10	0	0	0	0	560	494	
11	0	0	0	0	533	498	
12	0	0	0	0	473	500	
13	0	0	0	0	416	502	
14	0	0	0	0	401	500	
15	0	0	0	0	428	499	
0	0	0	0	0	460	496	
1	0	0	0	0	482	495	
2	0	0	0	0	498	495	
3	0	0	0	0	509	495	
4	0	0	0	0	515	494	
5	0	0	0	0	523	494	
6	0	0	0	0	524	493	
7	0	0	0	0	556	494	
8	0	0	0	0	602	493	
9	0	0	0	0	616	496	
10	0	0	0	0	585	498	
11	0	0	0	0	549	502	
12	0	0	0	0	520	504	
13	0	0	0	0	451	505	
14	0	0	0	0	404	505	
15	0	0	0	0	408	505	
0	0	0	0	0	443	502	
1	0	0	0	0	465	499	
2	0	0	0	0	487	498	
3	0	0	0	0	501	497	
4	0	0	0	0	513	496	
5	0	0	0	0	518	496	
6	0	0	0	0	523	496	
7	0	0	0	0	531	495	
8	0	0	0	0	575	496	
9	0	0	0	0	613	496	
10	0	0	0	0	609	501	
11	0	0	0	0	575	503	
12	0	0	0	0	542	505	
13	0	0	0	0	495	508	
14	0	0	0	0	432	510	
15	0	0	0	0	402	509	
0	0	0	0	0	415	508	
1	0	0	0	0	451	504	
2	0	0	0	0	475	502	
3	0	0	0	0	493	500	
4	0	0	0	0	503	499	
5	0	0	0	0	511	499	
6	0	0	0	0	516	499	
7	0	0	0	0	524	499	
8	0	0	0	0	540	498	
9	0	0	0	0	591	498	
10	0	0	0	0	617	500	
11	0	0	0	0	600	504	
12	0	0	0	0	562	507	
13	0	0	0	0	534	510	
14	0	0	0	0	477	512	
15	0	0	0	0	417	513	
0	0	0	0	0	403	512	
1	0	0	0	0	427	511	
2	0	0	0	0	460	506	
3	0	0	0	0	480	504	
4	0	0	0	0	497	503	
5	0	0	0	0	507	502	
6	0	0	0	0	517	501	
7	0	0	0	0	522	500	
8	0	0	0	0	525	499	
9	0	0	0	0	552	499	
10	0	0	0	0	603	500	
11	0	0	0	0	616	504	
12	0	0	0	0	586	506	
13	0	0	0	0	553	509	
14	0	0	0	0	524	512	
15	0	0	0	0	453	514	
0	0	0	0	0	407	515	
1	0	0	0	0	405	514	
2	0	0	0	0	441	511	
3	0	0	0	0	464	509	
4	0	0	0	0	486	508	
5	0	0	0	0	501	507	
6	0	0	0	0	512	504	
7	0	0	0	0	518	504	
8	0	0	0	0	522	503	
9	0	0	0	0	533	501	
10	0	0	0	0	572	500	
11	0	0	0	0	609	500	
12	0	0	0	0	608	504	
13	0	0	0	0	576	507	
14	0	0	0	0	546	509	
15	0	0	0	0	500	512	
0	0	0	0	0	435	513	
1	0	0	0	0	400	513	
2	0	0	0	0	415	512	
3	0	0	0	0	450	508	
4	0	0	0	0	471	507	
5	0	0	0	0	491	506	
6	0	0	0	0	506	506	
7	0	0	0	0	513	504	
8	0	0	0	0	520	504	
9	0	0	0	0	523	502	
10	0	0	0	0	537	502	
11	0	0	0	0	588	502	
12	0	0	0	0	618	504	
13	0	0	0	0	602	508	
14	0	0	0	0	565	511	
15	0	0	0	0	536	513	
0	0	0	0	0	476	516	
1	0	0	0	0	418	518	
2	0	0	0	0	401	518	
3	0	0	0	0	425	517	
4	0	0	0	0	456	513	
5	0	0	0	0	479	513	
6	0	0	0	0	499	512	
7	0	0	0	0	508	512	
8	0	0	0	0	515	511	
9	0	0	0	0	523	510	
10	0	0	0	0	524	509	
11	0	0	0	0	551	508	
12	0	0	0	0	600	508	
13	0	0	0	0	614	511	
14	0	0	0	0	588	513	
15	0	0	0	0	554	515	
0	0	0	0	0	527	518	
1	0	0	0	0	457	519	
2	0	0	0	0	404	519	
3	0	0	0	0	405	518	
4	0	0	0	0	438	514	
5	0	0	0	0	463	512	
6	0	0	0	0	486	511	
7	0	0	0	0	500	510	
8	0	0	0	0	511	509	
9	0	0	0	0	518	507	
10	0	0	0	0	524	506	
11	0	0	0	0	531	505	
12	0	0	0	0	569	504	
13	0	0	0	0	610	504	
14	0	0	0	0	612	508	
15	0	0	0	0	578	510	
0	0	0	0	0	546	513	
1	0	0	0	0	505	516	
2	0	0	0	0	438	517	
3	0	0	0	0	400	518	
4	0	0	0	0	412	516	
5	0	0	0	0	448	513	
6	0	0	0	0	471	511	
7	0	0	0	0	490	509	
8	0	0	0	0	503	508	
9	0	0	0	0	511	508	
10	0	0	0	0	518	507	
11	0	0	0	0	519	506	
12	0	0	0	0	537	505	
13	0	0	0	0	589	505	
14	0	0	0	0	617	506	
15	0	0	0	0	602	510	
0	0	0	0	0	567	512	
1	0	0	0	0	537	514	
2	0	0	0	0	484	516	
3	0	0	0	0	424	517	
4	0	0	0	0	398	516	
5	0	0	0	0	423	514	
6	0	0	0	0	455	510	
7	0	0	0	0	477	508	
8	0	0	0	0	496	507	
9	0	0	0	0	508	505	
10	0	0	0	0	515	504	
11	0	0	0	0	522	504	
12	0	0	0	0	523	503	
13	0	0	0	0	551	502	
14	0	0	0	0	600	502	
15	0	0	0	0	611	505	
0	0	0	0	0	590	507	
1	0	0	0	0	555	510	
2	0	0	0	0	528	513	
3	0	0	0	0	462	515	
4	0	0	0	0	408	515	
5	0	0	0	0	403	513	
6	0	0	0	0	438	510	
7	0	0	0	0	463	508	
8	0	0	0	0	486	507	
9	0	0	0	0	500	505	
10	0	0	0	0	510	504	
11	0	0	0	0	517	503	
12	0	0	0	0	522	502	
13	0	0	0	0	530	500	
14	0	0	0	0	568	500	
15	0	0	0	0	610	500	
0	0	0	0	0	610	503	
1	0	0	0	0	578	505	
2	0	0	0	0	547	507	
3	0	0	0	0	508	509	
4	0	0	0	0	436	511	
5	0	0	0	0	400	510	
6	0	0	0	0	412	509	
7	0	0	0	0	445	505	
8	0	0	0	0	471	504	
9	0	0	0	0	492	501	
10	0	0	0	0	503	500	
11	0	0	0	0	512	499	
12	0	0	0	0	520	499	
13	0	0	0	0	523	498	
14	0	0	0	0	535	497	
15	0	0	0	0	584	497	
0	0	0	0	0	616	499	
1	0	0	0	0	605	502	
2	0	0	0	0	567	504	
3	0	0	0	0	535	507	
4	0	0	0	0	485	509	
5	0	0	0	0	425	510	
6	0	0	0	0	403	508	
7	0	0	0	0	423	507	
8	0	0	0	0	455	504	
9	0	0	0	0	477	502	
10	0	0	0	0	494	501	
11	0	0	0	0	508	500	
12	0	0	0	0	514	499	
13	0	0	0	0	520	498	
14	0	0	0	0	521	497	
15	0	0	0	0	547	498	
0	0	0	0	0	600	498	
1	0	0	0	0	614	502	
2	0	0	0	0	590	504	
3	0	0	0	0	556	507	
4	0	0	0	0	530	510	
5	0	0	0	0	463	512	
6	0	0	0	0	411	512	
7	0	0	0	0	404	512	
8	0	0	0	0	436	510	
9	0	0	0	0	462	508	
10	0	0	0	0	484	507	
11	0	0	0	0	500	505	
12	0	0	0	0	511	504	
13	0	0	0	0	517	504	
14	0	0	0	0	523	503	
15	0	0	0	0	528	502	
0	0	0	0	0	567	501	
1	0	0	0	0	611	501	
2	0	0	0	0	614	505	
3	0	0	0	0	580	508	
4	0	0	0	0	547	512	
5	0	0	0	0	509	515	
6	0	0	0	0	440	517	
7	0	0	0	0	398	518	
8	0	0	0	0	408	518	
9	0	0	0	0	443	514	
10	0	0	0	0	468	512	
11	0	0	0	0	490	511	
12	0	0	0	0	504	510	
13	0	0	0	0	513	509	
14	0	0	0	0	517	508	
15	0	0	0	0	522	505	
0	0	0	0	0	535	504	
1	0	0	0	0	583	502	
2	0	0	0	0	615	503	
3	0	0	0	0	604	506	
4	0	0	0	0	568	508	
5	0	0	0	0	541	511	
6	0	0	0	0	486	512	
7	0	0	0	0	426	514	
8	0	0	0	0	399	513	
9	0	0	0	0	421	511	
10	0	0	0	0	451	507	
11	0	0	0	0	475	505	
12	0	0	0	0	493	504	
13	0	0	0	0	506	502	
14	0	0	0	0	513	501	
15	0	0	0	0	523	500	
0	0	0	0	0	522	499	
1	0	0	0	0	543	499	
2	0	0	0	0	594	500	
3	0	0	0	0	622	504	
4	0	0	0	0	594	505	
5	0	0	0	0	558	508	
6	0	0	0	0	532	509	
7	0	0	0	0	467	511	
8	0	0	0	0	413	511	
9	0	0	0	0	400	511	
10	0	0	0	0	435	507	
11	0	0	0	0	460	505	
12	0	0	0	0	483	503	
13	0	0	0	0	500	502	
14	0	0	0	0	508	500	
15	0	0	0	0	516	498	
0	0	0	0	0	521	497	
1	0	0	0	0	527	496	
2	0	0	0	0	563	496	
3	0	0	0	0	607	495	
4	0	0	0	0	611	498	
5	0	0	0	0	582	500	
6	0	0	0	0	552	502	
7	0	0	0	0	515	504	
8	0	0	0	0	444	506	
9	0	0	0	0	405	506	
10	0	0	0	0	408	505	
11	0	0	0	0	442	501	
12	0	0	0	0	467	499	
13	0	0	0	0	489	497	
14	0	0	0	0	500	496	
15	0	0	0	0	511	496	
0	0	0	0	0	518	495	
1	0	0	0	0	523	494	
2	0	0	0	0	536	493	
3	0	0	0	0	582	492	
4	0	0	0	0	615	493	
5	0	0	0	0	603	497	
6	0	0	0	0	569	500	
7	0	0	0	0	539	503	
8	0	0	0	0	490	506	
9	0	0	0	0	425	508	
10	0	0	0	0	399	507	
11	0	0	0	0	419	506	
12	0	0	0	0	452	503	
13	0	0	0	0	474	500	
14	0	0	0	0	496	499	
15	0	0	0	0	506	498	
0	0	0	0	0	515	497	
1	0	0	0	0	519	496	
2	0	0	0	0	523	495	
3	0	0	0	0	543	494	
4	0	0	0	0	596	493	
5	0	0	0	0	617	496	
6	0	0	0	0	592	497	
7	0	0	0	0	560	499	
8	0	0	0	0	533	501	
9	0	0	0	0	470	503	
10	0	0	0	0	413	504	
11	0	0	0	0	402	503	
12	0	0	0	0	430	501	
13	0	0	0	0	459	497	
14	0	0	0	0	483	495	
15	0	0	0	0	496	494	
0	0	0	0	0	509	493	
1	0	0	0	0	517	492	
2	0	0	0	0	521	492	
3	0	0	0	0	527	490	
4	0	0	0	0	560	490	
5	0	0	0	0	606	490	
6	0	0	0	0	613	494	
7	0	0	0	0	584	497	
8	0	0	0	0	551	499	
9	0	0	0	0	516	502	
10	0	0	0	0	445	503	
11	0	0	0	0	402	503	
12	0	0	0	0	407	502	
13	0	0	0	0	443	497	
14	0	0	0	0	468	496	
15	0	0	0	0	487	495	
0	0	0	0	0	503	493	
1	0	0	0	0	511	492	
2	0	0	0	0	518	492	
3	0	0	0	0	521	491	
4	0	0	0	0	532	491	
5	0	0	0	0	577	491	
6	0	0	0	0	612	492	
7	0	0	0	0	608	496	
8	0	0	0	0	572	498	
9	0	0	0	0	543	501	
10	0	0	0	0	492	503	
11	0	0	0	0	428	505	
12	0	0	0	0	399	504	
13	0	0	0	0	416	503	
14	0	0	0	0	453	499	
15	0	0	0	0	475	497	
0	0	0	0	0	492	497	
1	0	0	0	0	505	496	
2	0	0	0	0	512	495	
3	0	0	0	0	519	495	
4	0	0	0	0	523	494	
5	0	0	0	0	543	494	
6	0	0	0	0	593	495	
7	0	0	0	0	619	501	
8	0	0	0	0	598	500	
9	0	0	0	0	561	504	
10	0	0	0	0	533	506	
11	0	0	0	0	473	508	
12	0	0	0	0	415	509	
13	0	0	0	0	402	508	
14	0	0	0	0	427	507	
15	0	0	0	0	459	504	
0	0	0	0	0	480	502	
1	0	0	0	0	497	500	
2	0	0	0	0	509	499	
3	0	0	0	0	515	498	
4	0	0	0	0	522	498	
5	0	0	0	0	527	498	
6	0	0	0	0	556	497	
7	0	0	0	0	606	498	
8	0	0	0	0	612	501	
9	0	0	0	0	586	503	
10	0	0	0	0	553	506	
11	0	0	0	0	522	509	
12	0	0	0	0	449	511	
13	0	0	0	0	405	511	
14	0	0	0	0	406	510	
15	0	0	0	0	440	506	
0	0	0	0	0	465	505	
1	0	0	0	0	487	504	
2	0	0	0	0	501	503	
3	0	0	0	0	510	503	
4	0	0	0	0	518	502	
5	0	0	0	0	520	502	
6	0	0	0	0	532	501	
7	0	0	0	0	575	500	
8	0	0	0	0	611	502	
9	0	0	0	0	608	506	
10	0	0	0	0	573	508	
11	0	0	0	0	544	510	
12	0	0	0	0	495	512	
13	0	0	0	0	430	514	
14	0	0	0	0	397	514	
15	0	0	0	0	414	513	
0	0	0	0	0	447	509	
1	0	0	0	0	471	508	
2	0	0	0	0	491	509	
3	0	0	0	0	505	509	
4	0	0	0	0	512	508	
5	0	0	0	0	521	507	
6	0	0	0	0	523	505	
7	0	0	0	0	539	504	
8	0	0	0	0	590	504	
9	0	0	0	0	618	505	
10	0	0	0	0	597	508	
11	0	0	0	0	560	510	
12	0	0	0	0	534	513	
13	0	0	0	0	474	515	
14	0	0	0	0	419	516	
15	0	0	0	0	399	515	
0	0	0	0	0	425	515	
1	0	0	0	0	458	513	
2	0	0	0	0	481	511	
3	0	0	0	0	499	510	
4	0	0	0	0	510	508	
5	0	0	0	0	519	507	
6	0	0	0	0	524	506	
7	0	0	0	0	527	506	
8	0	0	0	0	557	505	
9	0	0	0	0	604	505	
10	0	0	0	0	615	509	
11	0	0	0	0	589	511	
12	0	0	0	0	552	513	
13	0	0	0	0	519	515	
14	0	0	0	0	453	517	
15	0	0	0	0	406	518	
0	0	0	0	0	409	517	
1	0	0	0	0	443	515	
2	0	0	0	0	467	514	
3	0	0	0	0	486	513	
4	0	0	0	0	503	512	
5	0	0	0	0	511	512	
6	0	0	0	0	519	511	
7	0	0	0	0	523	511	
8	0	0	0	0	532	512	
9	0	0	0	0	575	513	
10	0	0	0	0	613	515	
11	0	0	0	0	611	518	
12	0	0	0	0	576	521	
13	0	0	0	0	542	524	
14	0	0	0	0	497	527	
15	0	0	0	0	431	528	
0	0	0	0	0	399	528	
1	0	0	0	0	415	526	
2	0	0	0	0	451	521	
3	0	0	0	0	473	519	
4	0	0	0	0	493	519	
5	0	0	0	0	507	516	
6	0	0	0	0	515	515	
7	0	0	0	0	522	513	
8	0	0	0	0	523	512	
9	0	0	0	0	538	511	
10	0	0	0	0	588	510	
11	0	0	0	0	612	511	
12	0	0	0	0	600	514	
13	0	0	0	0	561	517	
14	0	0	0	0	533	519	
15	0	0	0	0	475	521	
0	0	0	0	0	419	521	
1	0	0	0	0	402	519	
2	0	0	0	0	423	516	
3	0	0	0	0	459	511	
4	0	0	0	0	480	509	
5	0	0	0	0	496	507	
6	0	0	0	0	505	504	
7	0	0	0	0	516	502	
8	0	0	0	0	519	499	
9	0	0	0	0	523	498	
10	0	0	0	0	551	496	
11	0	0	0	0	603	496	
12	0	0	0	0	612	498	
13	0	0	0	0	587	500	
14	0	0	0	0	552	502	
15	0	0	0	0	526	505	
0	0	0	0	0	456	507	
1	0	0	0	0	406	507	
2	0	0	0	0	405	507	
3	0	0	0	0	439	503	
4	0	0	0	0	463	502	
5	0	0	0	0	486	501	
6	0	0	0	0	500	500	
7	0	0	0	0	512	499	
8	0	0	0	0	517	497	
9	0	0	0	0	522	497	
10	0	0	0	0	530	496	
11	0	0	0	0	569	495	
12	0	0	0	0	611	495	
13	0	0	0	0	608	499	
14	0	0	0	0	576	500	
15	0	0	0	0	545	503	
0	0	0	0	0	503	505	
1	0	0	0	0	434	507	
2	0	0	0	0	401	507	
3	0	0	0	0	412	506	
4	0	0	0	0	448	502	
5	0	0	0	0	472	500	
6	0	0	0	0	490	499	
7	0	0	0	0	503	497	
8	0	0	0	0	514	496	
9	0	0	0	0	518	496	
10	0	0	0	0	524	496	
11	0	0	0	0	538	496	
12	0	0	0	0	587	496	
13	0	0	0	0	615	498	
14	0	0	0	0	599	502	
15	0	0	0	0	566	504	
0	0	0	0	0	536	507	
1	0	0	0	0	479	509	
2	0	0	0	0	422	510	
3	0	0	0	0	399	509	
4	0	0	0	0	423	508	
5	0	0	0	0	455	504	
6	0	0	0	0	480	502	
7	0	0	0	0	496	501	
8	0	0	0	0	508	500	
9	0	0	0	0	516	499	
10	0	0	0	0	520	499	
11	0	0	0	0	524	498	
12	0	0	0	0	549	498	
13	0	0	0	0	599	498	
14	0	0	0	0	615	501	
15	0	0	0	0	590	503	
0	0	0	0	0	556	505	
1	0	0	0	0	530	508	
2	0	0	0	0	458	510	
3	0	0	0	0	407	510	
4	0	0	0	0	403	510	
5	0	0	0	0	432	505	
6	0	0	0	0	462	504	
7	0	0	0	0	481	504	
8	0	0	0	0	496	504	
9	0	0	0	0	504	504	
10	0	0	0	0	510	505	
11	0	0	0	0	511	505	
12	0	0	0	0	516	505	
13	0	0	0	0	557	506	
14	0	0	0	0	596	508	
15	0	0	0	0	600	512	
0	0	0	0	0	563	515	
1	0	0	0	0	533	520	
2	0	0	0	0	496	524	
3	0	0	0	0	430	528	
4	0	0	0	0	396	531	
5	0	0	0	0	409	534	
6	0	0	0	0	447	533	
7	0	0	0	0	478	535	
8	0	0	0	0	500	537	
9	0	0	0	0	517	541	
10	0	0	0	0	527	544	
11	0	0	0	0	535	548	
12	0	0	0	0	538	551	
13	0	0	0	0	556	554	
14	0	0	0	0	604	556	
15	0	0	0	0	638	559	
0	0	0	0	0	627	566	
1	0	0	0	0	590	571	
2	0	0	0	0	559	575	
3	0	0	0	0	508	576	
4	0	0	0	0	446	574	
5	0	0	0	0	419	568	
6	0	0	0	0	436	560	
7	0	0	0	0	471	549	
8	0	0	0	0	493	538	
9	0	0	0	0	510	526	
10	0	0	0	0	511	513	
11	0	0	0	0	512	502	
12	0	0	0	0	515	494	
13	0	0	0	0	521	485	
14	0	0	0	0	549	479	
15	0	0	0	0	599	475	
0	0	0	0	0	613	476	
1	0	0	0	0	585	476	
2	0	0	0	0	541	477	
3	0	0	0	0	514	477	
4	0	0	0	0	445	477	
5	0	0	0	0	390	473	
6	0	0	0	0	381	466	
7	0	0	0	0	407	457	
8	0	0	0	0	440	448	
9	0	0	0	0	470	438	
10	0	0	0	0	492	432	
11	0	0	0	0	507	426	
12	0	0	0	0	515	423	
13	0	0	0	0	518	421	
14	0	0	0	0	524	420	
15	0	0	0	0	566	421	
0	0	0	0	0	611	424	
1	0	0	0	0	616	429	
2	0	0	0	0	583	434	
3	0	0	0	0	546	438	
4	0	0	0	0	508	443	
5	0	0	0	0	440	446	
6	0	0	0	0	400	448	
7	0	0	0	0	409	449	
8	0	0	0	0	444	447	
9	0	0	0	0	464	448	
10	0	0	0	0	484	450	
11	0	0	0	0	494	452	
12	0	0	0	0	504	455	
13	0	0	0	0	508	457	
14	0	0	0	0	509	460	
15	0	0	0	0	524	462	
0	0	0	0	0	571	464	
1	0	0	0	0	605	468	
2	0	0	0	0	596	475	
3	0	0	0	0	561	481	
4	0	0	0	0	534	487	
5	0	0	0	0	480	492	
6	0	0	0	0	418	496	
7	0	0	0	0	395	499	
8	0	0	0	0	416	499	
9	0	0	0	0	452	497	
10	0	0	0	0	479	497	
11	0	0	0	0	499	496	
12	0	0	0	0	511	496	
13	0	0	0	0	521	496	
14	0	0	0	0	527	495	
15	0	0	0	0	529	496	
0	0	0	0	0	552	496	
1	0	0	0	0	604	496	
2	0	0	0	0	624	501	
3	0	0	0	0	601	504	
4	0	0	0	0	564	508	
5	0	0	0	0	534	511	
6	0	0	0	0	472	514	
7	0	0	0	0	415	515	
8	0	0	0	0	406	514	
9	0	0	0	0	434	512	
10	0	0	0	0	464	510	
11	0	0	0	0	487	509	
12	0	0	0	0	502	508	
13	0	0	0	0	512	508	
14	0	0	0	0	518	507	
15	0	0	0	0	522	507	
0	0	0	0	0	528	508	
1	0	0	0	0	562	508	
2	0	0	0	0	610	510	
3	0	0	0	0	617	514	
4	0	0	0	0	584	517	
5	0	0	0	0	548	520	
6	0	0	0	0	514	523	
7	0	0	0	0	443	525	
8	0	0	0	0	401	525	
9	0	0	0	0	408	524	
10	0	0	0	0	444	520	
11	0	0	0	0	466	519	
12	0	0	0	0	489	519	
13	0	0	0	0	504	518	
14	0	0	0	0	511	518	
15	0	0	0	0	516	517	
0	0	0	0	0	522	516	
1	0	0	0	0	535	516	
2	0	0	0	0	579	515	
3	0	0	0	0	616	516	
4	0	0	0	0	609	519	
5	0	0	0	0	569	523	
6	0	0	0	0	541	526	
7	0	0	0	0	490	528	
8	0	0	0	0	426	528	
9	0	0	0	0	398	527	
10	0	0	0	0	416	524	
11	0	0	0	0	452	521	
12	0	0	0	0	476	519	
13	0	0	0	0	493	518	
14	0	0	0	0	505	517	
15	0	0	0	0	514	516	
0	0	0	0	0	521	515	
1	0	0	0	0	523	514	
2	0	0	0	0	543	514	
3	0	0	0	0	596	515	
4	0	0	0	0	617	519	
5	0	0	0	0	595	522	
6	0	0	0	0	560	525	
7	0	0	0	0	533	528	
8	0	0	0	0	470	531	
9	0	0	0	0	414	532	
10	0	0	0	0	400	531	
11	0	0	0	0	429	529	
12	0	0	0	0	459	526	
13	0	0	0	0	480	524	
14	0	0	0	0	496	522	
15	0	0	0	0	508	523	
0	0	0	0	0	516	522	
1	0	0	0	0	523	522	
2	0	0	0	0	530	521	
3	0	0	0	0	561	520	
4	0	0	0	0	607	521	
5	0	0	0	0	617	525	
6	0	0	0	0	583	527	
7	0	0	0	0	550	530	
8	0	0	0	0	515	532	
9	0	0	0	0	447	534	
10	0	0	0	0	399	535	
11	0	0	0	0	404	534	
12	0	0	0	0	440	531	
13	0	0	0	0	467	528	
14	0	0	0	0	489	527	
15	0	0	0	0	503	526	
0	0	0	0	0	512	525	
1	0	0	0	0	517	524	
2	0	0	0	0	520	523	
3	0	0	0	0	534	522	
4	0	0	0	0	577	521	
5	0	0	0	0	615	523	
6	0	0	0	0	608	526	
7	0	0	0	0	574	527	
8	0	0	0	0	543	529	
9	0	0	0	0	493	530	
10	0	0	0	0	428	531	
11	0	0	0	0	399	530	
12	0	0	0	0	414	528	
13	0	0	0	0	451	524	
14	0	0	0	0	474	522	
15	0	0	0	0	492	521	
0	0	0	0	0	504	520	
1	0	0	0	0	514	520	
2	0	0	0	0	518	520	
3	0	0	0	0	520	519	
4	0	0	0	0	541	519	
5	0	0	0	0	593	519	
6	0	0	0	0	620	525	
7	0	0	0	0	599	524	
8	0	0	0	0	565	527	
9	0	0	0	0	532	528	
10	0	0	0	0	472	529	
11	0	0	0	0	415	530	
12	0	0	0	0	401	529	
13	0	0	0	0	428	527	
14	0	0	0	0	457	523	
15	0	0	0	0	480	522	
0	0	0	0	0	496	521	
1	0	0	0	0	509	520	
2	0	0	0	0	517	519	
3	0	0	0	0	521	518	
4	0	0	0	0	526	518	
5	0	0	0	0	556	518	
6	0	0	0	0	604	518	
7	0	0	0	0	615	520	
8	0	0	0	0	588	523	
9	0	0	0	0	551	526	
10	0	0	0	0	522	528	
11	0	0	0	0	450	530	
12	0	0	0	0	406	529	
13	0	0	0	0	405	527	
14	0	0	0	0	441	523	
15	0	0	0	0	463	521	
0	0	0	0	0	487	520	
1	0	0	0	0	500	518	
2	0	0	0	0	510	518	
3	0	0	0	0	515	517	
4	0	0	0	0	519	516	
5	0	0	0	0	531	516	
6	0	0	0	0	573	515	
7	0	0	0	0	612	515	
8	0	0	0	0	609	519	
9	0	0	0	0	576	521	
10	0	0	0	0	543	525	
11	0	0	0	0	496	527	
12	0	0	0	0	430	529	
13	0	0	0	0	399	529	
14	0	0	0	0	415	527	
15	0	0	0	0	449	524	
0	0	0	0	0	472	522	
1	0	0	0	0	491	521	
2	0	0	0	0	503	520	
3	0	0	0	0	514	518	
4	0	0	0	0	519	517	
5	0	0	0	0	525	515	
6	0	0	0	0	540	514	
7	0	0	0	0	591	514	
8	0	0	0	0	617	516	
9	0	0	0	0	598	521	
10	0	0	0	0	564	523	
11	0	0	0	0	535	526	
12	0	0	0	0	475	529	
13	0	0	0	0	415	530	
14	0	0	0	0	399	530	
15	0	0	0	0	425	528	
0	0	0	0	0	455	526	
1	0	0	0	0	479	524	
2	0	0	0	0	497	524	
3	0	0	0	0	510	523	
4	0	0	0	0	518	522	
5	0	0	0	0	520	521	
6	0	0	0	0	522	520	
7	0	0	0	0	553	519	
8	0	0	0	0	604	520	
9	0	0	0	0	616	523	
10	0	0	0	0	589	525	
11	0	0	0	0	554	527	
12	0	0	0	0	523	529	
13	0	0	0	0	455	532	
14	0	0	0	0	406	533	
15	0	0	0	0	402	532	
0	0	0	0	0	439	529	
1	0	0	0	0	465	528	
2	0	0	0	0	488	527	
3	0	0	0	0	501	524	
4	0	0	0	0	510	524	
5	0	0	0	0	517	523	
6	0	0	0	0	521	523	
7	0	0	0	0	532	523	
8	0	0	0	0	573	521	
9	0	0	0	0	613	521	
10	0	0	0	0	611	525	
11	0	0	0	0	578	527	
12	0	0	0	0	546	530	
13	0	0	0	0	500	532	
14	0	0	0	0	433	534	
15	0	0	0	0	399	534	
0	0	0	0	0	413	531	
1	0	0	0	0	448	528	
2	0	0	0	0	474	525	
3	0	0	0	0	490	524	
4	0	0	0	0	503	522	
5	0	0	0	0	514	521	
6	0	0	0	0	519	519	
7	0	0	0	0	522	518	
8	0	0	0	0	539	516	
9	0	0	0	0	591	516	
10	0	0	0	0	618	516	
11	0	0	0	0	604	521	
12	0	0	0	0	568	523	
13	0	0	0	0	537	525	
14	0	0	0	0	481	527	
15	0	0	0	0	420	527	
0	0	0	0	0	400	527	
1	0	0	0	0	424	524	
2	0	0	0	0	457	520	
3	0	0	0	0	482	518	
4	0	0	0	0	497	516	
5	0	0	0	0	508	514	
6	0	0	0	0	516	512	
7	0	0	0	0	522	511	
8	0	0	0	0	524	509	
9	0	0	0	0	552	508	
10	0	0	0	0	604	508	
11	0	0	0	0	617	510	
12	0	0	0	0	595	511	
13	0	0	0	0	557	513	
14	0	0	0	0	529	514	
15	0	0	0	0	458	516	
0	0	0	0	0	409	516	
1	0	0	0	0	408	515	
2	0	0	0	0	440	511	
3	0	0	0	0	467	508	
4	0	0	0	0	487	505	
5	0	0	0	0	500	503	
6	0	0	0	0	512	501	
7	0	0	0	0	518	499	
8	0	0	0	0	523	498	
9	0	0	0	0	532	497	
10	0	0	0	0	571	496	
11	0	0	0	0	613	496	
12	0	0	0	0	614	497	
13	0	0	0	0	579	499	
14	0	0	0	0	547	500	
15	0	0	0	0	504	502	
0	0	0	0	0	440	502	
1	0	0	0	0	400	501	
2	0	0	0	0	414	499	
3	0	0	0	0	448	494	
4	0	0	0	0	473	491	
5	0	0	0	0	493	490	
6	0	0	0	0	505	487	
7	0	0	0	0	513	484	
8	0	0	0	0	519	483	
9	0	0	0	0	522	481	
10	0	0	0	0	535	480	
11	0	0	0	0	586	480	
12	0	0	0	0	616	480	
13	0	0	0	0	602	483	
14	0	0	0	0	569	484	
15	0	0	0	0	537	486	
0	0	0	0	0	483	487	
1	0	0	0	0	419	487	
2	0	0	0	0	396	487	
3	0	0	0	0	418	485	
4	0	0	0	0	452	481	
5	0	0	0	0	477	480	
6	0	0	0	0	495	479	
7	0	0	0	0	507	478	
8	0	0	0	0	515	477	
9	0	0	0	0	518	476	
10	0	0	0	0	522	476	
11	0	0	0	0	549	475	
12	0	0	0	0	600	475	
13	0	0	0	0	615	478	
14	0	0	0	0	590	480	
15	0	0	0	0	554	482	
0	0	0	0	0	527	484	
1	0	0	0	0	460	486	
2	0	0	0	0	408	486	
3	0	0	0	0	401	485	
4	0	0	0	0	436	481	
5	0	0	0	0	460	479	
6	0	0	0	0	481	478	
7	0	0	0	0	499	476	
8	0	0	0	0	508	476	
9	0	0	0	0	518	475	
10	0	0	0	0	521	474	
11	0	0	0	0	527	473	
12	0	0	0	0	567	472	
13	0	0	0	0	611	473	
14	0	0	0	0	609	477	
15	0	0	0	0	579	479	
0	0	0	0	0	545	482	
1	0	0	0	0	509	484	
2	0	0	0	0	439	487	
3	0	0	0	0	399	487	
4	0	0	0	0	407	485	
5	0	0	0	0	444	481	
6	0	0	0	0	468	480	
7	0	0	0	0	487	479	
8	0	0	0	0	502	478	
9	0	0	0	0	511	478	
10	0	0	0	0	518	477	
11	0	0	0	0	520	476	
12	0	0	0	0	535	476	
13	0	0	0	0	584	476	
14	0	0	0	0	616	476	
15	0	0	0	0	606	480	
0	0	0	0	0	567	482	
1	0	0	0	0	537	485	
2	0	0	0	0	484	487	
3	0	0	0	0	422	489	
4	0	0	0	0	397	490	
5	0	0	0	0	420	489	
6	0	0	0	0	453	486	
7	0	0	0	0	475	484	
8	0	0	0	0	495	482	
9	0	0	0	0	505	481	
10	0	0	0	0	514	480	
11	0	0	0	0	520	480	
12	0	0	0	0	524	479	
13	0	0	0	0	548	479	
14	0	0	0	0	598	479	
15	0	0	0	0	615	483	
0	0	0	0	0	595	486	
1	0	0	0	0	556	489	
2	0	0	0	0	528	493	
3	0	0	0	0	466	496	
4	0	0	0	0	410	497	
5	0	0	0	0	402	497	
6	0	0	0	0	430	494	
7	0	0	0	0	460	492	
8	0	0	0	0	483	492	
9	0	0	0	0	501	489	
10	0	0	0	0	510	488	
11	0	0	0	0	515	487	
12	0	0	0	0	521	486	
13	0	0	0	0	526	486	
14	0	0	0	0	564	485	
15	0	0	0	0	608	487	
0	0	0	0	0	614	491	
1	0	0	0	0	583	493	
2	0	0	0	0	547	495	
3	0	0	0	0	512	497	
4	0	0	0	0	439	498	
5	0	0	0	0	400	498	
6	0	0	0	0	407	497	
7	0	0	0	0	446	493	
8	0	0	0	0	471	491	
9	0	0	0	0	491	490	
10	0	0	0	0	503	489	
11	0	0	0	0	514	489	
12	0	0	0	0	522	488	
13	0	0	0	0	524	487	
14	0	0	0	0	536	487	
15	0	0	0	0	582	485	
0	0	0	0	0	615	486	
1	0	0	0	0	608	490	
2	0	0	0	0	571	492	
3	0	0	0	0	541	495	
4	0	0	0	0	486	498	
5	0	0	0	0	420	499	
6	0	0	0	0	398	499	
7	0	0	0	0	416	498	
8	0	0	0	0	451	495	
9	0	0	0	0	474	494	
10	0	0	0	0	495	493	
11	0	0	0	0	507	492	
12	0	0	0	0	513	492	
13	0	0	0	0	518	492	
14	0	0	0	0	520	491	
15	0	0	0	0	543	492	
0	0	0	0	0	597	493	
1	0	0	0	0	621	496	
2	0	0	0	0	597	499	
3	0	0	0	0	558	503	
4	0	0	0	0	530	506	
5	0	0	0	0	467	508	
6	0	0	0	0	412	508	
7	0	0	0	0	400	507	
8	0	0	0	0	429	503	
9	0	0	0	0	460	502	
10	0	0	0	0	485	501	
11	0	0	0	0	499	500	
12	0	0	0	0	510	500	
13	0	0	0	0	517	499	
14	0	0	0	0	521	498	
15	0	0	0	0	527	497	
0	0	0	0	0	561	496	
1	0	0	0	0	609	497	
2	0	0	0	0	615	501	
3	0	0	0	0	585	504	
4	0	0	0	0	551	507	
5	0	0	0	0	517	510	
6	0	0	0	0	442	512	
7	0	0	0	0	399	513	
8	0	0	0	0	404	512	
9	0	0	0	0	443	508	
10	0	0	0	0	468	506	
11	0	0	0	0	490	504	
12	0	0	0	0	503	503	
13	0	0	0	0	512	502	
14	0	0	0	0	520	500	
15	0	0	0	0	521	498	
0	0	0	0	0	531	497	
1	0	0	0	0	579	497	
2	0	0	0	0	615	498	
3	0	0	0	0	608	503	
4	0	0	0	0	572	505	
5	0	0	0	0	542	508	
6	0	0	0	0	491	510	
7	0	0	0	0	426	511	
8	0	0	0	0	396	511	
9	0	0	0	0	415	510	
10	0	0	0	0	453	506	
11	0	0	0	0	478	504	
12	0	0	0	0	494	503	
13	0	0	0	0	504	502	
14	0	0	0	0	516	500	
15	0	0	0	0	520	498	
0	0	0	0	0	524	497	
1	0	0	0	0	544	496	
2	0	0	0	0	595	496	
3	0	0	0	0	621	500	
4	0	0	0	0	597	501	
5	0	0	0	0	563	504	
6	0	0	0	0	534	506	
7	0	0	0	0	470	508	
8	0	0	0	0	414	508	
9	0	0	0	0	398	507	
10	0	0	0	0	425	505	
11	0	0	0	0	460	499	
12	0	0	0	0	482	498	
13	0	0	0	0	499	496	
14	0	0	0	0	507	495	
15	0	0	0	0	515	494	
0	0	0	0	0	519	492	
1	0	0	0	0	524	491	
2	0	0	0	0	559	491	
3	0	0	0	0	608	491	
4	0	0	0	0	619	494	
5	0	0	0	0	585	496	
6	0	0	0	0	550	500	
7	0	0	0	0	519	504	
8	0	0	0	0	446	506	
9	0	0	0	0	399	506	
10	0	0	0	0	404	504	
11	0	0	0	0	440	501	
12	0	0	0	0	466	499	
13	0	0	0	0	491	498	
14	0	0	0	0	503	498	
15	0	0	0	0	512	497	
0	0	0	0	0	518	496	
1	0	0	0	0	523	496	
2	0	0	0	0	532	494	
3	0	0	0	0	577	493	
4	0	0	0	0	615	494	
5	0	0	0	0	609	497	
6	0	0	0	0	574	500	
7	0	0	0	0	543	504	
8	0	0	0	0	495	505	
9	0	0	0	0	426	506	
10	0	0	0	0	394	507	
11	0	0	0	0	412	505	
12	0	0	0	0	448	502	
13	0	0	0	0	475	500	
14	0	0	0	0	494	499	
15	0	0	0	0	507	498	
0	0	0	0	0	514	497	
1	0	0	0	0	520	496	
2	0	0	0	0	524	495	
3	0	0	0	0	538	494	
4	0	0	0	0	591	494	
5	0	0	0	0	622	496	
6	0	0	0	0	601	500	
7	0	0	0	0	563	502	
8	0	0	0	0	531	504	
9	0	0	0	0	472	507	
10	0	0	0	0	412	508	
11	0	0	0	0	396	507	
12	0	0	0	0	425	506	
13	0	0	0	0	461	501	
14	0	0	0	0	481	500	
15	0	0	0	0	500	498	
0	0	0	0	0	508	497	
1	0	0	0	0	519	497	
2	0	0	0	0	521	496	
3	0	0	0	0	526	496	
4	0	0	0	0	556	496	
5	0	0	0	0	604	497	
6	0	0	0	0	616	501	
7	0	0	0	0	588	503	
8	0	0	0	0	555	505	
9	0	0	0	0	524	507	
10	0	0	0	0	451	508	
11	0	0	0	0	402	508	
12	0	0	0	0	402	505	
13	0	0	0	0	438	502	
14	0	0	0	0	465	499	
15	0	0	0	0	487	498	
0	0	0	0	0	502	497	
1	0	0	0	0	511	495	
2	0	0	0	0	518	495	
3	0	0	0	0	522	494	
4	0	0	0	0	531	493	
5	0	0	0	0	574	493	
6	0	0	0	0	615	493	
7	0	0	0	0	611	497	
8	0	0	0	0	577	499	
9	0	0	0	0	543	502	
10	0	0	0	0	499	505	
11	0	0	0	0	430	506	
12	0	0	0	0	395	506	
13	0	0	0	0	412	503	
14	0	0	0	0	447	499	
15	0	0	0	0	475	497	
0	0	0	0	0	494	496	
1	0	0	0	0	506	495	
2	0	0	0	0	514	494	
3	0	0	0	0	519	493	
4	0	0	0	0	521	492	
5	0	0	0	0	539	491	
6	0	0	0	0	591	491	
7	0	0	0	0	619	492	
8	0	0	0	0	603	495	
9	0	0	0	0	565	499	
10	0	0	0	0	534	502	
11	0	0	0	0	477	504	
12	0	0	0	0	415	505	
13	0	0	0	0	397	504	
14	0	0	0	0	422	502	
15	0	0	0	0	456	498	
0	0	0	0	0	481	497	
1	0	0	0	0	498	496	
2	0	0	0	0	507	495	
3	0	0	0	0	517	495	
4	0	0	0	0	521	494	
5	0	0	0	0	524	493	
6	0	0	0	0	553	493	
7	0	0	0	0	604	493	
8	0	0	0	0	618	497	
9	0	0	0	0	590	499	
10	0	0	0	0	552	503	
11	0	0	0	0	524	506	
12	0	0	0	0	455	509	
13	0	0	0	0	403	510	
14	0	0	0	0	400	509	
15	0	0	0	0	440	506	
0	0	0	0	0	464	504	
1	0	0	0	0	488	503	
2	0	0	0	0	503	502	
3	0	0	0	0	512	501	
4	0	0	0	0	519	501	
5	0	0	0	0	522	501	
6	0	0	0	0	529	500	
7	0	0	0	0	568	501	
8	0	0	0	0	611	502	
9	0	0	0	0	615	506	
10	0	0	0	0	576	509	
11	0	0	0	0	545	512	
12	0	0	0	0	505	515	
13	0	0	0	0	432	516	
14	0	0	0	0	396	517	
15	0	0	0	0	408	515	
0	0	0	0	0	448	512	
1	0	0	0	0	471	511	
2	0	0	0	0	494	509	
3	0	0	0	0	506	508	
4	0	0	0	0	514	507	
5	0	0	0	0	521	507	
6	0	0	0	0	524	506	
7	0	0	0	0	538	505	
8	0	0	0	0	590	505	
9	0	0	0	0	620	505	
10	0	0	0	0	606	510	
11	0	0	0	0	565	512	
12	0	0	0	0	535	515	
13	0	0	0	0	478	519	
14	0	0	0	0	418	520	
15	0	0	0	0	395	519	
0	0	0	0	0	419	518	
1	0	0	0	0	455	514	
2	0	0	0	0	482	512	
3	0	0	0	0	495	511	
4	0	0	0	0	508	511	
5	0	0	0	0	516	510	
6	0	0	0	0	519	508	
7	0	0	0	0	524	508	
8	0	0	0	0	550	508	
9	0	0	0	0	603	510	
10	0	0	0	0	617	513	
11	0	0	0	0	592	515	
12	0	0	0	0	555	519	
13	0	0	0	0	527	521	
14	0	0	0	0	458	524	
15	0	0	0	0	406	524	
0	0	0	0	0	399	522	
1	0	0	0	0	436	519	
2	0	0	0	0	461	517	
3	0	0	0	0	485	516	
4	0	0	0	0	499	514	
5	0	0	0	0	511	513	
6	0	0	0	0	518	512	
7	0	0	0	0	523	511	
8	0	0	0	0	528	511	
9	0	0	0	0	570	510	
10	0	0	0	0	611	512	
11	0	0	0	0	615	516	
12	0	0	0	0	581	518	
13	0	0	0	0	550	521	
14	0	0	0	0	507	524	
15	0	0	0	0	433	525	
0	0	0	0	0	396	526	
1	0	0	0	0	406	524	
2	0	0	0	0	447	521	
3	0	0	0	0	471	519	
4	0	0	0	0	492	518	
5	0	0	0	0	505	517	
6	0	0	0	0	513	516	
7	0	0	0	0	519	515	
8	0	0	0	0	524	514	
9	0	0	0	0	534	514	
10	0	0	0	0	586	513	
11	0	0	0	0	620	515	
12	0	0	0	0	607	519	
13	0	0	0	0	568	521	
14	0	0	0	0	539	524	
15	0	0	0	0	483	526	
0	0	0	0	0	418	527	
1	0	0	0	0	393	526	
2	0	0	0	0	414	524	
3	0	0	0	0	453	519	
4	0	0	0	0	477	519	
5	0	0	0	0	495	518	
6	0	0	0	0	506	517	
7	0	0	0	0	516	516	
8	0	0	0	0	522	516	
9	0	0	0	0	525	516	
10	0	0	0	0	547	515	
11	0	0	0	0	603	515	
12	0	0	0	0	622	519	
13	0	0	0	0	599	521	
14	0	0	0	0	560	525	
15	0	0	0	0	530	527	
0	0	0	0	0	463	529	
1	0	0	0	0	403	530	
2	0	0	0	0	393	528	
3	0	0	0	0	426	526	
4	0	0	0	0	460	523	
5	0	0	0	0	482	521	
6	0	0	0	0	499	520	
7	0	0	0	0	510	519	
8	0	0	0	0	517	518	
9	0	0	0	0	521	518	
10	0	0	0	0	528	517	
11	0	0	0	0	566	517	
12	0	0	0	0	614	517	
13	0	0	0	0	620	521	
14	0	0	0	0	586	524	
15	0	0	0	0	552	527	
0	0	0	0	0	515	529	
1	0	0	0	0	439	531	
2	0	0	0	0	394	532	
3	0	0	0	0	401	530	
4	0	0	0	0	441	526	
5	0	0	0	0	467	525	
6	0	0	0	0	490	523	
7	0	0	0	0	503	523	
8	0	0	0	0	513	521	
9	0	0	0	0	520	520	
10	0	0	0	0	525	519	
11	0	0	0	0	537	518	
12	0	0	0	0	583	517	
13	0	0	0	0	620	519	
14	0	0	0	0	612	523	
15	0	0	0	0	573	526	
0	0	0	0	0	539	529	
1	0	0	0	0	485	532	
2	0	0	0	0	422	533	
3	0	0	0	0	392	532	
4	0	0	0	0	412	530	
5	0	0	0	0	452	525	
6	0	0	0	0	475	524	
7	0	0	0	0	495	523	
8	0	0	0	0	504	522	
9	0	0	0	0	515	521	
10	0	0	0	0	521	520	
11	0	0	0	0	524	519	
12	0	0	0	0	545	517	
13	0	0	0	0	600	518	
14	0	0	0	0	623	521	
15	0	0	0	0	599	522	
0	0	0	0	0	561	525	
1	0	0	0	0	532	527	
2	0	0	0	0	468	529	
3	0	0	0	0	407	530	
4	0	0	0	0	396	528	
5	0	0	0	0	425	526	
6	0	0	0	0	458	522	
7	0	0	0	0	481	521	
8	0	0	0	0	500	520	
9	0	0	0	0	513	519	
10	0	0	0	0	519	518	
11	0	0	0	0	524	516	
12	0	0	0	0	527	515	
13	0	0	0	0	561	514	
14	0	0	0	0	610	514	
15	0	0	0	0	621	518	
0	0	0	0	0	589	520	
1	0	0	0	0	553	523	
2	0	0	0	0	518	526	
3	0	0	0	0	443	527	
4	0	0	0	0	395	527	
5	0	0	0	0	398	526	
6	0	0	0	0	440	524	
7	0	0	0	0	464	520	
8	0	0	0	0	488	518	
9	0	0	0	0	502	518	
10	0	0	0	0	513	516	
11	0	0	0	0	520	515	
12	0	0	0	0	525	514	
13	0	0	0	0	535	513	
14	0	0	0	0	582	513	
15	0	0	0	0	620	512	
0	0	0	0	0	611	516	
1	0	0	0	0	572	519	
2	0	0	0	0	542	521	
3	0	0	0	0	490	524	
4	0	0	0	0	421	525	
5	0	0	0	0	393	525	
6	0	0	0	0	412	523	
7	0	0	0	0	447	518	
8	0	0	0	0	473	518	
9	0	0	0	0	491	516	
10	0	0	0	0	506	515	
11	0	0	0	0	515	514	
12	0	0	0	0	522	513	
13	0	0	0	0	526	512	
14	0	0	0	0	544	511	
15	0	0	0	0	598	512	
0	0	0	0	0	623	516	
1	0	0	0	0	604	518	
2	0	0	0	0	562	521	
3	0	0	0	0	533	524	
4	0	0	0	0	470	527	
5	0	0	0	0	407	528	
6	0	0	0	0	392	527	
7	0	0	0	0	422	526	
8	0	0	0	0	458	521	
9	0	0	0	0	480	519	
10	0	0	0	0	496	518	
11	0	0	0	0	506	517	
12	0	0	0	0	516	516	
13	0	0	0	0	520	516	
14	0	0	0	0	526	516	
15	0	0	0	0	561	516	
0	0	0	0	0	610	516	
1	0	0	0	0	623	519	
2	0	0	0	0	591	521	
3	0	0	0	0	556	524	
4	0	0	0	0	524	526	
5	0	0	0	0	448	529	
6	0	0	0	0	395	529	
7	0	0	0	0	399	528	
8	0	0	0	0	432	526	
9	0	0	0	0	464	523	
10	0	0	0	0	486	521	
11	0	0	0	0	501	519	
12	0	0	0	0	511	517	
13	0	0	0	0	518	516	
14	0	0	0	0	522	515	
15	0	0	0	0	534	515	
0	0	0	0	0	582	515	
1	0	0	0	0	623	515	
2	0	0	0	0	619	519	
3	0	0	0	0	577	521	
4	0	0	0	0	543	523	
5	0	0	0	0	495	525	
6	0	0	0	0	425	526	
7	0	0	0	0	392	526	
8	0	0	0	0	407	525	
9	0	0	0	0	445	521	
10	0	0	0	0	467	519	
11	0	0	0	0	492	516	
12	0	0	0	0	504	516	
13	0	0	0	0	512	515	
14	0	0	0	0	519	514	
15	0	0	0	0	519	513	
0	0	0	0	0	539	513	
1	0	0	0	0	595	513	
2	0	0	0	0	625	516	
3	0	0	0	0	606	516	
4	0	0	0	0	567	520	
5	0	0	0	0	536	523	
6	0	0	0	0	472	526	
7	0	0	0	0	409	527	
8	0	0	0	0	391	526	
9	0	0	0	0	418	524	
10	0	0	0	0	455	519	
11	0	0	0	0	479	516	
12	0	0	0	0	496	516	
13	0	0	0	0	505	514	
14	0	0	0	0	518	514	
15	0	0	0	0	522	513	
0	0	0	0	0	526	513	
1	0	0	0	0	559	513	
2	0	0	0	0	612	513	
3	0	0	0	0	626	516	
4	0	0	0	0	595	519	
5	0	0	0	0	559	523	
6	0	0	0	0	528	525	
7	0	0	0	0	449	527	
8	0	0	0	0	395	527	
9	0	0	0	0	393	526	
10	0	0	0	0	432	522	
11	0	0	0	0	463	519	
12	0	0	0	0	489	518	
13	0	0	0	0	503	517	
14	0	0	0	0	516	516	
15	0	0	0	0	522	515	
0	0	0	0	0	525	515	
1	0	0	0	0	531	514	
2	0	0	0	0	575	515	
3	0	0	0	0	620	517	
4	0	0	0	0	616	521	
5	0	0	0	0	580	525	
6	0	0	0	0	547	529	
7	0	0	0	0	504	532	
8	0	0	0	0	426	534	
9	0	0	0	0	393	534	
10	0	0	0	0	405	532	
11	0	0	0	0	445	528	
12	0	0	0	0	469	525	
13	0	0	0	0	490	523	
14	0	0	0	0	505	521	
15	0	0	0	0	514	519	
0	0	0	0	0	521	518	
1	0	0	0	0	526	516	
2	0	0	0	0	541	515	
3	0	0	0	0	596	515	
4	0	0	0	0	627	516	
5	0	0	0	0	610	519	
6	0	0	0	0	569	521	
7	0	0	0	0	539	523	
8	0	0	0	0	476	524	
9	0	0	0	0	408	524	
10	0	0	0	0	387	523	
11	0	0	0	0	415	520	
12	0	0	0	0	451	515	
13	0	0	0	0	475	513	
14	0	0	0	0	496	511	
15	0	0	0	0	509	508	
0	0	0	0	0	518	506	
1	0	0	0	0	524	504	
2	0	0	0	0	523	503	
3	0	0	0	0	551	501	
4	0	0	0	0	607	500	
5	0	0	0	0	622	503	
6	0	0	0	0	593	505	
7	0	0	0	0	556	507	
8	0	0	0	0	528	510	
9	0	0	0	0	454	512	
10	0	0	0	0	396	512	
11	0	0	0	0	394	510	
12	0	0	0	0	428	507	
13	0	0	0	0	460	502	
14	0	0	0	0	484	499	
15	0	0	0	0	500	497	
0	0	0	0	0	511	496	
1	0	0	0	0	518	495	
2	0	0	0	0	522	493	
3	0	0	0	0	531	492	
4	0	0	0	0	573	492	
5	0	0	0	0	620	492	
6	0	0	0	0	622	495	
7	0	0	0	0	581	498	
8	0	0	0	0	547	500	
9	0	0	0	0	504	504	
10	0	0	0	0	433	505	
11	0	0	0	0	391	505	
12	0	0	0	0	404	503	
13	0	0	0	0	441	498	
14	0	0	0	0	468	497	
15	0	0	0	0	489	495	
0	0	0	0	0	506	494	
1	0	0	0	0	513	492	
2	0	0	0	0	519	490	
3	0	0	0	0	521	489	
4	0	0	0	0	538	488	
5	0	0	0	0	591	488	
6	0	0	0	0	625	488	
7	0	0	0	0	606	492	
8	0	0	0	0	571	496	
9	0	0	0	0	539	499	
10	0	0	0	0	479	502	
11	0	0	0	0	415	503	
12	0	0	0	0	390	502	
13	0	0	0	0	414	501	
14	0	0	0	0	452	497	
15	0	0	0	0	477	495	
0	0	0	0	0	497	494	
1	0	0	0	0	506	492	
2	0	0	0	0	516	491	
3	0	0	0	0	521	490	
4	0	0	0	0	524	490	
5	0	0	0	0	551	489	
6	0	0	0	0	604	489	
7	0	0	0	0	624	493	
8	0	0	0	0	595	496	
9	0	0	0	0	561	499	
10	0	0	0	0	529	501	
11	0	0	0	0	458	503	
12	0	0	0	0	403	503	
13	0	0	0	0	394	502	
14	0	0	0	0	426	496	
15	0	0	0	0	460	496	
0	0	0	0	0	484	495	
1	0	0	0	0	500	494	
2	0	0	0	0	510	493	
3	0	0	0	0	514	493	
4	0	0	0	0	519	493	
5	0	0	0	0	523	494	
6	0	0	0	0	561	496	
7	0	0	0	0	609	499	
8	0	0	0	0	608	504	
9	0	0	0	0	575	508	
10	0	0	0	0	537	512	
11	0	0	0	0	497	517	
12	0	0	0	0	420	520	
13	0	0	0	0	376	522	
14	0	0	0	0	388	524	
15	0	0	0	0	431	522	
0	0	0	0	0	460	523	
1	0	0	0	0	487	525	
2	0	0	0	0	503	527	
3	0	0	0	0	515	530	
4	0	0	0	0	526	534	
5	0	0	0	0	536	538	
6	0	0	0	0	549	542	
7	0	0	0	0	601	548	
8	0	0	0	0	637	554	
9	0	0	0	0	630	562	
10	0	0	0	0	593	568	
11	0	0	0	0	560	573	
12	0	0	0	0	510	579	
13	0	0	0	0	441	583	
14	0	0	0	0	411	583	
15	0	0	0	0	434	583	
0	0	0	0	0	468	576	
1	0	0	0	0	497	570	
2	0	0	0	0	513	562	
3	0	0	0	0	526	555	
4	0	0	0	0	531	545	
5	0	0	0	0	536	534	
6	0	0	0	0	532	521	
7	0	0	0	0	549	510	
8	0	0	0	0	598	500	
9	0	0	0	0	621	497	
10	0	0	0	0	600	492	
11	0	0	0	0	563	490	
12	0	0	0	0	535	489	
13	0	0	0	0	461	489	
14	0	0	0	0	393	488	
15	0	0	0	0	378	484	
0	0	0	0	0	408	478	
1	0	0	0	0	437	471	
2	0	0	0	0	464	463	
3	0	0	0	0	479	455	
4	0	0	0	0	487	447	
5	0	0	0	0	498	439	
6	0	0	0	0	507	431	
7	0	0	0	0	520	425	
8	0	0	0	0	561	421	
9	0	0	0	0	611	419	
10	0	0	0	0	621	423	
11	0	0	0	0	584	427	
12	0	0	0	0	551	433	
13	0	0	0	0	516	437	
14	0	0	0	0	443	441	
15	0	0	0	0	395	444	
0	0	0	0	0	400	445	
1	0	0	0	0	441	443	
2	0	0	0	0	466	443	
3	0	0	0	0	488	443	
4	0	0	0	0	502	444	
5	0	0	0	0	511	446	
6	0	0	0	0	516	448	
7	0	0	0	0	519	450	
8	0	0	0	0	526	452	
9	0	0	0	0	574	455	
10	0	0	0	0	612	459	
11	0	0	0	0	604	466	
12	0	0	0	0	563	471	
13	0	0	0	0	532	477	
14	0	0	0	0	476	482	
15	0	0	0	0	410	486	
0	0	0	0	0	377	488	
1	0	0	0	0	402	489	
2	0	0	0	0	439	488	
3	0	0	0	0	468	488	
4	0	0	0	0	489	489	
5	0	0	0	0	505	489	
6	0	0	0	0	516	491	
7	0	0	0	0	522	491	
8	0	0	0	0	527	491	
9	0	0	0	0	551	492	
10	0	0	0	0	608	493	
11	0	0	0	0	633	499	
12	0	0	0	0	611	501	
13	0	0	0	0	570	504	
14	0	0	0	0	540	507	
15	0	0	0	0	475	510	
0	0	0	0	0	412	512	
1	0	0	0	0	398	511	
2	0	0	0	0	425	508	
3	0	0	0	0	460	504	
4	0	0	0	0	484	503	
5	0	0	0	0	500	503	
6	0	0	0	0	512	503	
7	0	0	0	0	519	502	
8	0	0	0	0	526	502	
9	0	0	0	0	530	501	
10	0	0	0	0	565	501	
11	0	0	0	0	615	501	
12	0	0	0	0	625	505	
13	0	0	0	0	591	508	
14	0	0	0	0	556	510	
15	0	0	0	0	522	513	
0	0	0	0	0	444	515	
1	0	0	0	0	396	515	
2	0	0	0	0	399	514	
3	0	0	0	0	438	510	
4	0	0	0	0	464	508	
5	0	0	0	0	488	507	
6	0	0	0	0	503	505	
7	0	0	0	0	512	504	
8	0	0	0	0	520	503	
9	0	0	0	0	521	503	
10	0	0	0	0	532	502	
11	0	0	0	0	580	502	
12	0	0	0	0	622	503	
13	0	0	0	0	617	506	
14	0	0	0	0	578	510	
15	0	0	0	0	545	512	
0	0	0	0	0	494	514	
1	0	0	0	0	425	515	
2	0	0	0	0	390	515	
3	0	0	0	0	408	514	
4	0	0	0	0	447	510	
5	0	0	0	0	472	508	
6	0	0	0	0	492	508	
7	0	0	0	0	504	506	
8	0	0	0	0	516	505	
9	0	0	0	0	519	504	
10	0	0	0	0	523	503	
11	0	0	0	0	542	502	
12	0	0	0	0	598	502	
13	0	0	0	0	624	505	
14	0	0	0	0	604	507	
15	0	0	0	0	568	511	
0	0	0	0	0	536	514	
1	0	0	0	0	472	516	
2	0	0	0	0	410	517	
3	0	0	0	0	391	516	
4	0	0	0	0	417	514	
5	0	0	0	0	456	509	
6	0	0	0	0	481	507	
7	0	0	0	0	496	505	
8	0	0	0	0	508	504	
9	0	0	0	0	515	504	
10	0	0	0	0	520	503	
11	0	0	0	0	525	502	
12	0	0	0	0	558	502	
13	0	0	0	0	610	501	
14	0	0	0	0	623	504	
15	0	0	0	0	592	507	
0	0	0	0	0	555	510	
1	0	0	0	0	523	512	
2	0	0	0	0	448	513	
3	0	0	0	0	398	513	
4	0	0	0	0	397	512	
5	0	0	0	0	435	509	
6	0	0	0	0	464	508	
7	0	0	0	0	489	506	
8	0	0	0	0	500	505	
9	0	0	0	0	510	504	
10	0	0	0	0	519	504	
11	0	0	0	0	520	504	
12	0	0	0	0	533	503	
13	0	0	0	0	579	503	
14	0	0	0	0	620	504	
15	0	0	0	0	617	508	
0	0	0	0	0	579	512	
1	0	0	0	0	544	515	
2	0	0	0	0	498	518	
3	0	0	0	0	427	519	
4	0	0	0	0	392	518	
5	0	0	0	0	406	516	
6	0	0	0	0	445	511	
7	0	0	0	0	470	510	
8	0	0	0	0	490	509	
9	0	0	0	0	504	508	
10	0	0	0	0	513	508	
11	0	0	0	0	521	507	
12	0	0	0	0	524	505	
13	0	0	0	0	542	504	
14	0	0	0	0	594	504	
15	0	0	0	0	627	506	
0	0	0	0	0	609	510	
1	0	0	0	0	569	513	
2	0	0	0	0	535	516	
3	0	0	0	0	475	518	
4	0	0	0	0	410	519	
5	0	0	0	0	391	519	
6	0	0	0	0	419	516	
7	0	0	0	0	452	512	
8	0	0	0	0	477	510	
9	0	0	0	0	498	509	
10	0	0	0	0	509	508	
11	0	0	0	0	516	507	
12	0	0	0	0	521	506	
13	0	0	0	0	525	505	
14	0	0	0	0	556	504	
15	0	0	0	0	609	505	
0	0	0	0	0	621	508	
1	0	0	0	0	594	511	
2	0	0	0	0	556	515	
3	0	0	0	0	524	518	
4	0	0	0	0	451	520	
5	0	0	0	0	398	521	
6	0	0	0	0	396	519	
7	0	0	0	0	435	515	
8	0	0	0	0	460	513	
9	0	0	0	0	483	511	
10	0	0	0	0	501	510	
11	0	0	0	0	510	508	
12	0	0	0	0	516	507	
13	0	0	0	0	521	506	
14	0	0	0	0	531	505	
15	0	0	0	0	575	505	
0	0	0	0	0	617	506	
1	0	0	0	0	621	510	
2	0	0	0	0	583	513	
3	0	0	0	0	547	516	
4	0	0	0	0	503	519	
5	0	0	0	0	428	521	
6	0	0	0	0	393	521	
7	0	0	0	0	403	519	
8	0	0	0	0	440	515	
9	0	0	0	0	467	513	
10	0	0	0	0	492	512	
11	0	0	0	0	504	510	
12	0	0	0	0	513	509	
13	0	0	0	0	520	508	
14	0	0	0	0	524	506	
15	0	0	0	0	538	505	
0	0	0	0	0	589	505	
1	0	0	0	0	625	508	
2	0	0	0	0	607	512	
3	0	0	0	0	572	515	
4	0	0	0	0	541	518	
5	0	0	0	0	480	521	
6	0	0	0	0	414	522	
7	0	0	0	0	387	521	
8	0	0	0	0	415	519	
9	0	0	0	0	449	515	
10	0	0	0	0	475	514	
11	0	0	0	0	495	513	
12	0	0	0	0	507	512	
13	0	0	0	0	514	511	
14	0	0	0	0	523	511	
15	0	0	0	0	524	511	
0	0	0	0	0	555	511	
1	0	0	0	0	609	511	
2	0	0	0	0	624	514	
3	0	0	0	0	597	516	
4	0	0	0	0	560	519	
5	0	0	0	0	532	523	
6	0	0	0	0	457	526	
7	0	0	0	0	399	527	
8	0	0	0	0	394	525	
9	0	0	0	0	426	521	
10	0	0	0	0	459	518	
11	0	0	0	0	482	517	
12	0	0	0	0	500	515	
13	0	0	0	0	510	514	
14	0	0	0	0	516	512	
15	0	0	0	0	522	511	
0	0	0	0	0	528	510	
1	0	0	0	0	570	510	
2	0	0	0	0	618	511	
3	0	0	0	0	619	514	
4	0	0	0	0	585	517	
5	0	0	0	0	553	519	
6	0	0	0	0	509	522	
7	0	0	0	0	433	524	
8	0	0	0	0	392	524	
9	0	0	0	0	403	521	
10	0	0	0	0	440	517	
11	0	0	0	0	469	515	
12	0	0	0	0	489	513	
13	0	0	0	0	504	512	
14	0	0	0	0	513	511	
15	0	0	0	0	519	509	
0	0	0	0	0	524	508	
1	0	0	0	0	538	507	
2	0	0	0	0	589	507	
3	0	0	0	0	624	508	
4	0	0	0	0	614	511	
5	0	0	0	0	576	513	
6	0	0	0	0	541	516	
7	0	0	0	0	484	518	
8	0	0	0	0	418	519	
9	0	0	0	0	392	518	
10	0	0	0	0	412	515	
11	0	0	0	0	449	511	
12	0	0	0	0	476	509	
13	0	0	0	0	494	507	
14	0	0	0	0	508	505	
15	0	0	0	0	516	504	
0	0	0	0	0	522	502	
1	0	0	0	0	525	501	
2	0	0	0	0	552	500	
3	0	0	0	0	607	499	
4	0	0	0	0	627	502	
5	0	0	0	0	603	503	
6	0	0	0	0	563	504	
7	0	0	0	0	534	507	
8	0	0	0	0	465	509	
9	0	0	0	0	403	508	
10	0	0	0	0	396	506	
11	0	0	0	0	427	503	
12	0	0	0	0	458	499	
13	0	0	0	0	484	497	
14	0	0	0	0	499	496	
15	0	0	0	0	511	495	
0	0	0	0	0	518	493	
1	0	0	0	0	522	492	
2	0	0	0	0	531	490	
3	0	0	0	0	571	489	
4	0	0	0	0	618	489	
5	0	0	0	0	625	491	
6	0	0	0	0	593	492	
7	0	0	0	0	555	493	
8	0	0	0	0	516	495	
9	0	0	0	0	440	495	
10	0	0	0	0	391	494	
11	0	0	0	0	399	492	
12	0	0	0	0	438	488	
13	0	0	0	0	469	486	
14	0	0	0	0	488	483	
15	0	0	0	0	501	481	
0	0	0	0	0	513	479	
1	0	0	0	0	520	477	
2	0	0	0	0	523	476	
3	0	0	0	0	535	474	
4	0	0	0	0	587	472	
5	0	0	0	0	626	473	
6	0	0	0	0	616	476	
7	0	0	0	0	578	477	
8	0	0	0	0	545	479	
9	0	0	0	0	491	481	
10	0	0	0	0	418	482	
11	0	0	0	0	388	480	
12	0	0	0	0	408	478	
13	0	0	0	0	448	472	
14	0	0	0	0	468	470	
15	0	0	0	0	491	468	
0	0	0	0	0	504	466	
1	0	0	0	0	512	465	
2	0	0	0	0	521	464	
3	0	0	0	0	521	463	
4	0	0	0	0	544	462	
5	0	0	0	0	601	462	
6	0	0	0	0	626	465	
7	0	0	0	0	604	467	
8	0	0	0	0	566	470	
9	0	0	0	0	534	473	
10	0	0	0	0	465	474	
11	0	0	0	0	402	475	
12	0	0	0	0	392	474	
13	0	0	0	0	419	472	
14	0	0	0	0	452	468	
15	0	0	0	0	476	466	
0	0	0	0	0	495	465	
1	0	0	0	0	506	463	
2	0	0	0	0	514	462	
3	0	0	0	0	521	461	
4	0	0	0	0	524	460	
5	0	0	0	0	563	460	
6	0	0	0	0	616	461	
7	0	0	0	0	627	464	
8	0	0	0	0	595	467	
9	0	0	0	0	558	471	
10	0	0	0	0	526	474	
11	0	0	0	0	441	476	
12	0	0	0	0	387	477	
13	0	0	0	0	392	476	
14	0	0	0	0	426	472	
15	0	0	0	0	458	470	
0	0	0	0	0	484	468	
1	0	0	0	0	499	467	
2	0	0	0	0	508	467	
3	0	0	0	0	516	466	
4	0	0	0	0	521	465	
5	0	0	0	0	533	464	
6	0	0	0	0	583	465	
7	0	0	0	0	626	466	
8	0	0	0	0	620	469	
9	0	0	0	0	585	472	
10	0	0	0	0	548	476	
11	0	0	0	0	495	479	
12	0	0	0	0	419	480	
13	0	0	0	0	385	479	
14	0	0	0	0	400	477	
15	0	0	0	0	445	473	
0	0	0	0	0	467	471	
1	0	0	0	0	491	470	
2	0	0	0	0	505	469	
3	0	0	0	0	512	468	
4	0	0	0	0	519	467	
5	0	0	0	0	522	467	
6	0	0	0	0	542	466	
7	0	0	0	0	601	466	
8	0	0	0	0	633	470	
9	0	0	0	0	610	473	
10	0	0	0	0	571	477	
11	0	0	0	0	540	480	
12	0	0	0	0	473	482	
13	0	0	0	0	407	483	
14	0	0	0	0	385	483	
15	0	0	0	0	415	481	
0	0	0	0	0	451	478	
1	0	0	0	0	476	477	
2	0	0	0	0	494	476	
3	0	0	0	0	506	475	
4	0	0	0	0	516	474	
5	0	0	0	0	521	473	
6	0	0	0	0	527	472	
7	0	0	0	0	562	471	
8	0	0	0	0	617	471	
9	0	0	0	0	632	475	
10	0	0	0	0	600	478	
11	0	0	0	0	560	481	
12	0	0	0	0	524	486	
13	0	0	0	0	446	489	
14	0	0	0	0	391	491	
15	0	0	0	0	390	490	
0	0	0	0	0	428	488	
1	0	0	0	0	459	485	
2	0	0	0	0	482	484	
3	0	0	0	0	497	484	
4	0	0	0	0	510	483	
5	0	0	0	0	516	483	
6	0	0	0	0	523	482	
7	0	0	0	0	534	482	
8	0	0	0	0	582	482	
9	0	0	0	0	626	483	
10	0	0	0	0	624	486	
11	0	0	0	0	587	489	
12	0	0	0	0	549	494	
13	0	0	0	0	499	496	
14	0	0	0	0	425	498	
15	0	0	0	0	385	497	
0	0	0	0	0	400	496	
1	0	0	0	0	440	492	
2	0	0	0	0	464	491	
3	0	0	0	0	487	489	
4	0	0	0	0	502	487	
5	0	0	0	0	511	487	
6	0	0	0	0	519	486	
7	0	0	0	0	524	484	
8	0	0	0	0	543	484	
9	0	0	0	0	603	484	
10	0	0	0	0	636	489	
11	0	0	0	0	618	492	
12	0	0	0	0	578	496	
13	0	0	0	0	545	499	
14	0	0	0	0	475	502	
15	0	0	0	0	407	504	
0	0	0	0	0	382	503	
1	0	0	0	0	409	500	
2	0	0	0	0	448	497	
3	0	0	0	0	472	496	
4	0	0	0	0	492	495	
5	0	0	0	0	503	494	
6	0	0	0	0	519	494	
7	0	0	0	0	522	493	
8	0	0	0	0	525	493	
9	0	0	0	0	558	493	
10	0	0	0	0	617	494	
11	0	0	0	0	633	497	
12	0	0	0	0	601	501	
13	0	0	0	0	565	504	
14	0	0	0	0	536	508	
15	0	0	0	0	452	510	
0	0	0	0	0	391	511	
1	0	0	0	0	386	511	
2	0	0	0	0	422	510	
3	0	0	0	0	454	507	
4	0	0	0	0	477	505	
5	0	0	0	0	496	504	
6	0	0	0	0	511	503	
7	0	0	0	0	519	501	
8	0	0	0	0	523	501	
9	0	0	0	0	531	499	
10	0	0	0	0	579	498	
11	0	0	0	0	627	499	
12	0	0	0	0	628	503	
13	0	0	0	0	592	507	
14	0	0	0	0	554	511	
15	0	0	0	0	507	514	
0	0	0	0	0	427	516	
1	0	0	0	0	384	517	
2	0	0	0	0	395	515	
3	0	0	0	0	435	511	
4	0	0	0	0	463	509	
5	0	0	0	0	486	507	
6	0	0	0	0	501	504	
7	0	0	0	0	511	504	
8	0	0	0	0	519	503	
9	0	0	0	0	523	502	
10	0	0	0	0	542	500	
11	0	0	0	0	600	499	
12	0	0	0	0	634	500	
13	0	0	0	0	621	505	
14	0	0	0	0	577	508	
15	0	0	0	0	545	512	
0	0	0	0	0	481	516	
1	0	0	0	0	409	518	
2	0	0	0	0	382	519	
3	0	0	0	0	404	516	
4	0	0	0	0	446	514	
5	0	0	0	0	469	513	
6	0	0	0	0	494	512	
7	0	0	0	0	505	511	
8	0	0	0	0	517	509	
9	0	0	0	0	520	509	
10	0	0	0	0	525	508	
11	0	0	0	0	556	508	
12	0	0	0	0	615	509	
13	0	0	0	0	632	511	
14	0	0	0	0	607	514	
15	0	0	0	0	564	518	
0	0	0	0	0	532	521	
1	0	0	0	0	459	524	
2	0	0	0	0	392	525	
3	0	0	0	0	387	523	
4	0	0	0	0	419	521	
5	0	0	0	0	454	518	
6	0	0	0	0	476	516	
7	0	0	0	0	496	516	
8	0	0	0	0	507	515	
9	0	0	0	0	516	513	
10	0	0	0	0	523	511	
11	0	0	0	0	533	510	
12	0	0	0	0	577	509	
13	0	0	0	0	625	510	
14	0	0	0	0	631	515	
15	0	0	0	0	595	518	
0	0	0	0	0	558	522	
1	0	0	0	0	512	526	
2	0	0	0	0	430	528	
3	0	0	0	0	383	528	
4	0	0	0	0	390	527	
5	0	0	0	0	432	524	
6	0	0	0	0	460	522	
7	0	0	0	0	484	520	
8	0	0	0	0	500	519	
9	0	0	0	0	512	518	
10	0	0	0	0	520	516	
11	0	0	0	0	524	515	
12	0	0	0	0	540	514	
13	0	0	0	0	595	515	
14	0	0	0	0	635	516	
15	0	0	0	0	623	521	
0	0	0	0	0	582	524	
1	0	0	0	0	547	528	
2	0	0	0	0	482	530	
3	0	0	0	0	410	531	
4	0	0	0	0	382	531	
5	0	0	0	0	403	527	
6	0	0	0	0	442	523	
7	0	0	0	0	469	521	
8	0	0	0	0	488	519	
9	0	0	0	0	505	518	
10	0	0	0	0	513	518	
11	0	0	0	0	522	516	
12	0	0	0	0	521	514	
13	0	0	0	0	552	513	
14	0	0	0	0	611	512	
15	0	0	0	0	636	516	
0	0	0	0	0	610	518	
1	0	0	0	0	569	521	
2	0	0	0	0	538	524	
3	0	0	0	0	463	526	
4	0	0	0	0	397	526	
5	0	0	0	0	384	524	
6	0	0	0	0	419	521	
7	0	0	0	0	452	516	
8	0	0	0	0	476	515	
9	0	0	0	0	492	513	
10	0	0	0	0	507	512	
11	0	0	0	0	517	510	
12	0	0	0	0	523	509	
13	0	0	0	0	529	508	
14	0	0	0	0	569	508	
15	0	0	0	0	624	509	
0	0	0	0	0	630	512	
1	0	0	0	0	598	515	
2	0	0	0	0	560	518	
3	0	0	0	0	516	521	
4	0	0	0	0	433	524	
5	0	0	0	0	384	523	
6	0	0	0	0	391	521	
7	0	0	0	0	432	517	
8	0	0	0	0	461	513	
9	0	0	0	0	484	511	
10	0	0	0	0	498	511	
11	0	0	0	0	509	509	
12	0	0	0	0	520	507	
13	0	0	0	0	524	505	
14	0	0	0	0	537	504	
15	0	0	0	0	591	504	
0	0	0	0	0	632	505	
1	0	0	0	0	624	510	
2	0	0	0	0	584	512	
3	0	0	0	0	549	516	
4	0	0	0	0	490	519	
5	0	0	0	0	414	519	
6	0	0	0	0	384	519	
7	0	0	0	0	400	517	
8	0	0	0	0	443	512	
9	0	0	0	0	468	510	
10	0	0	0	0	487	508	
11	0	0	0	0	505	507	
12	0	0	0	0	515	505	
13	0	0	0	0	519	504	
14	0	0	0	0	521	502	
15	0	0	0	0	547	501	
0	0	0	0	0	610	502	
1	0	0	0	0	641	504	
2	0	0	0	0	612	507	
3	0	0	0	0	571	511	
4	0	0	0	0	539	513	
5	0	0	0	0	465	516	
6	0	0	0	0	399	516	
7	0	0	0	0	384	514	
8	0	0	0	0	414	511	
9	0	0	0	0	448	508	
10	0	0	0	0	476	507	
11	0	0	0	0	495	505	
12	0	0	0	0	508	505	
13	0	0	0	0	516	505	
14	0	0	0	0	521	504	
15	0	0	0	0	529	504	
0	0	0	0	0	571	504	
1	0	0	0	0	622	504	
2	0	0	0	0	633	508	
3	0	0	0	0	599	511	
4	0	0	0	0	561	515	
5	0	0	0	0	522	518	
6	0	0	0	0	440	521	
7	0	0	0	0	385	521	
8	0	0	0	0	390	519	
9	0	0	0	0	425	513	
10	0	0	0	0	457	514	
11	0	0	0	0	481	513	
12	0	0	0	0	498	511	
13	0	0	0	0	509	510	
14	0	0	0	0	517	508	
15	0	0	0	0	524	507	
0	0	0	0	0	536	506	
1	0	0	0	0	589	505	
2	0	0	0	0	633	505	
3	0	0	0	0	630	509	
4	0	0	0	0	586	512	
5	0	0	0	0	551	515	
6	0	0	0	0	493	518	
7	0	0	0	0	416	519	
8	0	0	0	0	380	519	
9	0	0	0	0	395	516	
10	0	0	0	0	440	512	
11	0	0	0	0	464	510	
12	0	0	0	0	489	508	
13	0	0	0	0	502	506	
14	0	0	0	0	513	504	
15	0	0	0	0	523	503	
0	0	0	0	0	522	501	
1	0	0	0	0	548	500	
2	0	0	0	0	606	501	
3	0	0	0	0	637	504	
4	0	0	0	0	616	507	
5	0	0	0	0	576	510	
6	0	0	0	0	540	513	
7	0	0	0	0	469	516	
8	0	0	0	0	400	518	
9	0	0	0	0	383	516	
10	0	0	0	0	410	515	
11	0	0	0	0	448	511	
12	0	0	0	0	475	509	
13	0	0	0	0	493	508	
14	0	0	0	0	506	508	
15	0	0	0	0	515	506	
0	0	0	0	0	523	505	
1	0	0	0	0	527	504	
2	0	0	0	0	565	503	
3	0	0	0	0	622	503	
4	0	0	0	0	634	506	
5	0	0	0	0	602	509	
6	0	0	0	0	564	511	
7	0	0	0	0	525	514	
8	0	0	0	0	443	516	
9	0	0	0	0	386	517	
10	0	0	0	0	384	516	
11	0	0	0	0	421	514	
12	0	0	0	0	455	510	
13	0	0	0	0	481	509	
14	0	0	0	0	499	507	
15	0	0	0	0	507	505	
0	0	0	0	0	518	504	
1	0	0	0	0	523	502	
2	0	0	0	0	536	501	
3	0	0	0	0	587	500	
4	0	0	0	0	632	501	
5	0	0	0	0	632	505	
6	0	0	0	0	590	508	
7	0	0	0	0	554	511	
8	0	0	0	0	498	514	
9	0	0	0	0	420	516	
10	0	0	0	0	380	516	
11	0	0	0	0	394	514	
12	0	0	0	0	436	510	
13	0	0	0	0	463	508	
14	0	0	0	0	486	507	
15	0	0	0	0	502	505	
0	0	0	0	0	511	504	
1	0	0	0	0	518	502	
2	0	0	0	0	525	501	
3	0	0	0	0	545	500	
4	0	0	0	0	604	500	
5	0	0	0	0	638	502	
6	0	0	0	0	622	507	
7	0	0	0	0	580	511	
8	0	0	0	0	544	515	
9	0	0	0	0	477	518	
10	0	0	0	0	404	519	
11	0	0	0	0	380	519	
12	0	0	0	0	406	516	
13	0	0	0	0	445	512	
14	0	0	0	0	471	511	
15	0	0	0	0	491	510	
0	0	0	0	0	504	509	
1	0	0	0	0	513	508	
2	0	0	0	0	521	507	
3	0	0	0	0	526	506	
4	0	0	0	0	562	505	
5	0	0	0	0	622	505	
6	0	0	0	0	637	508	
7	0	0	0	0	604	511	
8	0	0	0	0	567	515	
9	0	0	0	0	531	518	
10	0	0	0	0	448	521	
11	0	0	0	0	387	522	
12	0	0	0	0	383	520	
13	0	0	0	0	418	518	
14	0	0	0	0	454	514	
15	0	0	0	0	478	512	
0	0	0	0	0	498	510	
1	0	0	0	0	510	510	
2	0	0	0	0	516	509	
3	0	0	0	0	520	508	
4	0	0	0	0	533	509	
5	0	0	0	0	581	508	
6	0	0	0	0	628	510	
7	0	0	0	0	633	514	
8	0	0	0	0	595	517	
9	0	0	0	0	556	520	
10	0	0	0	0	506	524	
11	0	0	0	0	423	526	
12	0	0	0	0	380	526	
13	0	0	0	0	391	523	
14	0	0	0	0	435	519	
15	0	0	0	0	463	517	
0	0	0	0	0	485	516	
1	0	0	0	0	499	515	
2	0	0	0	0	510	514	
3	0	0	0	0	519	513	
4	0	0	0	0	522	511	
5	0	0	0	0	542	510	
6	0	0	0	0	600	510	
7	0	0	0	0	638	511	
8	0	0	0	0	620	515	
9	0	0	0	0	582	519	
10	0	0	0	0	547	522	
11	0	0	0	0	479	525	
12	0	0	0	0	406	527	
13	0	0	0	0	379	527	
14	0	0	0	0	402	525	
15	0	0	0	0	443	521	
0	0	0	0	0	468	519	
1	0	0	0	0	489	517	
2	0	0	0	0	506	516	
3	0	0	0	0	516	515	
4	0	0	0	0	522	515	
5	0	0	0	0	528	514	
6	0	0	0	0	556	514	
7	0	0	0	0	617	515	
8	0	0	0	0	639	519	
9	0	0	0	0	608	522	
10	0	0	0	0	569	525	
11	0	0	0	0	535	527	
12	0	0	0	0	455	530	
13	0	0	0	0	391	531	
14	0	0	0	0	382	530	
15	0	0	0	0	418	528	
0	0	0	0	0	452	524	
1	0	0	0	0	477	522	
2	0	0	0	0	494	520	
3	0	0	0	0	506	519	
4	0	0	0	0	517	517	
5	0	0	0	0	524	515	
6	0	0	0	0	532	514	
7	0	0	0	0	578	514	
8	0	0	0	0	626	515	
9	0	0	0	0	633	519	
10	0	0	0	0	595	522	
11	0	0	0	0	556	527	
12	0	0	0	0	510	529	
13	0	0	0	0	430	531	
14	0	0	0	0	381	531	
15	0	0	0	0	390	529	
0	0	0	0	0	432	526	
1	0	0	0	0	460	524	
2	0	0	0	0	484	522	
3	0	0	0	0	498	520	
4	0	0	0	0	509	519	
5	0	0	0	0	519	518	
6	0	0	0	0	524	516	
7	0	0	0	0	539	514	
8	0	0	0	0	599	513	
9	0	0	0	0	637	514	
10	0	0	0	0	624	518	
11	0	0	0	0	582	521	
12	0	0	0	0	545	525	
13	0	0	0	0	483	527	
14	0	0	0	0	409	529	
15	0	0	0	0	380	528	
0	0	0	0	0	401	525	
1	0	0	0	0	440	520	
2	0	0	0	0	469	519	
3	0	0	0	0	489	517	
4	0	0	0	0	502	517	
5	0	0	0	0	513	515	
6	0	0	0	0	519	515	
7	0	0	0	0	523	512	
8	0	0	0	0	553	510	
9	0	0	0	0	610	510	
10	0	0	0	0	636	516	
11	0	0	0	0	607	516	
12	0	0	0	0	569	519	
13	0	0	0	0	539	520	
14	0	0	0	0	461	523	
15	0	0	0	0	399	522	
0	0	0	0	0	384	520	
1	0	0	0	0	416	517	
2	0	0	0	0	449	513	
3	0	0	0	0	474	511	
4	0	0	0	0	495	510	
5	0	0	0	0	508	508	
6	0	0	0	0	516	507	
7	0	0	0	0	520	505	
8	0	0	0	0	534	504	
9	0	0	0	0	576	504	
10	0	0	0	0	626	504	
11	0	0	0	0	635	509	
12	0	0	0	0	599	512	
13	0	0	0	0	559	516	
14	0	0	0	0	515	520	
15	0	0	0	0	434	522	
0	0	0	0	0	385	522	
1	0	0	0	0	390	520	
2	0	0	0	0	431	516	
3	0	0	0	0	460	514	
4	0	0	0	0	486	512	
5	0	0	0	0	501	511	
6	0	0	0	0	514	510	
7	0	0	0	0	521	510	
8	0	0	0	0	525	509	
9	0	0	0	0	542	509	
10	0	0	0	0	593	509	
11	0	0	0	0	631	510	
12	0	0	0	0	622	515	
13	0	0	0	0	586	518	
14	0	0	0	0	550	521	
15	0	0	0	0	487	525	
0	0	0	0	0	415	526	
1	0	0	0	0	381	527	
2	0	0	0	0	402	525	
3	0	0	0	0	441	521	
4	0	0	0	0	469	519	
5	0	0	0	0	489	517	
6	0	0	0	0	504	516	
7	0	0	0	0	513	514	
8	0	0	0	0	521	513	
9	0	0	0	0	525	512	
10	0	0	0	0	552	511	
11	0	0	0	0	611	511	
12	0	0	0	0	638	513	
13	0	0	0	0	613	517	
14	0	0	0	0	572	520	
15	0	0	0	0	542	523	
0	0	0	0	0	465	525	
1	0	0	0	0	397	526	
2	0	0	0	0	382	524	
3	0	0	0	0	414	521	
4	0	0	0	0	448	516	
5	0	0	0	0	477	513	
6	0	0	0	0	494	511	
7	0	0	0	0	505	510	
8	0	0	0	0	518	507	
9	0	0	0	0	523	504	
10	0	0	0	0	529	502	
11	0	0	0	0	568	501	
12	0	0	0	0	621	501	
13	0	0	0	0	632	504	
14	0	0	0	0	597	506	
15	0	0	0	0	558	509	
0	0	0	0	0	519	512	
1	0	0	0	0	436	513	
2	0	0	0	0	385	513	
3	0	0	0	0	386	511	
4	0	0	0	0	429	506	
5	0	0	0	0	455	503	
6	0	0	0	0	481	500	
7	0	0	0	0	499	499	
8	0	0	0	0	510	497	
9	0	0	0	0	520	497	
10	0	0	0	0	524	495	
11	0	0	0	0	535	494	
12	0	0	0	0	589	494	
13	0	0	0	0	636	494	
14	0	0	0	0	629	498	
15	0	0	0	0	588	501	
0	0	0	0	0	550	504	
1	0	0	0	0	490	508	
2	0	0	0	0	415	510	
3	0	0	0	0	379	511	
4	0	0	0	0	397	509	
5	0	0	0	0	441	505	
6	0	0	0	0	467	504	
7	0	0	0	0	488	501	
8	0	0	0	0	503	500	
9	0	0	0	0	513	499	
10	0	0	0	0	521	499	
11	0	0	0	0	523	497	
12	0	0	0	0	546	496	
13	0	0	0	0	607	498	
14	0	0	0	0	638	500	
15	0	0	0	0	615	505	
0	0	0	0	0	575	508	
1	0	0	0	0	540	512	
2	0	0	0	0	469	516	
3	0	0	0	0	398	518	
4	0	0	0	0	380	516	
5	0	0	0	0	412	513	
6	0	0	0	0	447	509	
7	0	0	0	0	473	508	
8	0	0	0	0	494	506	
9	0	0	0	0	505	505	
10	0	0	0	0	517	504	
11	0	0	0	0	524	502	
12	0	0	0	0	530	501	
13	0	0	0	0	566	499	
14	0	0	0	0	622	500	
15	0	0	0	0	635	504	
0	0	0	0	0	601	507	
1	0	0	0	0	561	510	
2	0	0	0	0	523	514	
3	0	0	0	0	442	517	
4	0	0	0	0	385	516	
5	0	0	0	0	386	514	
6	0	0	0	0	423	508	
7	0	0	0	0	454	508	
8	0	0	0	0	480	506	
9	0	0	0	0	498	505	
10	0	0	0	0	509	504	
11	0	0	0	0	517	503	
12	0	0	0	0	522	502	
13	0	0	0	0	532	502	
14	0	0	0	0	582	503	
15	0	0	0	0	628	504	
0	0	0	0	0	624	510	
1	0	0	0	0	583	514	
2	0	0	0	0	543	519	
3	0	0	0	0	487	523	
4	0	0	0	0	406	526	
5	0	0	0	0	365	527	
6	0	0	0	0	378	526	
7	0	0	0	0	420	524	
8	0	0	0	0	451	524	
9	0	0	0	0	477	524	
10	0	0	0	0	498	525	
11	0	0	0	0	511	527	
12	0	0	0	0	520	529	
13	0	0	0	0	527	532	
14	0	0	0	0	549	536	
15	0	0	0	0	614	541	
0	0	0	0	0	650	546	
1	0	0	0	0	633	556	
2	0	0	0	0	592	564	
3	0	0	0	0	562	571	
4	0	0	0	0	496	576	
5	0	0	0	0	423	579	
6	0	0	0	0	401	580	
7	0	0	0	0	431	579	
8	0	0	0	0	464	577	
9	0	0	0	0	492	575	
10	0	0	0	0	512	570	
11	0	0	0	0	524	563	
12	0	0	0	0	533	557	
13	0	0	0	0	542	548	
14	0	0	0	0	543	539	
15	0	0	0	0	574	527	
0	0	0	0	0	628	517	
1	0	0	0	0	640	509	
2	0	0	0	0	600	503	
3	0	0	0	0	558	500	
4	0	0	0	0	531	498	
5	0	0	0	0	451	496	
6	0	0	0	0	391	493	
7	0	0	0	0	382	489	
8	0	0	0	0	414	483	
9	0	0	0	0	440	478	
10	0	0	0	0	466	472	
11	0	0	0	0	480	466	
12	0	0	0	0	492	460	
13	0	0	0	0	496	454	
14	0	0	0	0	501	446	
15	0	0	0	0	512	439	
0	0	0	0	0	566	433	
1	0	0	0	0	622	430	
2	0	0	0	0	628	431	
3	0	0	0	0	591	433	
4	0	0	0	0	551	437	
5	0	0	0	0	500	441	
6	0	0	0	0	424	446	
7	0	0	0	0	382	448	
8	0	0	0	0	397	448	
9	0	0	0	0	438	446	
10	0	0	0	0	463	446	
11	0	0	0	0	489	447	
12	0	0	0	0	501	447	
13	0	0	0	0	513	448	
14	0	0	0	0	521	449	
15	0	0	0	0	524	450	
0	0	0	0	0	540	451	
1	0	0	0	0	594	455	
2	0	0	0	0	627	459	
3	0	0	0	0	609	467	
4	0	0	0	0	568	474	
5	0	0	0	0	532	480	
6	0	0	0	0	467	486	
7	0	0	0	0	394	491	
8	0	0	0	0	372	493	
9	0	0	0	0	396	494	
10	0	0	0	0	435	494	
11	0	0	0	0	463	495	
12	0	0	0	0	486	495	
13	0	0	0	0	501	496	
14	0	0	0	0	509	497	
15	0	0	0	0	519	498	
0	0	0	0	0	525	499	
1	0	0	0	0	556	499	
2	0	0	0	0	616	501	
3	0	0	0	0	638	505	
4	0	0	0	0	611	508	
5	0	0	0	0	573	513	
6	0	0	0	0	539	518	
7	0	0	0	0	461	522	
8	0	0	0	0	398	523	
9	0	0	0	0	389	521	
10	0	0	0	0	426	519	
11	0	0	0	0	459	516	
12	0	0	0	0	484	515	
13	0	0	0	0	501	515	
14	0	0	0	0	513	513	
15	0	0	0	0	522	513	
0	0	0	0	0	526	512	
1	0	0	0	0	535	511	
2	0	0	0	0	578	512	
3	0	0	0	0	631	513	
4	0	0	0	0	636	517	
5	0	0	0	0	594	521	
6	0	0	0	0	556	525	
7	0	0	0	0	512	528	
8	0	0	0	0	431	531	
9	0	0	0	0	382	530	
10	0	0	0	0	392	528	
11	0	0	0	0	435	524	
12	0	0	0	0	462	522	
13	0	0	0	0	487	521	
14	0	0	0	0	500	520	
15	0	0	0	0	512	519	
0	0	0	0	0	519	518	
1	0	0	0	0	524	517	
2	0	0	0	0	540	517	
3	0	0	0	0	595	518	
4	0	0	0	0	639	519	
5	0	0	0	0	624	523	
6	0	0	0	0	583	526	
7	0	0	0	0	548	529	
8	0	0	0	0	485	532	
9	0	0	0	0	411	534	
10	0	0	0	0	380	534	
11	0	0	0	0	399	532	
12	0	0	0	0	441	527	
13	0	0	0	0	470	526	
14	0	0	0	0	489	524	
15	0	0	0	0	505	522	
0	0	0	0	0	515	521	
1	0	0	0	0	519	520	
2	0	0	0	0	526	519	
3	0	0	0	0	553	518	
4	0	0	0	0	614	519	
5	0	0	0	0	642	524	
6	0	0	0	0	613	526	
7	0	0	0	0	571	530	
8	0	0	0	0	537	533	
9	0	0	0	0	462	536	
10	0	0	0	0	395	536	
11	0	0	0	0	381	534	
12	0	0	0	0	413	532	
13	0	0	0	0	449	527	
14	0	0	0	0	473	526	
15	0	0	0	0	495	524	
0	0	0	0	0	509	523	
1	0	0	0	0	516	523	
2	0	0	0	0	520	522	
3	0	0	0	0	528	521	
4	0	0	0	0	572	520	
5	0	0	0	0	626	520	
6	0	0	0	0	636	524	
7	0	0	0	0	601	526	
8	0	0	0	0	559	529	
9	0	0	0	0	518	533	
10	0	0	0	0	433	535	
11	0	0	0	0	383	536	
12	0	0	0	0	386	534	
13	0	0	0	0	427	530	
14	0	0	0	0	461	527	
15	0	0	0	0	483	525	
0	0	0	0	0	500	523	
1	0	0	0	0	510	520	
2	0	0	0	0	519	519	
3	0	0	0	0	525	519	
4	0	0	0	0	537	518	
5	0	0	0	0	591	518	
6	0	0	0	0	636	519	
7	0	0	0	0	627	524	
8	0	0	0	0	587	526	
9	0	0	0	0	551	529	
10	0	0	0	0	490	533	
11	0	0	0	0	413	535	
12	0	0	0	0	375	534	
13	0	0	0	0	394	532	
14	0	0	0	0	435	528	
15	0	0	0	0	468	526	
0	0	0	0	0	489	524	
1	0	0	0	0	504	522	
2	0	0	0	0	513	521	
3	0	0	0	0	519	520	
4	0	0	0	0	524	519	
5	0	0	0	0	550	518	
6	0	0	0	0	611	518	
7	0	0	0	0	640	524	
8	0	0	0	0	617	523	
9	0	0	0	0	577	526	
10	0	0	0	0	541	528	
11	0	0	0	0	467	530	
12	0	0	0	0	397	531	
13	0	0	0	0	382	530	
14	0	0	0	0	411	527	
15	0	0	0	0	448	521	
0	0	0	0	0	474	520	
1	0	0	0	0	493	519	
2	0	0	0	0	505	516	
3	0	0	0	0	516	515	
4	0	0	0	0	520	515	
5	0	0	0	0	525	514	
6	0	0	0	0	566	514	
7	0	0	0	0	622	514	
8	0	0	0	0	636	518	
9	0	0	0	0	603	520	
10	0	0	0	0	565	524	
11	0	0	0	0	524	527	
12	0	0	0	0	441	529	
13	0	0	0	0	383	530	
14	0	0	0	0	383	528	
15	0	0	0	0	424	521	
0	0	0	0	0	457	520	
1	0	0	0	0	483	519	
2	0	0	0	0	496	518	
3	0	0	0	0	508	517	
4	0	0	0	0	517	516	
5	0	0	0	0	521	514	
6	0	0	0	0	534	513	
7	0	0	0	0	587	514	
8	0	0	0	0	635	515	
9	0	0	0	0	632	520	
10	0	0	0	0	591	523	
11	0	0	0	0	555	527	
12	0	0	0	0	494	531	
13	0	0	0	0	416	533	
14	0	0	0	0	377	534	
15	0	0	0	0	395	531	
0	0	0	0	0	437	527	
1	0	0	0	0	462	526	
2	0	0	0	0	487	524	
3	0	0	0	0	504	523	
4	0	0	0	0	513	521	
5	0	0	0	0	519	520	
6	0	0	0	0	523	520	
7	0	0	0	0	545	519	
8	0	0	0	0	606	519	
9	0	0	0	0	642	519	
10	0	0	0	0	622	523	
11	0	0	0	0	576	527	
12	0	0	0	0	541	531	
13	0	0	0	0	469	535	
14	0	0	0	0	400	536	
15	0	0	0	0	376	535	
0	0	0	0	0	407	533	
1	0	0	0	0	446	528	
2	0	0	0	0	472	526	
3	0	0	0	0	491	525	
4	0	0	0	0	505	523	
5	0	0	0	0	516	522	
6	0	0	0	0	520	521	
7	0	0	0	0	527	520	
8	0	0	0	0	566	521	
9	0	0	0	0	622	522	
10	0	0	0	0	638	526	
11	0	0	0	0	607	529	
12	0	0	0	0	565	532	
13	0	0	0	0	529	537	
14	0	0	0	0	446	540	
15	0	0	0	0	385	541	
0	0	0	0	0	382	540	
1	0	0	0	0	421	538	
2	0	0	0	0	455	534	
3	0	0	0	0	480	531	
4	0	0	0	0	495	530	
5	0	0	0	0	505	529	
6	0	0	0	0	518	528	
7	0	0	0	0	522	527	
8	0	0	0	0	532	527	
9	0	0	0	0	585	526	
10	0	0	0	0	635	527	
11	0	0	0	0	634	531	
12	0	0	0	0	590	536	
13	0	0	0	0	558	539	
14	0	0	0	0	504	542	
15	0	0	0	0	420	543	
0	0	0	0	0	378	543	
1	0	0	0	0	391	543	
2	0	0	0	0	435	538	
3	0	0	0	0	463	536	
4	0	0	0	0	487	534	
5	0	0	0	0	504	533	
6	0	0	0	0	515	531	
7	0	0	0	0	519	530	
8	0	0	0	0	524	528	
9	0	0	0	0	543	527	
10	0	0	0	0	603	527	
11	0	0	0	0	641	527	
12	0	0	0	0	627	531	
13	0	0	0	0	580	534	
14	0	0	0	0	545	536	
15	0	0	0	0	478	539	
0	0	0	0	0	406	540	
1	0	0	0	0	378	540	
2	0	0	0	0	403	538	
3	0	0	0	0	442	534	
4	0	0	0	0	471	532	
5	0	0	0	0	494	529	
6	0	0	0	0	506	527	
7	0	0	0	0	516	526	
8	0	0	0	0	523	524	
9	0	0	0	0	528	521	
10	0	0	0	0	562	520	
11	0	0	0	0	623	520	
12	0	0	0	0	639	524	
13	0	0	0	0	613	524	
14	0	0	0	0	573	527	
15	0	0	0	0	537	529	
0	0	0	0	0	454	530	
1	0	0	0	0	390	530	
2	0	0	0	0	380	527	
3	0	0	0	0	419	523	
4	0	0	0	0	453	519	
5	0	0	0	0	479	515	
6	0	0	0	0	496	514	
7	0	0	0	0	510	512	
8	0	0	0	0	516	509	
9	0	0	0	0	523	507	
10	0	0	0	0	534	505	
11	0	0	0	0	580	504	
12	0	0	0	0	632	504	
13	0	0	0	0	638	507	
14	0	0	0	0	600	508	
15	0	0	0	0	561	511	
0	0	0	0	0	512	513	
1	0	0	0	0	428	514	
2	0	0	0	0	380	512	
3	0	0	0	0	391	510	
4	0	0	0	0	433	504	
5	0	0	0	0	462	500	
6	0	0	0	0	487	496	
7	0	0	0	0	501	494	
8	0	0	0	0	513	490	
9	0	0	0	0	520	487	
10	0	0	0	0	522	485	
11	0	0	0	0	538	482	
12	0	0	0	0	600	481	
13	0	0	0	0	641	481	
14	0	0	0	0	625	484	
15	0	0	0	0	584	487	
0	0	0	0	0	551	489	
1	0	0	0	0	483	491	
2	0	0	0	0	408	492	
3	0	0	0	0	377	490	
4	0	0	0	0	401	487	
5	0	0	0	0	443	481	
6	0	0	0	0	469	479	
7	0	0	0	0	488	477	
8	0	0	0	0	504	474	
9	0	0	0	0	512	472	
10	0	0	0	0	519	470	
11	0	0	0	0	522	467	
12	0	0	0	0	553	466	
13	0	0	0	0	616	464	
14	0	0	0	0	641	468	
15	0	0	0	0	611	470	
0	0	0	0	0	571	472	
1	0	0	0	0	538	476	
2	0	0	0	0	456	479	
3	0	0	0	0	389	479	
4	0	0	0	0	378	477	
5	0	0	0	0	411	475	
6	0	0	0	0	448	470	
7	0	0	0	0	476	468	
8	0	0	0	0	495	466	
9	0	0	0	0	508	464	
10	0	0	0	0	515	463	
11	0	0	0	0	522	462	
12	0	0	0	0	529	461	
13	0	0	0	0	574	461	
14	0	0	0	0	629	461	
15	0	0	0	0	638	464	
0	0	0	0	0	598	467	
1	0	0	0	0	557	470	
2	0	0	0	0	515	473	
3	0	0	0	0	429	476	
4	0	0	0	0	377	477	
5	0	0	0	0	385	475	
6	0	0	0	0	429	471	
7	0	0	0	0	455	468	
8	0	0	0	0	481	466	
9	0	0	0	0	496	465	
10	0	0	0	0	508	464	
11	0	0	0	0	518	464	
12	0	0	0	0	524	463	
13	0	0	0	0	539	462	
14	0	0	0	0	597	461	
15	0	0	0	0	636	462	
0	0	0	0	0	627	465	
1	0	0	0	0	586	470	
2	0	0	0	0	550	473	
3	0	0	0	0	484	477	
4	0	0	0	0	409	478	
5	0	0	0	0	376	478	
6	0	0	0	0	397	476	
7	0	0	0	0	439	473	
8	0	0	0	0	465	472	
9	0	0	0	0	487	471	
10	0	0	0	0	502	471	
11	0	0	0	0	514	469	
12	0	0	0	0	519	468	
13	0	0	0	0	524	468	
14	0	0	0	0	552	467	
15	0	0	0	0	614	467	
0	0	0	0	0	643	474	
1	0	0	0	0	616	473	
2	0	0	0	0	573	477	
3	0	0	0	0	540	480	
4	0	0	0	0	463	483	
5	0	0	0	0	393	485	
6	0	0	0	0	379	484	
7	0	0	0	0	409	484	
8	0	0	0	0	447	480	
9	0	0	0	0	474	478	
10	0	0	0	0	492	477	
11	0	0	0	0	507	476	
12	0	0	0	0	518	475	
13	0	0	0	0	523	474	
14	0	0	0	0	529	472	
15	0	0	0	0	569	472	
0	0	0	0	0	628	472	
1	0	0	0	0	639	476	
2	0	0	0	0	603	480	
3	0	0	0	0	564	483	
4	0	0	0	0	522	487	
5	0	0	0	0	436	489	
6	0	0	0	0	381	490	
7	0	0	0	0	383	488	
8	0	0	0	0	426	485	
9	0	0	0	0	456	483	
10	0	0	0	0	483	481	
11	0	0	0	0	498	480	
12	0	0	0	0	509	479	
13	0	0	0	0	516	478	
14	0	0	0	0	523	478	
15	0	0	0	0	538	478	
0	0	0	0	0	593	479	
1	0	0	0	0	638	481	
2	0	0	0	0	631	485	
3	0	0	0	0	591	489	
4	0	0	0	0	551	493	
5	0	0	0	0	492	496	
6	0	0	0	0	412	498	
7	0	0	0	0	376	498	
8	0	0	0	0	394	496	
9	0	0	0	0	437	492	
10	0	0	0	0	464	490	
11	0	0	0	0	488	489	
12	0	0	0	0	502	487	
13	0	0	0	0	514	486	
14	0	0	0	0	519	485	
15	0	0	0	0	523	484	
0	0	0	0	0	547	483	
1	0	0	0	0	611	482	
2	0	0	0	0	647	484	
3	0	0	0	0	619	488	
4	0	0	0	0	578	492	
5	0	0	0	0	543	496	
6	0	0	0	0	466	499	
7	0	0	0	0	396	499	
8	0	0	0	0	376	498	
9	0	0	0	0	409	497	
10	0	0	0	0	446	493	
11	0	0	0	0	472	491	
12	0	0	0	0	491	491	
13	0	0	0	0	505	490	
14	0	0	0	0	514	488	
15	0	0	0	0	521	487	
0	0	0	0	0	527	485	
1	0	0	0	0	566	485	
2	0	0	0	0	625	485	
3	0	0	0	0	641	488	
4	0	0	0	0	608	491	
5	0	0	0	0	566	494	
6	0	0	0	0	528	496	
7	0	0	0	0	442	499	
8	0	0	0	0	381	500	
9	0	0	0	0	379	499	
10	0	0	0	0	419	496	
11	0	0	0	0	455	494	
12	0	0	0	0	480	493	
13	0	0	0	0	498	492	
14	0	0	0	0	509	492	
15	0	0	0	0	518	491	
0	0	0	0	0	521	490	
1	0	0	0	0	534	490	
2	0	0	0	0	588	489	
3	0	0	0	0	635	490	
4	0	0	0	0	638	494	
5	0	0	0	0	594	497	
6	0	0	0	0	556	500	
7	0	0	0	0	499	503	
8	0	0	0	0	416	505	
9	0	0	0	0	375	504	
10	0	0	0	0	387	503	
11	0	0	0	0	434	498	
12	0	0	0	0	464	496	
13	0	0	0	0	488	494	
14	0	0	0	0	502	492	
15	0	0	0	0	513	491	
0	0	0	0	0	516	490	
1	0	0	0	0	523	489	
2	0	0	0	0	545	488	
3	0	0	0	0	608	488	
4	0	0	0	0	645	490	
5	0	0	0	0	624	494	
6	0	0	0	0	582	498	
7	0	0	0	0	546	501	
8	0	0	0	0	472	504	
9	0	0	0	0	398	506	
10	0	0	0	0	372	505	
11	0	0	0	0	403	504	
12	0	0	0	0	446	499	
13	0	0	0	0	473	498	
14	0	0	0	0	491	496	
15	0	0	0	0	505	495	
0	0	0	0	0	517	494	
1	0	0	0	0	524	492	
2	0	0	0	0	528	491	
3	0	0	0	0	562	491	
4	0	0	0	0	623	491	
5	0	0	0	0	640	495	
6	0	0	0	0	608	497	
7	0	0	0	0	568	501	
8	0	0	0	0	533	505	
9	0	0	0	0	446	508	
10	0	0	0	0	384	510	
11	0	0	0	0	377	509	
12	0	0	0	0	414	508	
13	0	0	0	0	453	504	
14	0	0	0	0	480	502	
15	0	0	0	0	498	502	
0	0	0	0	0	509	500	
1	0	0	0	0	518	499	
2	0	0	0	0	521	498	
3	0	0	0	0	531	497	
4	0	0	0	0	587	496	
5	0	0	0	0	635	497	
6	0	0	0	0	636	501	
7	0	0	0	0	596	504	
8	0	0	0	0	559	508	
9	0	0	0	0	505	512	
10	0	0	0	0	420	513	
11	0	0	0	0	375	513	
12	0	0	0	0	386	511	
13	0	0	0	0	433	507	
14	0	0	0	0	460	505	
15	0	0	0	0	484	504	
0	0	0	0	0	500	503	
1	0	0	0	0	512	502	
2	0	0	0	0	519	500	
3	0	0	0	0	524	499	
4	0	0	0	0	543	499	
5	0	0	0	0	605	499	
6	0	0	0	0	643	499	
7	0	0	0	0	628	504	
8	0	0	0	0	584	507	
9	0	0	0	0	545	510	
10	0	0	0	0	477	513	
11	0	0	0	0	401	515	
12	0	0	0	0	373	514	
13	0	0	0	0	398	512	
14	0	0	0	0	440	508	
15	0	0	0	0	469	507	
0	0	0	0	0	490	505	
1	0	0	0	0	505	504	
2	0	0	0	0	515	503	
3	0	0	0	0	524	502	
4	0	0	0	0	527	500	
5	0	0	0	0	559	501	
6	0	0	0	0	622	501	
7	0	0	0	0	643	505	
8	0	0	0	0	612	509	
9	0	0	0	0	570	512	
10	0	0	0	0	537	515	
11	0	0	0	0	453	518	
12	0	0	0	0	385	518	
13	0	0	0	0	376	518	
14	0	0	0	0	413	516	
15	0	0	0	0	449	512	
0	0	0	0	0	476	511	
1	0	0	0	0	494	510	
2	0	0	0	0	509	509	
3	0	0	0	0	515	507	
4	0	0	0	0	522	507	
5	0	0	0	0	531	505	
6	0	0	0	0	580	505	
7	0	0	0	0	634	505	
8	0	0	0	0	641	510	
9	0	0	0	0	600	512	
10	0	0	0	0	560	515	
11	0	0	0	0	512	518	
12	0	0	0	0	425	521	
13	0	0	0	0	376	521	
14	0	0	0	0	385	519	
15	0	0	0	0	428	514	
0	0	0	0	0	459	512	
1	0	0	0	0	485	510	
2	0	0	0	0	497	509	
3	0	0	0	0	509	508	
4	0	0	0	0	520	507	
5	0	0	0	0	523	506	
6	0	0	0	0	539	505	
7	0	0	0	0	599	505	
8	0	0	0	0	641	506	
9	0	0	0	0	632	510	
10	0	0	0	0	588	513	
11	0	0	0	0	552	516	
12	0	0	0	0	485	519	
13	0	0	0	0	406	521	
14	0	0	0	0	374	520	
15	0	0	0	0	395	519	
0	0	0	0	0	438	514	
1	0	0	0	0	466	512	
2	0	0	0	0	489	510	
3	0	0	0	0	503	509	
4	0	0	0	0	515	508	
5	0	0	0	0	519	507	
6	0	0	0	0	523	505	
7	0	0	0	0	554	504	
8	0	0	0	0	619	503	
9	0	0	0	0	648	506	
10	0	0	0	0	616	507	
11	0	0	0	0	573	510	
12	0	0	0	0	541	515	
13	0	0	0	0	461	517	
14	0	0	0	0	389	519	
15	0	0	0	0	375	518	
0	0	0	0	0	409	516	
1	0	0	0	0	447	512	
2	0	0	0	0	475	510	
3	0	0	0	0	492	509	
4	0	0	0	0	505	507	
5	0	0	0	0	516	506	
6	0	0	0	0	521	505	
7	0	0	0	0	531	505	
8	0	0	0	0	577	505	
9	0	0	0	0	635	507	
10	0	0	0	0	643	511	
11	0	0	0	0	602	514	
12	0	0	0	0	561	518	
13	0	0	0	0	519	521	
14	0	0	0	0	431	523	
15	0	0	0	0	376	523	
0	0	0	0	0	384	522	
1	0	0	0	0	427	518	
2	0	0	0	0	454	516	
3	0	0	0	0	482	515	
4	0	0	0	0	497	513	
5	0	0	0	0	508	512	
6	0	0	0	0	518	511	
7	0	0	0	0	522	509	
8	0	0	0	0	540	508	
9	0	0	0	0	596	507	
10	0	0	0	0	641	508	
11	0	0	0	0	633	511	
12	0	0	0	0	588	513	
13	0	0	0	0	551	517	
14	0	0	0	0	488	519	
15	0	0	0	0	409	522	
0	0	0	0	0	372	521	
1	0	0	0	0	392	519	
2	0	0	0	0	436	515	
3	0	0	0	0	465	513	
4	0	0	0	0	488	512	
5	0	0	0	0	503	510	
6	0	0	0	0	515	508	
7	0	0	0	0	519	505	
8	0	0	0	0	523	505	
9	0	0	0	0	551	503	
10	0	0	0	0	615	503	
11	0	0	0	0	646	504	
12	0	0	0	0	620	508	
13	0	0	0	0	577	511	
14	0	0	0	0	543	514	
15	0	0	0	0	465	516	
0	0	0	0	0	394	517	
1	0	0	0	0	374	517	
2	0	0	0	0	407	515	
3	0	0	0	0	443	512	
4	0	0	0	0	473	510	
5	0	0	0	0	494	508	
6	0	0	0	0	507	507	
7	0	0	0	0	515	506	
8	0	0	0	0	522	505	
9	0	0	0	0	529	504	
10	0	0	0	0	572	504	
11	0	0	0	0	629	505	
12	0	0	0	0	643	508	
13	0	0	0	0	608	512	
14	0	0	0	0	564	516	
15	0	0	0	0	524	519	
0	0	0	0	0	436	522	
1	0	0	0	0	377	523	
2	0	0	0	0	378	521	
3	0	0	0	0	416	516	
4	0	0	0	0	454	515	
5	0	0	0	0	483	513	
6	0	0	0	0	500	511	
7	0	0	0	0	509	510	
8	0	0	0	0	519	508	
9	0	0	0	0	523	506	
10	0	0	0	0	536	504	
11	0	0	0	0	591	503	
12	0	0	0	0	642	504	
13	0	0	0	0	639	508	
14	0	0	0	0	593	511	
15	0	0	0	0	555	515	
0	0	0	0	0	493	518	
1	0	0	0	0	413	520	
2	0	0	0	0	371	520	
3	0	0	0	0	388	519	
4	0	0	0	0	433	515	
5	0	0	0	0	463	512	
6	0	0	0	0	488	511	
7	0	0	0	0	502	509	
8	0	0	0	0	513	508	
9	0	0	0	0	523	506	
10	0	0	0	0	526	504	
11	0	0	0	0	550	504	
12	0	0	0	0	611	504	
13	0	0	0	0	646	505	
14	0	0	0	0	622	510	
15	0	0	0	0	580	513	
0	0	0	0	0	545	518	
1	0	0	0	0	470	520	
2	0	0	0	0	393	522	
3	0	0	0	0	372	522	
4	0	0	0	0	403	520	
5	0	0	0	0	442	515	
6	0	0	0	0	470	513	
7	0	0	0	0	493	512	
8	0	0	0	0	504	511	
9	0	0	0	0	515	510	
10	0	0	0	0	520	510	
11	0	0	0	0	528	509	
12	0	0	0	0	568	509	
13	0	0	0	0	627	509	
14	0	0	0	0	641	513	
15	0	0	0	0	608	516	
0	0	0	0	0	568	519	
1	0	0	0	0	531	522	
2	0	0	0	0	443	525	
3	0	0	0	0	380	526	
4	0	0	0	0	377	525	
5	0	0	0	0	416	520	
6	0	0	0	0	451	518	
7	0	0	0	0	481	516	
8	0	0	0	0	499	514	
9	0	0	0	0	511	511	
10	0	0	0	0	518	510	
11	0	0	0	0	523	508	
12	0	0	0	0	536	507	
13	0	0	0	0	586	507	
14	0	0	0	0	639	508	
15	0	0	0	0	638	512	
0	0	0	0	0	596	514	
1	0	0	0	0	556	517	
2	0	0	0	0	499	520	
3	0	0	0	0	416	523	
4	0	0	0	0	372	523	
5	0	0	0	0	389	520	
6	0	0	0	0	432	516	
7	0	0	0	0	460	514	
8	0	0	0	0	486	512	
9	0	0	0	0	500	510	
10	0	0	0	0	512	508	
11	0	0	0	0	520	507	
12	0	0	0	0	525	506	
13	0	0	0	0	544	506	
14	0	0	0	0	609	506	
15	0	0	0	0	644	507	
0	0	0	0	0	627	512	
1	0	0	0	0	583	515	
2	0	0	0	0	549	519	
3	0	0	0	0	475	521	
4	0	0	0	0	399	523	
5	0	0	0	0	373	523	
6	0	0	0	0	400	521	
7	0	0	0	0	440	516	
8	0	0	0	0	469	515	
9	0	0	0	0	491	514	
10	0	0	0	0	504	513	
11	0	0	0	0	512	511	
12	0	0	0	0	520	509	
13	0	0	0	0	527	507	
14	0	0	0	0	565	504	
15	0	0	0	0	623	504	
0	0	0	0	0	642	507	
1	0	0	0	0	612	509	
2	0	0	0	0	569	511	
3	0	0	0	0	535	514	
4	0	0	0	0	450	516	
5	0	0	0	0	382	517	
6	0	0	0	0	377	516	
7	0	0	0	0	414	512	
8	0	0	0	0	453	509	
9	0	0	0	0	478	507	
10	0	0	0	0	496	506	
11	0	0	0	0	508	504	
12	0	0	0	0	517	503	
13	0	0	0	0	523	502	
14	0	0	0	0	534	501	
15	0	0	0	0	584	500	
0	0	0	0	0	636	500	
1	0	0	0	0	641	503	
2	0	0	0	0	599	507	
3	0	0	0	0	558	510	
4	0	0	0	0	506	514	
5	0	0	0	0	421	516	
6	0	0	0	0	372	516	
7	0	0	0	0	382	515	
8	0	0	0	0	430	511	
9	0	0	0	0	459	510	
10	0	0	0	0	481	508	
11	0	0	0	0	497	506	
12	0	0	0	0	512	505	
13	0	0	0	0	520	504	
14	0	0	0	0	519	503	
15	0	0	0	0	542	503	
0	0	0	0	0	604	501	
1	0	0	0	0	643	502	
2	0	0	0	0	631	506	
3	0	0	0	0	585	509	
4	0	0	0	0	549	512	
5	0	0	0	0	479	515	
6	0	0	0	0	398	517	
7	0	0	0	0	369	516	
8	0	0	0	0	396	514	
9	0	0	0	0	441	510	
10	0	0	0	0	466	508	
11	0	0	0	0	491	507	
12	0	0	0	0	508	506	
13	0	0	0	0	515	504	
14	0	0	0	0	522	503	
15	0	0	0	0	525	502	
0	0	0	0	0	559	502	
1	0	0	0	0	624	502	
2	0	0	0	0	652	505	
3	0	0	0	0	619	508	
4	0	0	0	0	573	511	
5	0	0	0	0	538	513	
6	0	0	0	0	455	515	
7	0	0	0	0	383	515	
8	0	0	0	0	373	515	
9	0	0	0	0	414	513	
10	0	0	0	0	451	510	
11	0	0	0	0	481	508	
12	0	0	0	0	497	507	
13	0	0	0	0	510	505	
14	0	0	0	0	518	504	
15	0	0	0	0	521	504	
0	0	0	0	0	530	504	
1	0	0	0	0	578	504	
2	0	0	0	0	632	504	
3	0	0	0	0	644	508	
4	0	0	0	0	603	512	
5	0	0	0	0	563	517	
6	0	0	0	0	517	520	
7	0	0	0	0	428	523	
8	0	0	0	0	376	524	
9	0	0	0	0	381	522	
10	0	0	0	0	427	519	
11	0	0	0	0	460	516	
12	0	0	0	0	485	514	
13	0	0	0	0	500	511	
14	0	0	0	0	512	510	
15	0	0	0	0	521	509	
0	0	0	0	0	524	508	
1	0	0	0	0	542	507	
2	0	0	0	0	602	506	
3	0	0	0	0	642	506	
4	0	0	0	0	629	510	
5	0	0	0	0	585	513	
6	0	0	0	0	551	517	
7	0	0	0	0	481	521	
8	0	0	0	0	405	523	
9	0	0	0	0	369	522	
10	0	0	0	0	390	519	
11	0	0	0	0	438	514	
12	0	0	0	0	466	511	
13	0	0	0	0	488	509	
14	0	0	0	0	503	507	
15	0	0	0	0	513	504	
0	0	0	0	0	519	501	
1	0	0	0	0	520	499	
2	0	0	0	0	552	497	
3	0	0	0	0	619	496	
4	0	0	0	0	651	501	
5	0	0	0	0	620	502	
6	0	0	0	0	574	505	
7	0	0	0	0	538	508	
8	0	0	0	0	460	510	
9	0	0	0	0	388	511	
10	0	0	0	0	373	510	
11	0	0	0	0	406	508	
12	0	0	0	0	446	503	
13	0	0	0	0	476	501	
14	0	0	0	0	494	499	
15	0	0	0	0	506	498	
0	0	0	0	0	518	496	
1	0	0	0	0	522	495	
2	0	0	0	0	530	494	
3	0	0	0	0	574	492	
4	0	0	0	0	631	492	
5	0	0	0	0	641	496	
6	0	0	0	0	607	498	
7	0	0	0	0	565	501	
8	0	0	0	0	521	504	
9	0	0	0	0	433	506	
10	0	0	0	0	374	507	
11	0	0	0	0	379	505	
12	0	0	0	0	421	501	
13	0	0	0	0	456	500	
14	0	0	0	0	482	499	
15	0	0	0	0	497	497	
0	0	0	0	0	512	496	
1	0	0	0	0	518	495	
2	0	0	0	0	525	494	
3	0	0	0	0	540	493	
4	0	0	0	0	596	493	
5	0	0	0	0	640	493	
6	0	0	0	0	633	497	
7	0	0	0	0	588	499	
8	0	0	0	0	552	503	
9	0	0	0	0	488	506	
10	0	0	0	0	408	508	
11	0	0	0	0	371	507	
12	0	0	0	0	390	506	
13	0	0	0	0	436	502	
14	0	0	0	0	462	499	
15	0	0	0	0	489	498	
0	0	0	0	0	503	496	
1	0	0	0	0	513	493	
2	0	0	0	0	517	492	
3	0	0	0	0	523	490	
4	0	0	0	0	551	489	
5	0	0	0	0	615	487	
6	0	0	0	0	646	491	
7	0	0	0	0	623	493	
8	0	0	0	0	579	496	
9	0	0	0	0	544	499	
10	0	0	0	0	465	502	
11	0	0	0	0	393	503	
12	0	0	0	0	371	502	
13	0	0	0	0	403	499	
14	0	0	0	0	443	496	
15	0	0	0	0	472	495	
0	0	0	0	0	492	494	
1	0	0	0	0	502	495	
2	0	0	0	0	511	495	
3	0	0	0	0	518	496	
4	0	0	0	0	523	496	
5	0	0	0	0	561	496	
6	0	0	0	0	618	498	
7	0	0	0	0	631	503	
8	0	0	0	0	593	507	
9	0	0	0	0	551	511	
10	0	0	0	0	511	515	
11	0	0	0	0	422	520	
12	0	0	0	0	363	524	
13	0	0	0	0	370	524	
14	0	0	0	0	415	524	
15	0	0	0	0	452	526	
0	0	0	0	0	481	528	
1	0	0	0	0	503	531	
2	0	0	0	0	516	535	
3	0	0	0	0	530	539	
4	0	0	0	0	535	543	
5	0	0	0	0	547	548	
6	0	0	0	0	605	552	
7	0	0	0	0	655	558	
8	0	0	0	0	653	565	
9	0	0	0	0	615	571	
10	0	0	0	0	583	579	
11	0	0	0	0	520	585	
12	0	0	0	0	431	588	
13	0	0	0	0	393	588	
14	0	0	0	0	406	583	
15	0	0	0	0	451	573	
0	0	0	0	0	480	564	
1	0	0	0	0	505	556	
2	0	0	0	0	517	546	
3	0	0	0	0	521	532	
4	0	0	0	0	527	519	
5	0	0	0	0	526	506	
6	0	0	0	0	543	495	
7	0	0	0	0	610	487	
8	0	0	0	0	649	480	
9	0	0	0	0	629	480	
10	0	0	0	0	583	478	
11	0	0	0	0	543	478	
12	0	0	0	0	465	478	
13	0	0	0	0	381	475	
14	0	0	0	0	356	470	
15	0	0	0	0	385	462	
0	0	0	0	0	425	450	
1	0	0	0	0	453	441	
2	0	0	0	0	471	432	
3	0	0	0	0	485	423	
4	0	0	0	0	500	415	
5	0	0	0	0	518	410	
6	0	0	0	0	527	406	
7	0	0	0	0	562	404	
8	0	0	0	0	623	405	
9	0	0	0	0	639	409	
10	0	0	0	0	610	414	
11	0	0	0	0	574	420	
12	0	0	0	0	537	425	
13	0	0	0	0	448	430	
14	0	0	0	0	383	433	
15	0	0	0	0	377	434	
0	0	0	0	0	414	434	
1	0	0	0	0	451	432	
2	0	0	0	0	479	433	
3	0	0	0	0	495	435	
4	0	0	0	0	506	437	
5	0	0	0	0	512	439	
6	0	0	0	0	514	441	
7	0	0	0	0	523	443	
8	0	0	0	0	574	446	
9	0	0	0	0	624	450	
10	0	0	0	0	625	458	
11	0	0	0	0	588	465	
12	0	0	0	0	547	472	
13	0	0	0	0	493	478	
14	0	0	0	0	408	483	
15	0	0	0	0	361	486	
0	0	0	0	0	374	487	
1	0	0	0	0	424	487	
2	0	0	0	0	456	487	
3	0	0	0	0	481	487	
4	0	0	0	0	501	487	
5	0	0	0	0	513	487	
6	0	0	0	0	523	487	
7	0	0	0	0	526	488	
8	0	0	0	0	546	487	
9	0	0	0	0	614	488	
10	0	0	0	0	650	491	
11	0	0	0	0	633	496	
12	0	0	0	0	590	502	
13	0	0	0	0	556	507	
14	0	0	0	0	483	510	
15	0	0	0	0	405	511	
0	0	0	0	0	378	512	
1	0	0	0	0	404	510	
2	0	0	0	0	444	505	
3	0	0	0	0	475	504	
4	0	0	0	0	496	502	
5	0	0	0	0	508	501	
6	0	0	0	0	518	501	
7	0	0	0	0	524	500	
8	0	0	0	0	528	499	
9	0	0	0	0	564	498	
10	0	0	0	0	626	498	
11	0	0	0	0	649	502	
12	0	0	0	0	616	505	
13	0	0	0	0	572	508	
14	0	0	0	0	539	511	
15	0	0	0	0	451	514	
0	0	0	0	0	387	515	
1	0	0	0	0	377	514	
2	0	0	0	0	413	512	
3	0	0	0	0	448	508	
4	0	0	0	0	476	507	
5	0	0	0	0	494	505	
6	0	0	0	0	508	503	
7	0	0	0	0	518	502	
8	0	0	0	0	522	501	
9	0	0	0	0	532	500	
10	0	0	0	0	583	499	
11	0	0	0	0	638	499	
12	0	0	0	0	639	503	
13	0	0	0	0	602	506	
14	0	0	0	0	561	510	
15	0	0	0	0	514	513	
0	0	0	0	0	422	516	
1	0	0	0	0	372	516	
2	0	0	0	0	381	515	
3	0	0	0	0	428	511	
4	0	0	0	0	459	509	
5	0	0	0	0	484	507	
6	0	0	0	0	502	505	
7	0	0	0	0	511	504	
8	0	0	0	0	519	503	
9	0	0	0	0	523	502	
10	0	0	0	0	539	501	
11	0	0	0	0	601	500	
12	0	0	0	0	643	501	
13	0	0	0	0	631	505	
14	0	0	0	0	588	508	
15	0	0	0	0	548	512	
0	0	0	0	0	482	514	
1	0	0	0	0	403	516	
2	0	0	0	0	369	516	
3	0	0	0	0	396	513	
4	0	0	0	0	437	510	
5	0	0	0	0	465	508	
6	0	0	0	0	488	506	
7	0	0	0	0	506	505	
8	0	0	0	0	514	504	
9	0	0	0	0	520	504	
10	0	0	0	0	527	503	
11	0	0	0	0	556	502	
12	0	0	0	0	619	503	
13	0	0	0	0	649	507	
14	0	0	0	0	617	508	
15	0	0	0	0	573	511	
0	0	0	0	0	540	515	
1	0	0	0	0	455	519	
2	0	0	0	0	387	520	
3	0	0	0	0	374	519	
4	0	0	0	0	409	517	
5	0	0	0	0	446	513	
6	0	0	0	0	476	512	
7	0	0	0	0	495	511	
8	0	0	0	0	508	510	
9	0	0	0	0	517	508	
10	0	0	0	0	523	506	
11	0	0	0	0	529	505	
12	0	0	0	0	577	503	
13	0	0	0	0	632	503	
14	0	0	0	0	640	506	
15	0	0	0	0	604	508	
0	0	0	0	0	561	512	
1	0	0	0	0	517	515	
2	0	0	0	0	429	518	
3	0	0	0	0	376	519	
4	0	0	0	0	382	518	
5	0	0	0	0	427	513	
6	0	0	0	0	456	512	
7	0	0	0	0	483	511	
8	0	0	0	0	498	509	
9	0	0	0	0	510	509	
10	0	0	0	0	519	508	
11	0	0	0	0	523	506	
12	0	0	0	0	539	505	
13	0	0	0	0	599	504	
14	0	0	0	0	640	505	
15	0	0	0	0	635	510	
0	0	0	0	0	590	512	
1	0	0	0	0	553	516	
2	0	0	0	0	489	520	
3	0	0	0	0	406	521	
4	0	0	0	0	369	522	
5	0	0	0	0	391	520	
6	0	0	0	0	437	516	
7	0	0	0	0	465	513	
8	0	0	0	0	487	512	
9	0	0	0	0	502	511	
10	0	0	0	0	513	509	
11	0	0	0	0	520	508	
12	0	0	0	0	524	507	
13	0	0	0	0	552	505	
14	0	0	0	0	618	505	
15	0	0	0	0	646	507	
0	0	0	0	0	621	512	
1	0	0	0	0	575	515	
2	0	0	0	0	542	519	
3	0	0	0	0	465	521	
4	0	0	0	0	392	523	
5	0	0	0	0	373	523	
6	0	0	0	0	408	521	
7	0	0	0	0	444	518	
8	0	0	0	0	472	516	
9	0	0	0	0	495	514	
10	0	0	0	0	505	513	
11	0	0	0	0	515	512	
12	0	0	0	0	520	511	
13	0	0	0	0	527	510	
14	0	0	0	0	569	509	
15	0	0	0	0	631	509	
0	0	0	0	0	641	512	
1	0	0	0	0	607	514	
2	0	0	0	0	567	518	
3	0	0	0	0	525	520	
4	0	0	0	0	435	523	
5	0	0	0	0	375	523	
6	0	0	0	0	377	522	
7	0	0	0	0	418	518	
8	0	0	0	0	453	516	
9	0	0	0	0	481	515	
10	0	0	0	0	498	514	
11	0	0	0	0	510	513	
12	0	0	0	0	514	512	
13	0	0	0	0	521	511	
14	0	0	0	0	536	511	
15	0	0	0	0	593	510	
0	0	0	0	0	642	510	
1	0	0	0	0	637	514	
2	0	0	0	0	592	517	
3	0	0	0	0	551	521	
4	0	0	0	0	496	524	
5	0	0	0	0	412	527	
6	0	0	0	0	370	527	
7	0	0	0	0	386	525	
8	0	0	0	0	431	521	
9	0	0	0	0	462	520	
10	0	0	0	0	487	518	
11	0	0	0	0	501	516	
12	0	0	0	0	514	515	
13	0	0	0	0	523	513	
14	0	0	0	0	524	512	
15	0	0	0	0	548	512	
0	0	0	0	0	613	512	
1	0	0	0	0	647	513	
2	0	0	0	0	624	517	
3	0	0	0	0	580	520	
4	0	0	0	0	544	522	
5	0	0	0	0	467	526	
6	0	0	0	0	393	528	
7	0	0	0	0	372	529	
8	0	0	0	0	403	527	
9	0	0	0	0	441	523	
10	0	0	0	0	472	522	
11	0	0	0	0	492	519	
12	0	0	0	0	506	518	
13	0	0	0	0	516	517	
14	0	0	0	0	522	515	
15	0	0	0	0	527	513	
0	0	0	0	0	566	512	
1	0	0	0	0	628	512	
2	0	0	0	0	645	516	
3	0	0	0	0	612	519	
4	0	0	0	0	570	523	
5	0	0	0	0	530	527	
6	0	0	0	0	439	530	
7	0	0	0	0	379	531	
8	0	0	0	0	379	529	
9	0	0	0	0	417	527	
10	0	0	0	0	452	524	
11	0	0	0	0	480	522	
12	0	0	0	0	497	522	
13	0	0	0	0	510	520	
14	0	0	0	0	519	519	
15	0	0	0	0	520	519	
0	0	0	0	0	535	519	
1	0	0	0	0	591	518	
2	0	0	0	0	639	519	
3	0	0	0	0	641	523	
4	0	0	0	0	595	525	
5	0	0	0	0	556	528	
6	0	0	0	0	502	532	
7	0	0	0	0	416	535	
8	0	0	0	0	374	535	
9	0	0	0	0	388	533	
10	0	0	0	0	433	528	
11	0	0	0	0	463	527	
12	0	0	0	0	487	524	
13	0	0	0	0	502	522	
14	0	0	0	0	512	519	
15	0	0	0	0	520	518	
0	0	0	0	0	525	515	
1	0	0	0	0	547	513	
2	0	0	0	0	611	513	
3	0	0	0	0	649	512	
4	0	0	0	0	628	515	
5	0	0	0	0	584	516	
6	0	0	0	0	547	519	
7	0	0	0	0	476	521	
8	0	0	0	0	399	522	
9	0	0	0	0	373	522	
10	0	0	0	0	401	519	
11	0	0	0	0	443	515	
12	0	0	0	0	473	512	
13	0	0	0	0	492	510	
14	0	0	0	0	508	508	
15	0	0	0	0	517	506	
0	0	0	0	0	522	504	
1	0	0	0	0	528	501	
2	0	0	0	0	565	498	
3	0	0	0	0	626	496	
4	0	0	0	0	643	499	
5	0	0	0	0	614	500	
6	0	0	0	0	575	502	
7	0	0	0	0	537	503	
8	0	0	0	0	448	504	
9	0	0	0	0	384	504	
10	0	0	0	0	377	502	
11	0	0	0	0	415	496	
12	0	0	0	0	451	493	
13	0	0	0	0	478	491	
14	0	0	0	0	498	488	
15	0	0	0	0	511	486	
0	0	0	0	0	517	483	
1	0	0	0	0	523	481	
2	0	0	0	0	535	480	
3	0	0	0	0	584	477	
4	0	0	0	0	637	477	
5	0	0	0	0	640	479	
6	0	0	0	0	599	481	
7	0	0	0	0	558	483	
8	0	0	0	0	508	485	
9	0	0	0	0	420	486	
10	0	0	0	0	372	486	
11	0	0	0	0	382	483	
12	0	0	0	0	429	479	
13	0	0	0	0	462	476	
14	0	0	0	0	484	474	
15	0	0	0	0	498	473	
0	0	0	0	0	510	471	
1	0	0	0	0	519	469	
2	0	0	0	0	524	467	
3	0	0	0	0	540	465	
4	0	0	0	0	602	463	
5	0	0	0	0	642	463	
6	0	0	0	0	628	466	
7	0	0	0	0	583	470	
8	0	0	0	0	548	473	
9	0	0	0	0	478	477	
10	0	0	0	0	399	479	
11	0	0	0	0	371	479	
12	0	0	0	0	395	477	
13	0	0	0	0	440	473	
14	0	0	0	0	467	471	
15	0	0	0	0	489	470	
0	0	0	0	0	505	468	
1	0	0	0	0	513	467	
2	0	0	0	0	517	466	
3	0	0	0	0	526	465	
4	0	0	0	0	559	464	
5	0	0	0	0	623	464	
6	0	0	0	0	647	467	
7	0	0	0	0	613	469	
8	0	0	0	0	572	472	
9	0	0	0	0	535	476	
10	0	0	0	0	450	479	
11	0	0	0	0	382	480	
12	0	0	0	0	376	479	
13	0	0	0	0	409	477	
14	0	0	0	0	448	473	
15	0	0	0	0	473	472	
0	0	0	0	0	496	471	
1	0	0	0	0	506	470	
2	0	0	0	0	516	469	
3	0	0	0	0	519	467	
4	0	0	0	0	531	466	
5	0	0	0	0	579	465	
6	0	0	0	0	632	467	
7	0	0	0	0	643	471	
8	0	0	0	0	601	473	
9	0	0	0	0	561	476	
10	0	0	0	0	513	479	
11	0	0	0	0	425	481	
12	0	0	0	0	373	482	
13	0	0	0	0	382	480	
14	0	0	0	0	428	477	
15	0	0	0	0	457	476	
0	0	0	0	0	480	475	
1	0	0	0	0	500	473	
2	0	0	0	0	512	472	
3	0	0	0	0	518	472	
4	0	0	0	0	523	470	
5	0	0	0	0	540	468	
6	0	0	0	0	603	468	
7	0	0	0	0	642	469	
8	0	0	0	0	631	473	
9	0	0	0	0	589	476	
10	0	0	0	0	551	479	
11	0	0	0	0	485	483	
12	0	0	0	0	404	484	
13	0	0	0	0	371	485	
14	0	0	0	0	394	484	
15	0	0	0	0	438	480	
0	0	0	0	0	465	480	
1	0	0	0	0	490	479	
2	0	0	0	0	504	479	
3	0	0	0	0	513	478	
4	0	0	0	0	521	477	
5	0	0	0	0	526	477	
6	0	0	0	0	553	477	
7	0	0	0	0	618	477	
8	0	0	0	0	645	480	
9	0	0	0	0	615	483	
10	0	0	0	0	575	487	
11	0	0	0	0	543	489	
12	0	0	0	0	461	493	
13	0	0	0	0	389	494	
14	0	0	0	0	373	494	
15	0	0	0	0	409	492	
0	0	0	0	0	443	487	
1	0	0	0	0	476	487	
2	0	0	0	0	496	486	
3	0	0	0	0	506	484	
4	0	0	0	0	517	483	
5	0	0	0	0	524	481	
6	0	0	0	0	531	480	
7	0	0	0	0	574	480	
8	0	0	0	0	630	480	
9	0	0	0	0	643	485	
10	0	0	0	0	604	488	
11	0	0	0	0	563	492	
12	0	0	0	0	521	496	
13	0	0	0	0	432	499	
14	0	0	0	0	375	500	
15	0	0	0	0	379	499	
0	0	0	0	0	427	496	
1	0	0	0	0	454	492	
2	0	0	0	0	481	491	
3	0	0	0	0	500	489	
4	0	0	0	0	511	487	
5	0	0	0	0	519	486	
6	0	0	0	0	526	485	
7	0	0	0	0	538	483	
8	0	0	0	0	597	484	
9	0	0	0	0	641	485	
10	0	0	0	0	634	489	
11	0	0	0	0	592	494	
12	0	0	0	0	553	498	
13	0	0	0	0	491	502	
14	0	0	0	0	409	504	
15	0	0	0	0	370	503	
0	0	0	0	0	391	501	
1	0	0	0	0	435	497	
2	0	0	0	0	465	496	
3	0	0	0	0	486	496	
4	0	0	0	0	501	495	
5	0	0	0	0	512	494	
6	0	0	0	0	520	492	
7	0	0	0	0	523	492	
8	0	0	0	0	551	490	
9	0	0	0	0	612	491	
10	0	0	0	0	647	492	
11	0	0	0	0	622	496	
12	0	0	0	0	580	499	
13	0	0	0	0	544	502	
14	0	0	0	0	466	505	
15	0	0	0	0	394	507	
0	0	0	0	0	373	506	
1	0	0	0	0	406	504	
2	0	0	0	0	443	500	
3	0	0	0	0	473	498	
4	0	0	0	0	494	496	
5	0	0	0	0	505	494	
6	0	0	0	0	517	493	
7	0	0	0	0	522	492	
8	0	0	0	0	529	490	
9	0	0	0	0	572	489	
10	0	0	0	0	630	488	
11	0	0	0	0	644	492	
12	0	0	0	0	609	494	
13	0	0	0	0	565	497	
14	0	0	0	0	524	502	
15	0	0	0	0	437	505	
0	0	0	0	0	375	507	
1	0	0	0	0	376	507	
2	0	0	0	0	417	504	
3	0	0	0	0	454	502	
4	0	0	0	0	480	499	
5	0	0	0	0	498	498	
6	0	0	0	0	510	496	
7	0	0	0	0	518	495	
8	0	0	0	0	524	494	
9	0	0	0	0	533	492	
10	0	0	0	0	592	492	
11	0	0	0	0	639	492	
12	0	0	0	0	638	496	
13	0	0	0	0	595	499	
14	0	0	0	0	555	502	
15	0	0	0	0	496	505	
0	0	0	0	0	412	507	
1	0	0	0	0	372	508	
2	0	0	0	0	389	505	
3	0	0	0	0	433	501	
4	0	0	0	0	463	498	
5	0	0	0	0	484	496	
6	0	0	0	0	501	495	
7	0	0	0	0	513	494	
8	0	0	0	0	520	492	
9	0	0	0	0	526	490	
10	0	0	0	0	547	488	
11	0	0	0	0	611	487	
12	0	0	0	0	643	489	
13	0	0	0	0	623	494	
14	0	0	0	0	583	497	
15	0	0	0	0	548	499	
0	0	0	0	0	471	502	
1	0	0	0	0	397	503	
2	0	0	0	0	373	502	
3	0	0	0	0	402	500	
4	0	0	0	0	443	495	
5	0	0	0	0	472	493	
6	0	0	0	0	492	490	
7	0	0	0	0	505	488	
8	0	0	0	0	514	487	
9	0	0	0	0	523	485	
10	0	0	0	0	530	484	
11	0	0	0	0	567	483	
12	0	0	0	0	624	483	
13	0	0	0	0	644	486	
14	0	0	0	0	610	488	
15	0	0	0	0	566	492	
0	0	0	0	0	531	495	
1	0	0	0	0	443	498	
2	0	0	0	0	380	499	
3	0	0	0	0	375	499	
4	0	0	0	0	413	496	
5	0	0	0	0	452	494	
6	0	0	0	0	479	491	
7	0	0	0	0	497	490	
8	0	0	0	0	508	488	
9	0	0	0	0	516	487	
10	0	0	0	0	522	486	
11	0	0	0	0	535	484	
12	0	0	0	0	587	484	
13	0	0	0	0	639	485	
14	0	0	0	0	634	489	
15	0	0	0	0	601	492	
0	0	0	0	0	559	496	
1	0	0	0	0	505	498	
2	0	0	0	0	417	500	
3	0	0	0	0	371	501	
4	0	0	0	0	384	500	
5	0	0	0	0	429	496	
6	0	0	0	0	459	494	
7	0	0	0	0	486	491	
8	0	0	0	0	502	489	
9	0	0	0	0	512	487	
10	0	0	0	0	521	486	
11	0	0	0	0	525	484	
12	0	0	0	0	545	483	
13	0	0	0	0	607	483	
14	0	0	0	0	644	483	
15	0	0	0	0	628	488	
0	0	0	0	0	582	492	
1	0	0	0	0	546	496	
2	0	0	0	0	475	499	
3	0	0	0	0	400	500	
4	0	0	0	0	372	501	
5	0	0	0	0	399	499	
6	0	0	0	0	440	495	
7	0	0	0	0	468	494	
8	0	0	0	0	493	491	
9	0	0	0	0	504	489	
10	0	0	0	0	515	487	
11	0	0	0	0	519	485	
12	0	0	0	0	525	485	
13	0	0	0	0	561	483	
14	0	0	0	0	623	483	
15	0	0	0	0	643	487	
0	0	0	0	0	613	491	
1	0	0	0	0	568	494	
2	0	0	0	0	535	497	
3	0	0	0	0	450	499	
4	0	0	0	0	383	501	
5	0	0	0	0	373	500	
6	0	0	0	0	412	498	
7	0	0	0	0	448	494	
8	0	0	0	0	479	492	
9	0	0	0	0	497	491	
10	0	0	0	0	511	489	
11	0	0	0	0	518	488	
12	0	0	0	0	524	487	
13	0	0	0	0	534	487	
14	0	0	0	0	582	486	
15	0	0	0	0	636	486	
0	0	0	0	0	643	490	
1	0	0	0	0	600	492	
2	0	0	0	0	560	496	
3	0	0	0	0	511	500	
4	0	0	0	0	423	504	
5	0	0	0	0	374	505	
6	0	0	0	0	384	504	
7	0	0	0	0	430	500	
8	0	0	0	0	459	499	
9	0	0	0	0	484	497	
10	0	0	0	0	499	496	
11	0	0	0	0	508	495	
12	0	0	0	0	519	494	
13	0	0	0	0	523	493	
14	0	0	0	0	540	492	
15	0	0	0	0	603	490	
0	0	0	0	0	644	491	
1	0	0	0	0	628	495	
2	0	0	0	0	587	499	
3	0	0	0	0	550	503	
4	0	0	0	0	481	505	
5	0	0	0	0	403	508	
6	0	0	0	0	373	508	
7	0	0	0	0	396	506	
8	0	0	0	0	438	502	
9	0	0	0	0	467	500	
10	0	0	0	0	488	499	
11	0	0	0	0	503	497	
12	0	0	0	0	516	496	
13	0	0	0	0	522	494	
14	0	0	0	0	526	494	
15	0	0	0	0	556	493	
0	0	0	0	0	619	493	
1	0	0	0	0	649	499	
2	0	0	0	0	617	499	
3	0	0	0	0	573	503	
4	0	0	0	0	540	507	
5	0	0	0	0	456	509	
6	0	0	0	0	385	511	
7	0	0	0	0	373	510	
8	0	0	0	0	409	509	
9	0	0	0	0	448	506	
10	0	0	0	0	477	504	
11	0	0	0	0	495	503	
12	0	0	0	0	507	502	
13	0	0	0	0	518	500	
14	0	0	0	0	523	499	
15	0	0	0	0	530	498	
0	0	0	0	0	578	498	
1	0	0	0	0	633	499	
2	0	0	0	0	636	502	
3	0	0	0	0	600	504	
4	0	0	0	0	563	507	
5	0	0	0	0	519	510	
6	0	0	0	0	429	513	
7	0	0	0	0	376	513	
8	0	0	0	0	382	512	
9	0	0	0	0	429	508	
10	0	0	0	0	457	506	
11	0	0	0	0	481	504	
12	0	0	0	0	498	503	
13	0	0	0	0	511	502	
14	0	0	0	0	518	501	
15	0	0	0	0	524	501	
0	0	0	0	0	536	500	
1	0	0	0	0	598	499	
2	0	0	0	0	645	500	
3	0	0	0	0	631	504	
4	0	0	0	0	589	508	
5	0	0	0	0	552	511	
6	0	0	0	0	486	514	
7	0	0	0	0	408	515	
8	0	0	0	0	371	515	
9	0	0	0	0	392	513	
10	0	0	0	0	437	509	
11	0	0	0	0	465	507	
12	0	0	0	0	490	504	
13	0	0	0	0	504	502	
14	0	0	0	0	518	500	
15	0	0	0	0	520	499	
0	0	0	0	0	523	497	
1	0	0	0	0	550	496	
2	0	0	0	0	615	496	
3	0	0	0	0	647	502	
4	0	0	0	0	617	503	
5	0	0	0	0	575	506	
6	0	0	0	0	541	510	
7	0	0	0	0	461	512	
8	0	0	0	0	391	512	
9	0	0	0	0	375	511	
10	0	0	0	0	407	509	
11	0	0	0	0	445	506	
12	0	0	0	0	476	504	
13	0	0	0	0	495	503	
14	0	0	0	0	505	502	
15	0	0	0	0	517	501	
0	0	0	0	0	521	500	
1	0	0	0	0	527	499	
2	0	0	0	0	573	498	
3	0	0	0	0	630	498	
4	0	0	0	0	641	502	
5	0	0	0	0	606	504	
6	0	0	0	0	565	508	
7	0	0	0	0	526	511	
8	0	0	0	0	435	513	
9	0	0	0	0	378	514	
10	0	0	0	0	380	513	
11	0	0	0	0	417	509	
12	0	0	0	0	455	507	
13	0	0	0	0	481	505	
14	0	0	0	0	498	504	
15	0	0	0	0	511	503	
0	0	0	0	0	519	501	
1	0	0	0	0	523	500	
2	0	0	0	0	536	499	
3	0	0	0	0	592	499	
4	0	0	0	0	640	499	
5	0	0	0	0	632	503	
6	0	0	0	0	592	506	
7	0	0	0	0	555	510	
8	0	0	0	0	493	513	
9	0	0	0	0	410	514	
10	0	0	0	0	371	514	
11	0	0	0	0	389	512	
12	0	0	0	0	435	508	
13	0	0	0	0	463	505	
14	0	0	0	0	487	503	
15	0	0	0	0	504	501	
0	0	0	0	0	512	499	
1	0	0	0	0	521	496	
2	0	0	0	0	526	494	
3	0	0	0	0	549	492	
4	0	0	0	0	612	491	
5	0	0	0	0	646	492	
6	0	0	0	0	623	495	
7	0	0	0	0	579	498	
8	0	0	0	0	543	500	
9	0	0	0	0	466	503	
10	0	0	0	0	392	503	
11	0	0	0	0	371	501	
12	0	0	0	0	402	499	
13	0	0	0	0	445	493	
14	0	0	0	0	471	490	
15	0	0	0	0	492	488	
0	0	0	0	0	505	486	
1	0	0	0	0	518	484	
2	0	0	0	0	523	482	
3	0	0	0	0	530	479	
4	0	0	0	0	568	478	
5	0	0	0	0	627	477	
6	0	0	0	0	638	479	
7	0	0	0	0	608	481	
8	0	0	0	0	568	484	
9	0	0	0	0	529	487	
10	0	0	0	0	440	489	
11	0	0	0	0	380	490	
12	0	0	0	0	380	488	
13	0	0	0	0	419	485	
14	0	0	0	0	454	481	
15	0	0	0	0	481	479	
0	0	0	0	0	498	476	
1	0	0	0	0	510	475	
2	0	0	0	0	518	472	
3	0	0	0	0	522	471	
4	0	0	0	0	533	470	
5	0	0	0	0	589	468	
6	0	0	0	0	638	468	
7	0	0	0	0	638	471	
8	0	0	0	0	593	473	
9	0	0	0	0	554	476	
10	0	0	0	0	496	478	
11	0	0	0	0	417	479	
12	0	0	0	0	371	479	
13	0	0	0	0	386	477	
14	0	0	0	0	434	472	
15	0	0	0	0	461	469	
0	0	0	0	0	485	467	
1	0	0	0	0	500	466	
2	0	0	0	0	510	464	
3	0	0	0	0	519	462	
4	0	0	0	0	522	460	
5	0	0	0	0	545	459	
6	0	0	0	0	609	458	
7	0	0	0	0	642	458	
8	0	0	0	0	622	463	
9	0	0	0	0	581	465	
10	0	0	0	0	547	468	
11	0	0	0	0	472	470	
12	0	0	0	0	397	471	
13	0	0	0	0	374	470	
14	0	0	0	0	400	467	
15	0	0	0	0	442	461	
0	0	0	0	0	470	458	
1	0	0	0	0	493	455	
2	0	0	0	0	507	454	
3	0	0	0	0	516	452	
4	0	0	0	0	521	450	
5	0	0	0	0	527	448	
6	0	0	0	0	566	447	
7	0	0	0	0	626	447	
8	0	0	0	0	643	451	
9	0	0	0	0	611	453	
10	0	0	0	0	572	457	
11	0	0	0	0	535	460	
12	0	0	0	0	447	463	
13	0	0	0	0	383	463	
14	0	0	0	0	377	461	
15	0	0	0	0	415	458	
0	0	0	0	0	450	454	
1	0	0	0	0	478	451	
2	0	0	0	0	497	449	
3	0	0	0	0	511	446	
4	0	0	0	0	519	445	
5	0	0	0	0	525	444	
6	0	0	0	0	535	442	
7	0	0	0	0	585	441	
8	0	0	0	0	636	442	
9	0	0	0	0	633	447	
10	0	0	0	0	597	450	
11	0	0	0	0	560	454	
12	0	0	0	0	506	457	
13	0	0	0	0	422	460	
14	0	0	0	0	375	460	
15	0	0	0	0	386	459	
0	0	0	0	0	432	454	
1	0	0	0	0	460	452	
2	0	0	0	0	487	451	
3	0	0	0	0	504	448	
4	0	0	0	0	514	446	
5	0	0	0	0	523	444	
6	0	0	0	0	525	442	
7	0	0	0	0	542	440	
8	0	0	0	0	605	440	
9	0	0	0	0	644	440	
10	0	0	0	0	630	443	
11	0	0	0	0	586	446	
12	0	0	0	0	548	450	
13	0	0	0	0	477	453	
14	0	0	0	0	400	454	
15	0	0	0	0	371	452	
0	0	0	0	0	396	450	
1	0	0	0	0	439	445	
2	0	0	0	0	466	443	
3	0	0	0	0	489	440	
4	0	0	0	0	505	437	
5	0	0	0	0	513	434	
6	0	0	0	0	523	431	
7	0	0	0	0	523	429	
8	0	0	0	0	558	427	
9	0	0	0	0	619	426	
10	0	0	0	0	644	429	
11	0	0	0	0	611	430	
12	0	0	0	0	569	432	
13	0	0	0	0	536	435	
14	0	0	0	0	451	438	
15	0	0	0	0	383	439	
0	0	0	0	0	376	437	
1	0	0	0	0	412	432	
2	0	0	0	0	448	430	
3	0	0	0	0	475	428	
4	0	0	0	0	496	425	
5	0	0	0	0	507	423	
6	0	0	0	0	516	422	
7	0	0	0	0	519	420	
8	0	0	0	0	531	419	
9	0	0	0	0	580	417	
10	0	0	0	0	636	417	
11	0	0	0	0	640	421	
12	0	0	0	0	602	424	
13	0	0	0	0	561	428	
14	0	0	0	0	510	432	
15	0	0	0	0	427	435	
0	0	0	0	0	376	435	
1	0	0	0	0	382	434	
2	0	0	0	0	429	430	
3	0	0	0	0	460	429	
4	0	0	0	0	485	427	
5	0	0	0	0	498	425	
6	0	0	0	0	512	424	
7	0	0	0	0	519	423	
8	0	0	0	0	523	423	
9	0	0	0	0	541	421	
10	0	0	0	0	599	422	
11	0	0	0	0	642	423	
12	0	0	0	0	628	427	
13	0	0	0	0	587	430	
14	0	0	0	0	550	433	
15	0	0	0	0	482	437	
0	0	0	0	0	405	438	
1	0	0	0	0	372	438	
2	0	0	0	0	396	436	
3	0	0	0	0	438	432	
4	0	0	0	0	468	430	
5	0	0	0	0	489	428	
6	0	0	0	0	502	427	
7	0	0	0	0	515	425	
8	0	0	0	0	523	424	
9	0	0	0	0	524	423	
10	0	0	0	0	556	423	
11	0	0	0	0	618	424	
12	0	0	0	0	647	430	
13	0	0	0	0	617	432	
14	0	0	0	0	571	437	
15	0	0	0	0	540	440	
0	0	0	0	0	460	444	
1	0	0	0	0	388	446	
2	0	0	0	0	376	446	
3	0	0	0	0	407	444	
4	0	0	0	0	447	440	
5	0	0	0	0	474	439	
6	0	0	0	0	492	438	
7	0	0	0	0	507	437	
8	0	0	0	0	516	435	
9	0	0	0	0	521	436	
10	0	0	0	0	527	435	
11	0	0	0	0	572	438	
12	0	0	0	0	629	441	
13	0	0	0	0	631	447	
14	0	0	0	0	595	452	
15	0	0	0	0	554	457	
0	0	0	0	0	509	463	
1	0	0	0	0	415	467	
2	0	0	0	0	363	469	
3	0	0	0	0	367	470	
4	0	0	0	0	412	469	
5	0	0	0	0	444	469	
6	0	0	0	0	475	470	
7	0	0	0	0	492	472	
8	0	0	0	0	507	476	
9	0	0	0	0	519	479	
10	0	0	0	0	528	482	
11	0	0	0	0	546	486	
12	0	0	0	0	604	491	
13	0	0	0	0	652	498	
14	0	0	0	0	639	509	
15	0	0	0	0	598	519	
0	0	0	0	0	565	528	
1	0	0	0	0	505	536	
2	0	0	0	0	430	542	
3	0	0	0	0	396	544	
4	0	0	0	0	415	547	
5	0	0	0	0	456	545	
6	0	0	0	0	481	543	
7	0	0	0	0	502	540	
8	0	0	0	0	514	533	
9	0	0	0	0	528	526	
10	0	0	0	0	537	518	
11	0	0	0	0	537	508	
12	0	0	0	0	563	498	
13	0	0	0	0	618	488	
14	0	0	0	0	644	480	
15	0	0	0	0	612	476	
0	0	0	0	0	575	472	
1	0	0	0	0	539	469	
2	0	0	0	0	463	467	
3	0	0	0	0	399	464	
4	0	0	0	0	380	460	
5	0	0	0	0	407	454	
6	0	0	0	0	441	448	
7	0	0	0	0	460	444	
8	0	0	0	0	474	438	
9	0	0	0	0	487	431	
10	0	0	0	0	497	423	
11	0	0	0	0	504	414	
12	0	0	0	0	513	406	
13	0	0	0	0	561	400	
14	0	0	0	0	622	397	
15	0	0	0	0	635	399	
0	0	0	0	0	607	403	
1	0	0	0	0	570	408	
2	0	0	0	0	527	414	
3	0	0	0	0	438	419	
4	0	0	0	0	382	422	
5	0	0	0	0	383	423	
6	0	0	0	0	429	422	
7	0	0	0	0	460	422	
8	0	0	0	0	489	422	
9	0	0	0	0	504	422	
10	0	0	0	0	512	422	
11	0	0	0	0	517	423	
12	0	0	0	0	523	424	
13	0	0	0	0	536	427	
14	0	0	0	0	589	432	
15	0	0	0	0	635	437	
0	0	0	0	0	631	445	
1	0	0	0	0	588	452	
2	0	0	0	0	550	459	
3	0	0	0	0	487	465	
4	0	0	0	0	406	469	
5	0	0	0	0	364	472	
6	0	0	0	0	380	473	
7	0	0	0	0	426	472	
8	0	0	0	0	454	473	
9	0	0	0	0	476	475	
10	0	0	0	0	495	476	
11	0	0	0	0	504	478	
12	0	0	0	0	514	480	
13	0	0	0	0	516	481	
14	0	0	0	0	543	483	
15	0	0	0	0	606	486	
0	0	0	0	0	642	489	
1	0	0	0	0	620	496	
2	0	0	0	0	579	501	
3	0	0	0	0	544	507	
4	0	0	0	0	471	512	
5	0	0	0	0	399	514	
6	0	0	0	0	380	515	
7	0	0	0	0	411	514	
8	0	0	0	0	447	511	
9	0	0	0	0	476	511	
10	0	0	0	0	497	512	
11	0	0	0	0	510	511	
12	0	0	0	0	520	510	
13	0	0	0	0	525	509	
14	0	0	0	0	530	508	
15	0	0	0	0	570	507	
0	0	0	0	0	630	509	
1	0	0	0	0	639	514	
2	0	0	0	0	609	517	
3	0	0	0	0	570	520	
4	0	0	0	0	535	525	
5	0	0	0	0	445	528	
6	0	0	0	0	383	528	
7	0	0	0	0	382	528	
8	0	0	0	0	420	524	
9	0	0	0	0	454	522	
10	0	0	0	0	481	520	
11	0	0	0	0	497	520	
12	0	0	0	0	511	520	
13	0	0	0	0	516	519	
14	0	0	0	0	523	518	
15	0	0	0	0	534	517	
0	0	0	0	0	587	517	
1	0	0	0	0	636	519	
2	0	0	0	0	634	523	
3	0	0	0	0	596	527	
4	0	0	0	0	558	530	
5	0	0	0	0	502	534	
6	0	0	0	0	417	536	
7	0	0	0	0	372	535	
8	0	0	0	0	388	533	
9	0	0	0	0	432	529	
10	0	0	0	0	463	526	
11	0	0	0	0	486	525	
12	0	0	0	0	501	522	
13	0	0	0	0	512	521	
14	0	0	0	0	521	520	
15	0	0	0	0	524	519	
0	0	0	0	0	545	519	
1	0	0	0	0	606	520	
2	0	0	0	0	641	523	
3	0	0	0	0	623	527	
4	0	0	0	0	583	531	
5	0	0	0	0	546	536	
6	0	0	0	0	474	539	
7	0	0	0	0	400	540	
8	0	0	0	0	374	540	
9	0	0	0	0	402	537	
10	0	0	0	0	444	533	
11	0	0	0	0	472	530	
12	0	0	0	0	490	529	
13	0	0	0	0	503	529	
14	0	0	0	0	513	528	
15	0	0	0	0	523	526	
0	0	0	0	0	526	524	
1	0	0	0	0	560	524	
2	0	0	0	0	623	525	
3	0	0	0	0	641	529	
